0,1,2,3,4,5,6,7,8,9,10,11,12,13,14,15,16,17,18,19,20,21,22,23,24,25,26,27,28,29,30,31,32,33,34,35,36,37,38,39,40,41,42,43,44,45,46,47,48,49,50,51,52,53,54,55,56,57,58,59,60,61,62,63,64,65,66,67,68,69,70,71,72,73,74,75,76,77,78,79,80,81,82,83,84,85,86,87,88,89,90,91,92,93,94,95,96,97,98,99,100,101,102,103,104,105,106,107,108,109,110,111,112,113,114,115,116,117,118,119,120,121,122,123,124,125,126,127,128,129,130,131,132,133,134,135,136,137,138,139,140,141,142,143,144,145,146,147,148,149,150,151,152,153,154,155,156,157,158,159,160,161,162,163,164,165,166,167,168,169,170,171,172,173,174,175,176,177,178,179,180,181,182,183,184,185,186,187,188,189,190,191,192,193,194,195,196,197,198,199,200,201,202,203,204,205,206,207,208,209,210,211,212,213,214,215,216,217,218,219,220,221,222,223,224,225,226,227,228,229,230,231,232,233,234,235,236,237,238,239,240,241,242,243,244,245,246,247,248,249,250,251,252,253,254,Target
0.9545396572017704,0.9309314295177953,0.9187678235766934,0.8443101931571841,0.8406925776233369,0.8965223725988154,0.9132686040191911,0.9141029984652334,0.9267817489320396,0.9157896505983136,0.9134524669435478,0.9134246320447557,0.9076189803187051,0.8886279563049304,0.8843485969832119,0.8685343589549013,0.9058588255221136,0.9483385357783551,0.9715527397419668,1.0000000000000004,0.9997902013721807,0.9335322366588232,0.8370183470703503,0.7262557118868211,0.6113352771030693,0.5088674894724083,0.5193325494005374,0.5889172721743381,0.6580375440708237,0.7151831839988971,0.7531644839243739,0.775594730055412,0.7900718099904167,0.7874053775961651,0.7870147041220839,0.7408882015494425,0.655643201319045,0.5418947624475474,0.4073045210010151,0.2812241433424232,0.3531170690624781,0.494038623492592,0.6366960180735401,0.7830515527182533,0.8995155998287436,0.9151288916071958,0.8337260754385496,0.7865881915242023,0.7488776119333216,0.7017516240010706,0.6242925625849094,0.6268675359142768,0.7033744726930116,0.7287223738499518,0.7229000813604158,0.7043786609516585,0.6998343739649724,0.6808522974339719,0.6872342480723659,0.6774662244089646,0.67207230513795,0.6524748387837422,0.6602581691413918,0.6794680614095303,0.7055740611853296,0.7237437667587554,0.6835308029573555,0.6091272279410442,0.5213019159537704,0.43211286608876476,0.40953939813039897,0.47086582717855796,0.5385347680521213,0.6028579571364294,0.6478971219696157,0.6833907989842669,0.7206146738894064,0.7476489880348702,0.7310385839232798,0.6849492085349538,0.596792981866177,0.4773683806281892,0.34429125558512164,0.38279685029019506,0.5156576549821987,0.6653820351994795,0.8039412851936691,0.9326500744554056,0.9811052177950379,0.9403883263624864,0.9259736830307213,0.900102616313371,0.8558705401669209,0.7984114939099256,0.8428011406535068,0.9040424475051316,0.9300519795515654,0.9211568788129783,0.9225585397161997,0.9206253604781582,0.9242296411809447,0.9136566647279172,0.9128686356275009,0.9008390768734995,0.9107931306032673,0.9038641355240808,0.9123369841158371,0.9134490939591005,0.9130980130645843,0.8942359573540668,0.8316149534824517,0.7566175062700435,0.6577930975523949,0.5517591616792923,0.5396061692552716,0.5969477804463126,0.6609930414465404,0.7095135131480705,0.7488617245498799,0.7258205412236047,0.674275902293791,0.6295516404315689,0.577902613408614,0.5071993388688951,0.44080733449847953,0.2987236744820545,0.14408579592745907,0.027305750239600357,0.0001338463148861102,0.03810457601511974,0.16524752034608214,0.3201541218008166,0.44681201565279993,0.4236076246761775,0.2934625916948468,0.13932854935432548,0.025485139924235067,0.0,0.028751064390140968,0.14428522390344822,0.2984651626183932,0.4235929956060578,0.5077506374126624,0.6092016337183188,0.7018639454771729,0.7834190210264214,0.8238100304345948,0.8444471594074625,0.848376617998531,0.8286512044296788,0.823995736137308,0.8170113130974053,0.8353150367729119,0.8501908460483274,0.8503526918191446,0.8503526918191517,0.8503526918191588,0.8502095571711439,0.836729809208848,0.7784645812470159,0.7103194088724227,0.7072296062673984,0.7697471088887409,0.8300939424613571,0.8496134436750009,0.8202335877302764,0.7050476154323646,0.5560792270253834,0.40305203663731026,0.26751246527319994,0.12159259653561438,0.05007935523824747,0.1251580626197799,0.24696637768179697,0.3794544625227778,0.5086287215390963,0.6110962210408384,0.660495531203352,0.6538888745727776,0.616011982597215,0.5683598834060173,0.5330359573543899,0.46583863879326115,0.3989927496704957,0.3386738909050764,0.30891854488135184,0.35279307469962307,0.44102309104807214,0.5275676198412929,0.6135212536965144,0.6366477032246194,0.6052882818266068,0.5988445441254959,0.5717702444297585,0.583765907275763,0.5874503414394954,0.591573386933931,0.6114005147365957,0.6145510340488651,0.6317086449137963,0.6406658494626618,0.6571717077784478,0.6523174807644305,0.5865342327859051,0.5160044133327824,0.5199222397603944,0.5948920061377669,0.6583107494811489,0.7050364885002707,0.7268205816137638,0.6775186950503875,0.5301577695573534,0.39312722568029335,0.24549889613599563,0.11065337379506746,0.028621610807207265,0.09247902234487704,0.2180820720970864,0.3518270153318608,0.48526119532572265,0.6047122453246794,0.6909234833641427,0.7171136840911125,0.6993233626011848,0.6842353509479415,0.6459058006656311,0.5945823142194739,0.5180372910608351,0.44158000211742676,0.3887010355979741,0.42098898470955026,0.5218755032477147,0.6377801426522924,0.7493912470953918,0.8570242796488974,0.9173583751336154,0.9041321535670384,0.8771844748709836,0.8353660428343352,0.8029006770443607,0.7999273043709052,0.819651169499442,0.8259528034733834,0.8454245149890736,0.850337592269796,0.8503526918195194,0.8503526918195266,0.8499962135399257,0.8352370002200558,0.8015032912108935,0.7416635144664352,0.7278496752836463,0.7827339773386099,0.8460370569911952,0.8752899858463619,PM
0.39069778225347296,0.46418173707045796,0.5431948725938693,0.6241006997844762,0.7036263678124905,0.7835676459988432,0.8538907522146599,0.9265831118898669,0.9758794032334712,0.9447502290860579,0.8713156248650706,0.7938016137505011,0.7147981052198606,0.6333718717132533,0.5475574360659266,0.46226640182731504,0.38261424610657846,0.2994030354249342,0.22856700583340306,0.23116334289600515,0.28710018493397516,0.32207596098535896,0.3524503507591532,0.3764083650108414,0.3758410737427136,0.3322966634090794,0.3073945523557948,0.3134942554497899,0.3036910404555162,0.2995640866634284,0.29821666532521673,0.295925364025144,0.3049052461896127,0.29123479765370575,0.27139168641476097,0.22888509553582925,0.16961566217038948,0.10709424329615191,0.05811596918709272,0.07073251533537062,0.12097778990331554,0.16833178737772436,0.19539109051963033,0.2091939921802588,0.23242341407059164,0.28750223319358614,0.3600172831276782,0.43728840864754326,0.5168593293429364,0.5962129211077101,0.6764774067188726,0.7588085804829448,0.8423258500876376,0.9190826592892323,0.983581913746425,0.9819317398307594,0.9162495797649621,0.8344574605472832,0.7539976417187715,0.673515289421593,0.5937106157698435,0.5107650303979254,0.43076441303096424,0.3467382226098157,0.26764211225474277,0.1899454587859919,0.15601190920340646,0.20026771588218217,0.23128636995950247,0.2313450031721953,0.23270351543988776,0.2122583441246806,0.2009021639461568,0.22769674251124283,0.2486757785556244,0.2602698816261093,0.2573837037569062,0.26081906990921366,0.26476783856086183,0.27045109550432667,0.2611667211629587,0.23031887916785498,0.17914487272256308,0.11775698506243937,0.05779434750444756,0.05243634287123067,0.09942189552024305,0.15195362981278926,0.19014884086427108,0.21087871739636643,0.22444925289965556,0.2523890261400521,0.31693870767189924,0.3920910075388859,0.4723196709222415,0.5575379030896515,0.6374159918541005,0.7186015384259783,0.7969216898379428,0.8744895271939896,0.9488250070680369,1.0000000000000002,0.9716575435252393,0.9083331016957195,0.8379166511152303,0.7563673290951782,0.6762634223530468,0.5951964255177749,0.5134808196205329,0.4317310578282494,0.35699625145215985,0.28612637326741663,0.2062445706077769,0.1629280594269995,0.21040069628275204,0.24100332796290203,0.24794081062217743,0.24406056004249876,0.2220977898922094,0.21408110509509037,0.23449274416521604,0.23841126472857166,0.23865614235887977,0.2382718087813318,0.23914543304884628,0.2438687417442591,0.22692317818747898,0.21372806408456535,0.20644858797924792,0.2058760878146233,0.20611533062590626,0.20439956407661142,0.19755351299732649,0.17870041605529763,0.18114419436470652,0.20849144581090862,0.2152824376958442,0.2110395796700717,0.1820527473462068,0.12677682956937875,0.07769847917627026,0.10044847475662899,0.17824923270783555,0.2580218442560338,0.3349628422747819,0.40596522659353584,0.48676365308311387,0.568143693400299,0.6498601563127757,0.7356680159666089,0.8186855068956269,0.8949448615320887,0.9224394098078179,0.858659076984883,0.7811858305259316,0.7028795050953969,0.6207893604429577,0.5414680011608912,0.46138769603200225,0.3863387497780342,0.3209465210470521,0.24949648482054543,0.20576076850289038,0.1857641923881468,0.1683405218665852,0.13453312028468822,0.08756819309552655,0.035157182343708904,0.0,0.02500709390796274,0.08398025333015102,0.14661632930287283,0.202286813230371,0.2305788822555217,0.23005310080685115,0.22437993107513754,0.223486454387108,0.22356118535647718,0.22557354978863042,0.2103204732959989,0.17922977396735873,0.1715006806956456,0.19235009994256091,0.1991122655286508,0.19695081222945943,0.1679795501339152,0.11122887877456278,0.07374557186186825,0.1165470615280586,0.19380690438745796,0.2743037962077952,0.3545232017632818,0.4401191032027658,0.5257885747831397,0.6063194081465844,0.6882869160262473,0.7675046889272068,0.8456601824616297,0.8924625570874032,0.8405513594671958,0.7618642392549149,0.681647403614835,0.6023007667755054,0.5226316760886249,0.441055451730761,0.357019067074305,0.2831088866481024,0.22390460414854996,0.1897499290469158,0.17877613567264317,0.15793405610576472,0.12497657552040375,0.07252551129493212,0.030029110979611362,0.010391953394344844,0.052790103837390356,0.11214442849111594,0.1765799652510951,0.23023970693805063,0.25617416274396,0.2661590892792165,0.2498512279749896,0.257038108940304,0.2666739677911061,0.2723334638101851,0.27546890095638776,0.2744808215096455,0.3047111758949459,0.33784614370042565,0.3273038156438077,0.2967412216584375,0.2674181057567395,0.2245340877040789,0.16558369993893463,0.11411967773179232,0.1402312230475069,0.21891815601395925,0.2984465405841896,0.37783004815070576,0.46148179570823555,0.5428432425295591,0.6244049226276853,0.7047281821617093,0.783716635063737,0.860247468356228,0.8968429669301614,0.8380793870510643,0.7585589117588423,0.6785219908203992,0.5992554980554672,0.5145683169743,0.43158894985412566,0.3582203235482324,0.290680024980708,0.22375299359951661,PM
0.46602012738814125,0.4660359437909358,0.43700713210241116,0.4100731726473512,0.36550119269354386,0.32246759257639557,0.2532665081733798,0.18501499353593776,0.23331375462572623,0.3295554763092703,0.4128544226008426,0.4657228639216955,0.4971791380406998,0.5316475214671357,0.5876152620919539,0.6551840428993065,0.7661443124461425,0.8466287561714028,0.7295548196544166,0.5623026406805769,0.5072495685512566,0.6766329683805932,0.8559034339421885,1.0,0.9586836583837215,0.7818136585560431,0.6251651111499292,0.5621410998237213,0.5304369995838645,0.4912529496376088,0.40691209511748383,0.28956975868185175,0.22873407331472517,0.2690371490511252,0.36755242938830435,0.48522575992436323,0.5421707535531084,0.573712964220574,0.5417027189034469,0.4999869263954668,0.5112234959422484,0.46593403096094654,0.38750657329994187,0.3084692784699241,0.3816472172933052,0.49345766877213926,0.5822542410350877,0.6432912706699812,0.6513908402581992,0.6763430036218443,0.7196750223668928,0.7662538310532137,0.8566752017107202,0.9476204433901838,0.8645553670658508,0.7135389924384441,0.7566972162302816,0.9145393521543248,0.9271008269347663,0.7808207037576125,0.6841893171387659,0.6618461284730035,0.6290625930494516,0.5917883509455555,0.48692277958534635,0.4640835669699408,0.5372662983016268,0.6099973580275275,0.6905281324031165,0.6748888909491946,0.6279078237717624,0.6214784355879166,0.5806153168755888,0.5108139226365429,0.41292436043186154,0.29698606601738486,0.28005369080467624,0.3759836115872508,0.4867480140101721,0.5578460214005228,0.5634156535065173,0.5475635031637562,0.5613719840811804,0.5610260584283884,0.6506917943349864,0.74473655596102,0.8165967022168763,0.9101378745743265,0.8877933753457992,0.7659196854255965,0.5912903943134671,0.5019918973729158,0.4983105441383415,0.47823058465914325,0.3951957969993911,0.32832861719446527,0.27586619153015146,0.29580109717561154,0.3891045240433879,0.4732316469728719,0.4429344006049485,0.3936355891948473,0.36716017173028437,0.33411795679245415,0.3038726886094194,0.2278621646671013,0.14704754877708837,0.17908102372004198,0.2821453537640357,0.36381208823847455,0.40950340037367194,0.41895203557641914,0.4540305736886818,0.49266709279645315,0.5611467506612628,0.6905356751727743,0.7182748319889569,0.6714329430776562,0.7671688936322223,0.8257874380107744,0.7457095580011162,0.6102801380953116,0.5024924985169097,0.45834134528595527,0.44562182997658617,0.36856648398939296,0.28830131112084434,0.31193680945925717,0.32882688672863747,0.37014356309934104,0.4856457504151823,0.5934841558968271,0.46948483934865504,0.3271840890256801,0.21819368284400387,0.2843929331562931,0.422790595192601,0.4159692551947023,0.37075422290004134,0.3188955960299076,0.29232799566259793,0.2816929556957861,0.25742356081745044,0.17655690323905482,0.07366318491859136,0.0,0.006305082461529388,0.09430670572792987,0.16978024027935312,0.20311999802909764,0.2178979038878861,0.26314986859376965,0.30840902954609994,0.3114887237419097,0.2181093779176564,0.12921448185127637,0.12307636052256132,0.171704613389986,0.23664466717529464,0.3232220235069523,0.377189195553874,0.3643135154507835,0.39605779533130026,0.46518280269437273,0.6225981156001383,0.5791378668884324,0.4485525789897924,0.4197583171347947,0.5180128073967767,0.4837475776743645,0.4249105082612772,0.4288796595168236,0.4397184982225735,0.4381239259898173,0.38791860863572936,0.2774451194612917,0.18670393455509515,0.12454674640625196,0.14915848464869352,0.2526186256501042,0.3804044068274397,0.45185496375263146,0.5103436545437603,0.5240499416389719,0.5441155649202694,0.5083320168032541,0.42988705018882545,0.34274509272662623,0.31811490111359664,0.3564360179254642,0.44409993441878637,0.5165643058123006,0.5267812660626339,0.5461817983434409,0.5527376545556937,0.6362704470656144,0.5176290556903211,0.314187743542532,0.20855914415239063,0.3315403065453104,0.496970849549494,0.6387167430694598,0.6939380706715541,0.6204715436881685,0.5796278049672203,0.5699397974595346,0.5336598754792865,0.5052100048532058,0.43267022665457944,0.33552852251258347,0.22240772964663247,0.1535627245075366,0.19372316034225445,0.290297638045395,0.36668587685473764,0.3586728639217194,0.3829714890595035,0.4285619917280723,0.40134424047201467,0.3247303284437564,0.21649251404743808,0.11778079261389163,0.04707418691605092,0.08565810850974831,0.16114691730130204,0.2772207243946365,0.38111185295404937,0.40310440997213526,0.44266397008597114,0.4944165638450846,0.6132571806909288,0.5853463474785672,0.36691720893461977,0.1618854123813387,0.0853955343856132,0.19492273685691952,0.3317388321681394,0.5040409707417917,0.5541399924397075,0.4778092571502208,0.4278422046851107,0.39429490717877425,0.34873547097959534,0.30587448923963034,0.24159855660476115,0.15113331394098495,0.06485497614212665,0.03662409033254033,0.10934516133983951,0.20250262670709152,0.24142886004259,0.27238372787297305,0.3047911256633755,0.34078605226882797,0.3155868567457505,PM
0.6393254525502838,0.6283597806332644,0.6188155890922751,0.5976416064574614,0.5792193786675179,0.5827168346800162,0.6065602760013498,0.6419732894837189,0.6637145787812777,0.7038077811940813,0.7105157906121544,0.6587704451411902,0.5733903397548659,0.4737727228467268,0.36698730351648345,0.26635850526594096,0.19864615885794024,0.2494500141900562,0.33901297030979993,0.4264665550597102,0.510895609626739,0.5779434372792247,0.6151975573759518,0.6255815403325062,0.6467338785410579,0.6478744701967782,0.6173034456158364,0.5511386056909009,0.44388320693721495,0.3321135801698838,0.24940435123284477,0.2802038527103492,0.4057549490087524,0.5331292263153946,0.6495778493818989,0.7222958265062092,0.7309134069081011,0.7379296417438459,0.7355772757881747,0.728268583589311,0.6845767901569921,0.6879180302995094,0.7355761618671828,0.734441454136598,0.7293774410614482,0.7434540015001403,0.764406544478387,0.7789862614505925,0.7860621239637284,0.803455179586603,0.7973517277668067,0.7899295348988371,0.7753916740592413,0.7629751254120523,0.767937950273895,0.7815870945068824,0.8122895165243103,0.8292762925366368,0.8245934475939034,0.7878775526287649,0.7360801737853917,0.6572584055771626,0.5486171169816298,0.4382034424105803,0.35370658766896046,0.39107807481810264,0.4815229504256586,0.5713948729210525,0.6533422136897524,0.7223201868885791,0.7795529146838049,0.8137053417373146,0.846548518965025,0.8537550453033687,0.8277510886276689,0.7686213615132429,0.6732577141736522,0.5731537590826017,0.5146550970655301,0.5972993050136548,0.7270346677741086,0.8412234961492162,0.9344407500804968,0.9587686129367983,0.986352655417086,0.990386505834155,1.0,0.9555832787921457,0.9220582633798795,0.932030917554302,0.9357895985608131,0.8939726625878821,0.8491204724011743,0.7882250987200976,0.7118064135848536,0.6325842288948493,0.5458187895527118,0.45364073196900234,0.3975432110579056,0.39577852732962615,0.3888850403496633,0.3914605794154449,0.3938518009665497,0.3903156098281966,0.4139143200864188,0.42655995921150147,0.42488023013668386,0.41290519948755566,0.4501717190628267,0.47560949231822436,0.48245416830159815,0.5021361032533624,0.5145544791385603,0.48594809716755716,0.4691783495450115,0.37939729316008375,0.2424399548762377,0.1322149342011576,0.034247491830982746,0.0,0.010024406652211937,0.06902464982109136,0.2066210759758751,0.31828001033646824,0.3655729783421062,0.2572486202100821,0.10958597506464862,0.018675234916305516,0.010015241810186648,0.06788077955774119,0.2071726243213079,0.3546404938162757,0.4169271565110044,0.3318652474472601,0.18405341171145828,0.05220119032268222,0.0055316884742016015,0.021182246061597798,0.10780127155183505,0.25558487904354,0.381170492506576,0.39088190529953337,0.37419274947254166,0.3482392397070484,0.33398867540202737,0.33751477577311517,0.3467231946841096,0.325782877820755,0.3013929582569608,0.2976621695546404,0.30218578107559413,0.29965600721859076,0.30962811371477583,0.3032055337039625,0.33340603383788014,0.40257295799813697,0.49102231322045453,0.5746022856541844,0.6568667140761502,0.731927822948018,0.7829929088320622,0.8338107768044534,0.8636597958373109,0.8352282841629339,0.8508314561957002,0.8916615362522329,0.9036340750535379,0.909763108441032,0.8746217556892075,0.8384305493823492,0.7378186164315634,0.6125197694176432,0.48288066726242507,0.3610803981699897,0.34833954895670116,0.4236731699103604,0.514868034956514,0.6093488773275446,0.7099583349233027,0.7624175754218241,0.7673341625178516,0.7445860835629645,0.7054543862381113,0.6411893846653705,0.5658504479609174,0.4781267169001815,0.3941659657260872,0.3019406153143338,0.2490965276946997,0.28624612855823584,0.3890371372302144,0.49557939405347984,0.5944857101530667,0.6759846328913603,0.7322542335834807,0.7534842041900482,0.742540809914467,0.7217909079324221,0.6888223611263227,0.6692030852219952,0.6800872514034131,0.7084386268128116,0.7187207771368058,0.7094687770102341,0.6998718375463762,0.6960771903521952,0.6734452602077168,0.6630449835269099,0.6578270503481125,0.6501571211374335,0.649510038119927,0.6044284100392083,0.5786629574604438,0.6202946661010227,0.6445621595654636,0.6642323442990623,0.6554237613380485,0.6236625635961728,0.5191637776466083,0.3800767545633126,0.24842645044351253,0.1063628128831482,0.00891030644123747,0.04636980183017636,0.14904177995245016,0.24796413425763042,0.35547675517495936,0.459875191879489,0.5385220944145566,0.5666924035002747,0.5623147432144249,0.534800206402549,0.4946797909807721,0.42907610750238767,0.3417522135829598,0.24893157587325643,0.1658569184537364,0.09797542728679653,0.09816374509345005,0.1736204407339601,0.2709314010987911,0.37364453386396423,0.4871867427173262,0.5777698880045916,0.6286351398579075,0.608948007357907,0.5708862601654854,0.5505371372972361,0.5152320667320449,0.49336388590482416,0.505789735947717,0.5190535595515406,0.5378701103487291,0.5473234511516667,0.5521014858474116,PM
0.394714095103303,0.42982683842155645,0.4474187763532975,0.4615886593738412,0.4496463461573814,0.40314821251447963,0.35112227603251034,0.2902656597690383,0.29001712278700875,0.3534183948831595,0.4281584335246178,0.5076347870849833,0.5705560216245136,0.6113812697295335,0.626382572025141,0.6376199923730455,0.6695246639924677,0.7417904513442872,0.8546009241854153,0.9664842733940846,0.9501732212205498,0.8424176489979107,0.7168314206856436,0.6058407872986344,0.5094430258332947,0.4227802191066026,0.47946812238206027,0.5543035752372223,0.5561878812218772,0.555154647289712,0.5124607161766441,0.45151416577080106,0.49251891304828543,0.5565082979339446,0.6124672421617241,0.6415327287934498,0.6730366204863794,0.6824392794426091,0.6554630937383479,0.6136565571463364,0.5752684782193249,0.6120787027364498,0.6858634415206808,0.7530276007172656,0.7968859573378069,0.8225009590429928,0.8122349409029392,0.8108865838689105,0.8235499022287867,0.9022910312458765,1.0,0.992761475818082,0.8808910556420799,0.7567620839184994,0.6543979500985677,0.5578769046485146,0.5070075720579386,0.591292208587372,0.6543227048155553,0.640799674576074,0.589834183366909,0.5251716467491598,0.4588502668576715,0.4565975103469575,0.5314360422264945,0.589775357245057,0.6343210171651084,0.6623235362072308,0.6657084507302042,0.636529783606592,0.5772837186768647,0.5229678150395265,0.5293919076706057,0.5962443612877957,0.6611098683914904,0.6997343441219108,0.7153286290388081,0.7139905818848624,0.6889860215157748,0.6624083522660045,0.6889657462983552,0.7855116596347438,0.8970977037541981,0.9777101483398778,0.9297332438605772,0.8138499777761115,0.6928538696290567,0.5885354684123394,0.4877028467853157,0.5158932786875092,0.579235051657581,0.5853265376231156,0.5698980821549458,0.5107463929045197,0.48652034979962666,0.5372949335286639,0.5990022798116157,0.6550863293818554,0.692068502888139,0.7023179933081356,0.6721365864720954,0.637138216530234,0.594415366888998,0.5571495012861525,0.5832669011935616,0.6529553374036103,0.7149086342096633,0.7441095456634721,0.7311862807813823,0.713970186769509,0.690493194107666,0.6810613018040637,0.6530341629920042,0.6922999964852621,0.6417736254423514,0.5499694784221822,0.47413894129304657,0.5314776247913073,0.5560525537765568,0.520113102057544,0.46562250341124667,0.40496279849218997,0.34014473254289257,0.24502574242761632,0.11612951786297909,0.015071557615717879,0.0031428160524384907,0.06561843826158054,0.19401371596525419,0.32073364140026905,0.4091528681990364,0.4689758592911826,0.4577355113787256,0.3517990418790733,0.23902256770488028,0.10865581629101184,0.014438078910998353,0.0,0.04147723368182499,0.15880640234237964,0.26622474907532867,0.38910465351072876,0.49838835002959936,0.5060506531814766,0.5319367016230179,0.60639521417496,0.6256823788362218,0.6473460861524662,0.6683955636045251,0.6692216326501219,0.6561736242124607,0.5995445727875555,0.528190841142544,0.4827624083126083,0.49842482801739996,0.5425226353766317,0.588791315945604,0.6223943970670063,0.6297527817335351,0.5945102768300239,0.543899542096951,0.48121347476595755,0.42207452466764916,0.3832854013402045,0.43793117166851303,0.5003851634007548,0.5219289980419011,0.4989645807079359,0.3941644256123169,0.2902221082550569,0.2782006819454197,0.3768883249885615,0.48946490951764554,0.5823749063368249,0.6781897659694378,0.6567617758988327,0.607503358954177,0.6038142728844922,0.6333764799175952,0.6475115298743148,0.6470121510567015,0.6233477935067158,0.5708311883011508,0.4952494031361825,0.4425081703783884,0.4569713211510229,0.5085270718272423,0.5639412384732339,0.6042519967795585,0.5978936421848542,0.5679513969542715,0.5209435519775822,0.4495493297506985,0.3796081398406761,0.3495878392371119,0.402754400833651,0.47862365106891636,0.5391044831322369,0.5785831767229763,0.521220399551622,0.4098593814216325,0.34499240202122206,0.3932629261209919,0.5035599723576967,0.6092704814152654,0.718964153236687,0.7781389389140427,0.7549318367076294,0.7507501843895188,0.7471446707078591,0.7464677393779358,0.7428749129518937,0.7008566717810565,0.6311733152966488,0.5587643449088469,0.510394182691035,0.5203560841175414,0.5587422685303576,0.5951472610700517,0.614257961325551,0.5914631774260699,0.5622879774469225,0.5054251503879206,0.4389457795515086,0.3712153599798911,0.3586426572258743,0.43215489612678093,0.48918690513650986,0.4899049652656249,0.4243767568244925,0.31341143130366733,0.24197412315666256,0.2987293529005095,0.4139488526042636,0.5164923990382615,0.6125606182879939,0.662663169278217,0.6092814357680405,0.5842696993110978,0.5759547151947073,0.5544895101123584,0.5102963242720757,0.44820300122098367,0.3709850013658116,0.29333890927644957,0.22512929347314659,0.1982278127016901,0.2413189648543157,0.3039103047784937,0.3585086168467764,0.39928160509181954,0.3920507671484854,0.379728713543769,0.3601301231510381,0.30535979892425535,PM
0.6861897520795353,0.7163469787539825,0.7745910628135735,0.814515982278063,0.8365869041713423,0.8476142832669553,0.8736497802308025,0.8977658224553542,0.8875874539480102,0.8453495707146512,0.7634068694170462,0.6565203541309179,0.5472918408815324,0.4376084135432383,0.3340114487805286,0.3672938699762627,0.4962834316386613,0.6143285382512462,0.7411806411071304,0.8572030256042211,0.963108003057827,0.9957263211199017,0.9486842941294507,0.9432519442663194,0.9009829975818859,0.8564562049825133,0.8115120704468985,0.8378222267917188,0.8911502539873561,0.915275412707337,0.8970577593107083,0.8832830589480394,0.8748075737650884,0.8920893762580868,0.9071416406079194,0.8970544999448857,0.8819274361404781,0.8747435740274816,0.8579667690163721,0.827660495468737,0.7818851529956863,0.7319612371189756,0.6792471271572453,0.6857504408472264,0.7459124646810333,0.7974544134960166,0.8230983467695969,0.8359992204511282,0.8601112273572098,0.865896737854186,0.8502326243388532,0.7925114965756626,0.7012147651992691,0.6085841393304925,0.5102778351083357,0.4198876828799776,0.3269918011288335,0.35835147773674425,0.48679161434072427,0.6134372601737996,0.7332447204114803,0.8636487424165802,0.9539535679653675,0.9404937725631606,0.8819926183825104,0.8404059473233021,0.7880140468622088,0.7418800873196085,0.7426723032039093,0.790553647580877,0.8278113605390351,0.8420720040531084,0.8407528373816411,0.8261776114456354,0.8091920038666367,0.7917044691587911,0.7699595739688134,0.7672793927416488,0.8002113183834059,0.8976925539490379,0.9906280859927699,0.9932069215802506,0.9624682307007335,0.9335798050216906,0.8840164741982712,0.8364236250629733,0.8621984894717709,0.9242083976065416,0.9622076706130969,0.9613520562580731,0.9387162845327861,0.9360657799299195,0.9294044943098005,0.9199870689790091,0.8622657924606889,0.7710783625197664,0.6715566141727316,0.5724360514597526,0.447625953638771,0.3376497489069279,0.3698123047477453,0.48387401622632575,0.6078606963426632,0.7296907094475746,0.8542762304741078,0.9597765628970447,1.0,0.939544625454388,0.9055380035685339,0.8669565305360325,0.8112016052064193,0.7602775793452223,0.7743483178219055,0.8316550080960909,0.838531708950744,0.7915333362839307,0.7719466450627546,0.7623665399678923,0.7737800568723903,0.7771794924399695,0.7588182436843045,0.7426350169409459,0.7480620141903849,0.7540111235822282,0.7674500043256334,0.7552598047005183,0.715451223018372,0.6960234933842075,0.6856511329350452,0.681018327591298,0.6908543482390739,0.7032078017587735,0.711515042831087,0.7116229813303958,0.7131647949445572,0.7179940131925302,0.7467767905741143,0.741853710832872,0.6902606013730614,0.6588067319489217,0.7091417724697391,0.7702822379311169,0.8296302072906596,0.8454670043591155,0.8788031571565047,0.8554244774553998,0.7439120088255842,0.6145619284122876,0.49537413707887135,0.36824968769312116,0.24655479903557342,0.16134075814524307,0.19879099290304003,0.30404720349640924,0.4211188418172851,0.5346556123939727,0.636222048466792,0.7320753294919475,0.8266372664923356,0.8753374136046324,0.8736581027843235,0.8763725799412407,0.8805159790043251,0.8817107408476863,0.8324079532058497,0.7750120174082249,0.7628016269221471,0.8088252069186357,0.8631845479873439,0.8823647003943198,0.9123665768987061,0.8637724981442862,0.7672787411935951,0.7157621312063163,0.7008439449673389,0.7026280216219365,0.7325408759039922,0.7511453272464155,0.7695522628087565,0.7744016314471076,0.7699568560924326,0.7231060062929036,0.6703398621012764,0.6595495057272958,0.7037262336347729,0.7473089651635725,0.7995761099104559,0.835768384567293,0.8028948562111964,0.6870977833661756,0.5616462021317048,0.4411818932531206,0.3084094845663907,0.18283170904050428,0.06502034394134348,0.0,0.06352026126855481,0.17360257785379174,0.29037747572408446,0.40748184130988196,0.5188251809179829,0.6172013936026892,0.7207326786167814,0.7882351516594714,0.8059507057310111,0.7836592485987581,0.7717884330560412,0.7493327990897294,0.7050715292606355,0.6405221785822248,0.5943597927362805,0.613569761441974,0.6668130918904236,0.717486767906435,0.7621281589642344,0.7981972779781867,0.8163222082715169,0.8308643087005931,0.8435489777817486,0.8443571249416371,0.8236452985192542,0.8163789706759603,0.818218958171598,0.8420419419498497,0.8322416056511828,0.7781149975685882,0.7279491983414075,0.7455728222945011,0.8031033986760749,0.8456002942013394,0.8651958572463014,0.8734906323860008,0.8177796307115357,0.7032764499498105,0.5983830497178757,0.5111780792064389,0.406746197597025,0.2754547000434844,0.157731162984311,0.09933592017016002,0.15655222368578725,0.26744044613956985,0.39836765140282493,0.5137589514537688,0.6132912852022336,0.7144842649428327,0.7982208242360369,0.827728663114959,0.8097648162025717,0.7888891464088528,0.773302242376618,0.7456295226534819,0.6918452891653377,0.6374504362378794,0.6154365530793178,PM
0.5797554271404728,0.590109733545674,0.6109950544103482,0.6210936674383314,0.5896003088973165,0.5747193787260647,0.6128141714013622,0.6484906901774141,0.6160012651764366,0.5653172183303083,0.5759564307815337,0.5992971832699214,0.635993390553443,0.6377821662824141,0.617399930510683,0.6207045445747319,0.6469764307658217,0.6529899855003576,0.6661283724425608,0.6838254687883052,0.7240250209049859,0.738215832209856,0.7523523800317595,0.7732778133951621,0.7957646068042812,0.7903571125311886,0.7964267022386404,0.8048109978688447,0.8343032966434993,0.8326154144422375,0.7979373159936478,0.755971071203621,0.7092519687380969,0.6332002831390215,0.5842037588104367,0.5303483210834194,0.45475490251819295,0.35577600701753154,0.31366246965367583,0.35923884619365287,0.4065619218450709,0.4340601601597429,0.4168124028778579,0.40060237628688755,0.4248512116384586,0.4522883933784585,0.505634495854713,0.5610612715698968,0.6233666439934815,0.6620960160405671,0.613909516428151,0.534426511958503,0.46849826974280084,0.4192924557512683,0.37382409106105907,0.3359071149226178,0.4131750755424961,0.5219280018442394,0.6331674255580433,0.6556111227036556,0.5707868859841332,0.4577750590976497,0.345683136987204,0.28026459168853224,0.3329358128088651,0.3303575936756231,0.28070011215044977,0.30263393537527916,0.4143491023812649,0.5146201104739387,0.6058695344863221,0.7051302232670849,0.7687271634521324,0.7400942998034727,0.7294494717518778,0.7196723066146977,0.7167810976250961,0.7279423231233819,0.7278441647056741,0.7449757941839952,0.7597126815597126,0.7747605935760622,0.7808483345036596,0.788497492276174,0.7826330515530713,0.7960523256396037,0.7942023377915493,0.7995424189109186,0.7798119886658013,0.7769064537170971,0.788948604994987,0.8453501272448718,0.8917510738188148,0.8755205952135223,0.8603622862420957,0.8888185689433179,0.9605212191219201,1.0,0.9887700558115831,0.9652821243018681,0.9400787822869869,0.87727507251609,0.7992442851412611,0.707664928897437,0.7123758520297705,0.8166381046618691,0.831987507099714,0.8232239508099997,0.8145961710441214,0.7630445278897748,0.7252619182716882,0.797233127402833,0.8967759571113927,0.9709669477247229,0.9501366938962366,0.8339326827963243,0.7128720186997084,0.645073821771132,0.6969675991406348,0.7292693786790014,0.7061999746279453,0.649936338072501,0.6468382627484912,0.6414142705958352,0.5491174026659587,0.44074641447853535,0.34470049172002915,0.2217099384737673,0.09411028284051515,0.010763536873373614,0.0,0.04634276830226991,0.1640605492827083,0.29233469171423154,0.3865192969571165,0.460873015994252,0.5716676413225308,0.6837942092688247,0.7640227507549429,0.6953588205269012,0.6081276374660036,0.5818674798015109,0.6596526707034549,0.7207749253827602,0.7356121621093723,0.7426448635777003,0.7354778466963023,0.6469698320803325,0.5423829819059653,0.49113685607854896,0.5638199449880896,0.6630066252006559,0.7548669876950003,0.8375289203308971,0.892507576995277,0.9142328143530509,0.9051541126900351,0.8475875009795777,0.7827264628669552,0.7685847469880294,0.7959487872202335,0.7975064113335719,0.7422554803980725,0.7137883204185043,0.7143402789973217,0.7144610388071224,0.7176772948682939,0.7211353854676665,0.7174276554962731,0.7085042851919447,0.7150926693214461,0.7091849748802286,0.7007819370104533,0.6953641869107892,0.688688716706495,0.6664816057912346,0.6586289406593244,0.6482784442443021,0.6532440257120617,0.6331257080963697,0.6413721757564241,0.6582355692478443,0.6279824373131637,0.5339939886380138,0.44248630563294533,0.3365430955977029,0.23756281538612134,0.19026608163075265,0.21617264360673394,0.2595008712998834,0.18717654015398644,0.09604163881147176,0.09316591299635091,0.18264520868409573,0.30379338473515816,0.41412016265599716,0.44788017692543036,0.3580821908889025,0.275575472066357,0.2114334038525829,0.24562322396859404,0.31255627998233404,0.35719050714750855,0.4091843737035994,0.4713341973233307,0.550362793658457,0.5427887347124307,0.4828506262570773,0.4262333550676516,0.3746240760201789,0.35209841510579354,0.3333434239839179,0.3146795387967152,0.35156510695266885,0.350427500598014,0.3029563457206135,0.25082099879007735,0.20738029891717114,0.24964115076473137,0.35588847463397766,0.4486498066111051,0.5031166147381434,0.5511341653185453,0.6285690825553503,0.6819089383373598,0.7218070192555737,0.7575316819475133,0.7552542385574221,0.730419683809373,0.7213477406830475,0.7212110942441003,0.7138316549368766,0.6868404523539544,0.6687599635801695,0.6581381959079988,0.6280168452364818,0.6023455395935571,0.5713814179535563,0.5773487172587282,0.5640329653244365,0.5404744956947569,0.5494717575003087,0.5645250179963002,0.5468548743581456,0.5170328778086852,0.4936643716140816,0.4872308727295587,0.5426770205254168,0.565883632554355,0.5273703533025285,0.5163674393761841,0.5288913947826073,0.5427475927133103,0.5244878662456238,0.5161335709874924,PM
0.13664015371551663,0.14380950178431107,0.20694964081706058,0.23307888938065346,0.23341916953183706,0.21757696785128733,0.19074327212484565,0.18855451820868918,0.2710794925241453,0.41397498573392344,0.5733274794063714,0.7393685169010205,0.8896609597798735,0.9205652139447853,0.7894240262847889,0.6314264577441708,0.4593379393330608,0.3185764271945706,0.2186470166204142,0.2256382146011271,0.32750390291050646,0.31979935058525566,0.23671651417941142,0.15680511924079266,0.18726039093918612,0.18830447922887306,0.1930788417975906,0.20620430732768824,0.20664252295095675,0.19239171240795994,0.15493149078369317,0.13815562899395495,0.18957614355943964,0.25689164339227855,0.2845382005706556,0.2771086448041489,0.2841242889904301,0.2653250844278139,0.2504774022887508,0.32328957455059015,0.4648357863291048,0.6470123704516499,0.8182325586785089,0.9540515071681588,0.9283210149125258,0.7783343855387423,0.6225509366697528,0.47315245924625504,0.34108374889314863,0.26841997782078586,0.32439730500763453,0.3774364762065954,0.31652226325703126,0.21308188857231958,0.2007358037716429,0.2258324145504078,0.2176063800192738,0.21418841606792238,0.19884388217348992,0.18950792114417325,0.1746486696461611,0.13732904027542947,0.1612385685242721,0.21997228262986113,0.2564429189826152,0.2761616433849561,0.27907710934865904,0.25248471212130585,0.2507838785223546,0.3632629116306205,0.5246436329908306,0.6905349657484781,0.8541302639323982,0.9287237966610302,0.8075159799418472,0.6618606162553275,0.5408089228193633,0.40548204590411707,0.2820092061241741,0.2729279779824383,0.37808570387416474,0.4714702744123782,0.4486087257886,0.343769069231028,0.2841875867400825,0.32885726250059744,0.34817845064821196,0.323882600111272,0.2982167961067814,0.303381744549605,0.2780248783793908,0.24371365351472285,0.25072814197613624,0.29031001345062357,0.30974804830920366,0.3067010678155997,0.3153203277962202,0.2776022206175819,0.28318053850028235,0.2931450730837222,0.4297729190784372,0.5917641659424087,0.7635311452167057,0.9301979125276683,1.0,0.8870093453708927,0.7090304192311647,0.5567496385431756,0.4076175395878012,0.3051955531351904,0.32574438760713154,0.4052582468906403,0.3798869024403455,0.2937166881567821,0.26937521318754065,0.2917146015858352,0.27755307821345365,0.24580375806153665,0.2258375759657003,0.2031188782649327,0.1687888628787766,0.13550056853351844,0.18807741041591175,0.2523244850765609,0.25940512171537033,0.25899233158431123,0.24117205175252998,0.23174879554635375,0.31187430811668815,0.4638078785718731,0.6493053375068909,0.7648583211039872,0.6927051456573325,0.5374995930896729,0.3766985675711245,0.23010938886735133,0.13684630652689656,0.12529323180836283,0.14683263648436284,0.16263402524863402,0.15289113840653812,0.1497976097222864,0.08181512957197068,0.016558630708217947,0.0,0.0669871513597089,0.10962329007375704,0.12090210842152516,0.13129355129177434,0.1735891895455426,0.17252193234735635,0.11186464497049542,0.1265162815610532,0.21983703231660545,0.27791098113383406,0.20535148678150072,0.18166725219060975,0.22086305259514738,0.33882969400659224,0.49955950024274554,0.6172560295159473,0.5246944057056648,0.36351491110815104,0.2173385572320461,0.13179408763162925,0.1579994652549681,0.18170738449081902,0.20076404731434216,0.19303851781460413,0.207931743596248,0.17572490705374744,0.11784716018711361,0.11802851780177548,0.1689915923481644,0.1873858075448327,0.18380005113348208,0.21151407015982482,0.24083914530859207,0.22084338423050554,0.14728460400035104,0.15008266313006313,0.2500143962183543,0.34409691769598627,0.28663805529880904,0.1681635815167164,0.09991140680858024,0.14724193139516117,0.2427693118775105,0.37788726086185864,0.5059374573452766,0.4492473720690553,0.2942849676004826,0.17928357599137446,0.13219463089079841,0.15466903775962315,0.17852756159373762,0.17071476682715225,0.14470831597251266,0.09180750585735797,0.03916908604824254,0.027272660246990377,0.0744131797473564,0.09869305437637177,0.11393373108342963,0.11486947455368668,0.13243179067950805,0.10763802891589958,0.05977147381115522,0.12133200809326805,0.2146132092976636,0.22428699714158284,0.1628139636355348,0.17246849125860653,0.2469201149008411,0.3695971759059882,0.5057950087579721,0.617804182392697,0.5209023045661132,0.36543838529458217,0.22311963769135534,0.15066595303446473,0.15283244804969165,0.17765919527721508,0.18011163381177298,0.1657466486378496,0.09796245198465137,0.03212446320731477,0.036936309584602256,0.06843512744709024,0.08619775202767155,0.0945987443159817,0.0814566741611964,0.08033715165426525,0.043526050532022076,0.004156725115776361,0.08363441303838304,0.17812277299790313,0.1555768406745237,0.09937570175779165,0.09902516906485292,0.15943708822223712,0.2857577654108301,0.432644680005315,0.553236547751208,0.4816869808147466,0.32789655541329843,0.19883476642819264,0.10555680050213923,0.0855257218462464,0.11190402279389478,0.1309591740655618,0.1154149655414205,0.10013175763865156,0.04452070541828146,0.020622259211403815,PM
0.4266426225581328,0.45309861864453227,0.5207218547550618,0.5940239821417821,0.6704543688187541,0.7534877856141118,0.8411535097943177,0.9278259161204732,0.9932755108940996,0.9583916482540644,0.8842949826723068,0.8095598816703422,0.7140076547510947,0.6348760173950314,0.5739203103411499,0.4985588105326224,0.4743414376677202,0.48203895674549013,0.467475641918619,0.44194243203357253,0.4311444655108563,0.4529299439515766,0.46973494004174254,0.48207191724491505,0.48281927814063863,0.48574436754198524,0.4974125868917709,0.4875110196389767,0.470209793374714,0.4587799610479464,0.468325476652812,0.48607743100926726,0.4922100164311334,0.48041608547606307,0.4416794862864486,0.3858700824036321,0.324246057494054,0.2709421663012126,0.26428531638351505,0.3066276087078763,0.34909044822302215,0.3837331399200061,0.41869203400691735,0.43623104270744495,0.44872556208386527,0.45055422872542517,0.47100623589439206,0.5268948837785898,0.5989595407876056,0.6729775402573743,0.7596655570415098,0.8544577467864962,0.93026502609123,0.933999987702109,0.861519103352443,0.7654263612918686,0.6771791641175025,0.6068703204918604,0.5368929681406089,0.4997872671075587,0.4785361938449628,0.4515589900771224,0.42023418215704655,0.39405916562411347,0.4008834318638481,0.4268168332279014,0.43364558510869555,0.4410083762221779,0.4579049276380527,0.4450194372536247,0.4397766822027678,0.44305401304853964,0.4293002286063814,0.4193212273175768,0.4264897316913694,0.42014937962522714,0.4259603768475535,0.4317515613167031,0.4113499088690262,0.38255327462669797,0.3348173262122227,0.27850692751621065,0.22254252803061014,0.21986244800560018,0.26155259518486673,0.30517924888781733,0.3490398324497397,0.3791234137286623,0.39930513468215745,0.4016218518781125,0.41398380119517997,0.43809865732961706,0.49646474121568707,0.5733868406448099,0.6464940900505347,0.7270716695230712,0.8112413677600401,0.8973115646712246,0.9865211755285928,1.0,0.9278239837956948,0.8341968802559512,0.7603283751235552,0.6808338023722511,0.5984051786090547,0.5393663684739929,0.47490061042581155,0.45892617667829994,0.45547449896526127,0.44701072366142913,0.411403821999095,0.3937882595167408,0.4030161578983682,0.4176350223536147,0.43056795112684476,0.42717996930618307,0.431494080747965,0.44243502668420653,0.4344859717437535,0.4223560099041177,0.42953815569973175,0.4312958036531862,0.43180495685984743,0.4378907674040242,0.4429257314837769,0.4144685259199785,0.3747621072778107,0.3222459937508426,0.2656883343757932,0.17266174860537253,0.07349336890512026,0.0046868195406428725,0.0,0.04462944763039456,0.1397171237718955,0.2380822254036028,0.29774503272364505,0.3330537319295179,0.36913455813631124,0.39208780658569564,0.38309636623193466,0.3777233475119641,0.3718210864843581,0.370858657996318,0.37677514426527425,0.3906512280700385,0.38011519788384485,0.3778915354843546,0.3740768607456677,0.36119024889910856,0.34813313083114616,0.3484866097165855,0.3682069690576091,0.4002004399462846,0.40914778162251997,0.3771951616358602,0.3693221128386419,0.43229486423227304,0.486858501101723,0.5603035217430006,0.6307493267792283,0.7106771115474686,0.7374029253872174,0.6541293207299623,0.5722661736348855,0.49721198055743576,0.4293614955314822,0.384368350266882,0.3655907505196785,0.35516177860994347,0.34884168155864215,0.3422073026438346,0.3202724845431981,0.28066676798428114,0.2372510615369281,0.19625268874293234,0.16715576938440702,0.17730667864090321,0.23098369098723825,0.28588713633693263,0.33589267073356543,0.3674696788846483,0.3828572532872716,0.37252812123851475,0.368786788631978,0.375502276376273,0.37055167225575314,0.37831190720540775,0.3829471097993111,0.39278208001631176,0.40121819202539966,0.3830890028317282,0.382498270834843,0.37746865780634664,0.359367689273137,0.33991303083604363,0.3444096091491531,0.3687464208192037,0.4060549720730382,0.428901200285702,0.4120545706405596,0.37619265184833495,0.4281759344392335,0.4655342871225141,0.5167773975842391,0.6100012292431738,0.6857497492357765,0.6634774943508424,0.6055692710864928,0.5314282858440831,0.46188319981691217,0.41786832218869296,0.398398894398015,0.40232807304813667,0.3925039958641161,0.3741912852682838,0.3465962342717579,0.3108314137304764,0.26600180289055597,0.22335604968575007,0.19949405622779892,0.21770479755828154,0.27286439203959745,0.33539470592962006,0.3919027826338244,0.42723788609214974,0.42716462975852165,0.4147558898328527,0.4109475306235879,0.4198882570204532,0.429730789605105,0.4381233633880228,0.42817063022198765,0.4348421267037761,0.435668109339328,0.424833911957756,0.41457365245383526,0.3923734513388153,0.37070925495854246,0.3844907356432845,0.4101527076185554,0.4380349688926457,0.426328702627889,0.39323507014467296,0.41030694422451397,0.4691306385294025,0.5258799525149565,0.6126186043476043,0.6963654523064062,0.6795619458809603,0.6011177106049854,0.5283293812292684,0.45552296827524374,0.40140242991374464,0.37924954595236526,PM
0.24985549214522962,0.263497923998266,0.24209756434245389,0.22577716062719544,0.20339768439283734,0.20162017858777004,0.22914100543219673,0.29039355774450737,0.3528500035173807,0.3975462591042156,0.37410322073686864,0.3134455045715443,0.24985629563636946,0.19374539494248788,0.1645281128642364,0.1480321945436449,0.14288039369291328,0.13980262624633877,0.12148818822908591,0.10481083803054814,0.15921145875341125,0.2452070037647216,0.3418600163753198,0.43557041073345415,0.5370312042393595,0.6295377729366995,0.7300562892199522,0.8332191200582924,0.9352688115134389,1.0,0.9564066562648645,0.8651304637986978,0.7693020561138075,0.6748570161077532,0.583470755781089,0.49326751777466304,0.402771434141842,0.3101095334754884,0.2592865914123399,0.24876147188135844,0.24696173523324338,0.24129992392588484,0.22981167749768527,0.20114166811942757,0.22557609475723783,0.23719814844378684,0.23071079394287874,0.23945826418603788,0.25473611745330826,0.2838095850056521,0.3379678468720364,0.3900593603809277,0.4070139696042343,0.3604889619078784,0.29671961776931743,0.22931917363819476,0.17427002880907905,0.15393340569960845,0.13399092770788412,0.1403440902754629,0.13433633998118077,0.12237099309268151,0.1132982482638285,0.17428660943658691,0.2652855339676883,0.36348551833537845,0.4567817346425045,0.5557742280732674,0.651775446173871,0.7478721799576107,0.8507946149595815,0.9404164924894656,0.9367449583004097,0.8503132541396559,0.7583045648448312,0.6650055166975126,0.576309646314968,0.48621095439157,0.40560164667708154,0.3302860489866317,0.2707824851984908,0.2573883535570851,0.2523285651573466,0.2616558727352172,0.24517267308869517,0.2291909880796008,0.25312992570262516,0.26263342146068736,0.2589380817605109,0.2419749061984806,0.23234568961355606,0.25727303495698894,0.3152785082803904,0.3768290297091621,0.42677787931436795,0.4232700885711651,0.36807108984680337,0.3023264533232508,0.2417573617988844,0.19141907687489246,0.17124123155110071,0.1648348094813188,0.16104597319653458,0.157305543033754,0.1250433499801411,0.08038086237149722,0.08736894546178275,0.16644408194969662,0.26413094656915437,0.35649073455427116,0.45729926470441473,0.5600287710582723,0.6539315608634442,0.752317742007,0.8530787098718116,0.9096392734225582,0.8533089041004476,0.7669611857029546,0.6765889418634461,0.5829447374223631,0.49099788941915046,0.39876805666344906,0.3105258302854397,0.26243841082325936,0.26416576281813997,0.24439045602910392,0.24464533033499514,0.23834962894095035,0.22623785503115634,0.2491671037666081,0.24352783144153234,0.24575432734272074,0.22644089621567165,0.21296483002296807,0.2355305564322543,0.27937111734836195,0.2855987031272451,0.23667110305875427,0.18644707091116652,0.15778295789832297,0.16629769751167256,0.18228561693407164,0.19023612154407088,0.19738479506555962,0.1709504988579873,0.17699957043582737,0.1914214495589408,0.19495520235828812,0.21100728270024316,0.20993272770072124,0.22650685077599553,0.30409430564981443,0.39429612780663303,0.4844146871210029,0.5451865818799391,0.48441481592366564,0.38204921211415366,0.2788761216705411,0.17640126367068287,0.08477690168082042,0.012599349428578765,0.0,0.04696651368006455,0.09100830746123911,0.10778373650609252,0.11699035560047921,0.12596765384090425,0.13307526214154608,0.1736067612603649,0.2263414686072278,0.2868277012951457,0.35071531845723536,0.3546469555195486,0.29704356296118695,0.2415450716725367,0.1953495214591916,0.1815533141288328,0.19246853993962088,0.2107073896669993,0.21556624754691978,0.20645835943743718,0.17291392295565444,0.19083167738161055,0.20914845598652043,0.20970399167385878,0.20993282990794393,0.2275401889573727,0.30231597146727784,0.39312132909954745,0.48428880051381906,0.5703801874289516,0.5708856253363628,0.4761620109222213,0.38176269607735414,0.31340505411840924,0.23653041104484318,0.1406055014206804,0.07171743881195924,0.0349882867724669,0.06114314767070361,0.08108006044878646,0.0915386977217727,0.08307886949991161,0.09580604109862856,0.11515547436120332,0.1523857986107715,0.20975723576131067,0.27724323395336326,0.3348461911585323,0.32102168398097897,0.2703806259869652,0.22843543370063069,0.20900351659911642,0.18686959100055534,0.18275865932369362,0.19147531014416197,0.16513095597846883,0.14848990640137583,0.17389116407850747,0.19478791323128375,0.2048037533863858,0.20640084193241393,0.21231145453153788,0.274549852463994,0.36595459554278076,0.4592967128024439,0.5500524922060186,0.6314915208077125,0.6106984828855726,0.5156694686784031,0.42155709017803744,0.3225406367979913,0.22949395208991108,0.1343936924043394,0.06264901628481301,0.04585178367167986,0.08030351941673208,0.09324578839937692,0.09731450888474535,0.10771017819384632,0.11873515763826337,0.1484712278590865,0.19981555168582732,0.2597751677237019,0.3202078991797892,0.3238306582139536,0.26374412305171546,0.20521652653847244,0.16224419910061538,0.1449293357335959,0.1580739903665873,0.18005411813821848,0.20126279770369715,0.21202565531886997,0.19171830348359586,PM
0.8384210738060935,0.7251696043245262,0.5900724688621852,0.48602857419909196,0.5385290626665831,0.6681653579796323,0.7976881626083108,0.9145227636615632,0.9520350020399571,0.9101891821082999,0.8552976261094001,0.8148025537473118,0.84294512364341,0.8681992184437743,0.870082430969366,0.8741102458441512,0.8735932966415914,0.8452735303276095,0.7978135490630986,0.7163904168554383,0.6101180378334248,0.5049940906376666,0.4206207637907595,0.4664074403554834,0.5747473051622554,0.6820861695687261,0.7820941360929887,0.8674741495921627,0.9373261284990866,0.9756483239596445,0.9959035535798235,0.9851840501279203,0.9158566126593466,0.812386674977922,0.6848844398346046,0.5544994728287418,0.43626842209167993,0.3936366176818593,0.49834684905058646,0.6260238183501392,0.7593825163136514,0.8967278002733781,0.9711034320324416,0.9584146933918256,0.9053933873650366,0.8695478135842079,0.8922419318879133,0.9260421002048052,0.9179478560436656,0.9128416179892982,0.911669414587712,0.9162822036138043,0.8818214546020005,0.8181033230828563,0.725160320575081,0.6156171808975714,0.5041897336871788,0.45486700612413467,0.5341244978774755,0.6369273595783866,0.7490774289420807,0.8445878251350014,0.9171194923538457,0.9683045472981298,1.0,0.9987858301158674,0.9695634209576571,0.891461412069591,0.7715496023277262,0.6385291628464791,0.5074145730061344,0.4235754788260886,0.48427016230781517,0.6112266351309219,0.7390022753525582,0.8677663097040362,0.9675564853408494,0.9696833178337774,0.9260305708120127,0.8862582744730028,0.873687526431397,0.9107178736461741,0.9121191025307382,0.9023687003463898,0.893227543328531,0.9003912654935555,0.8937326694874055,0.8451372194365074,0.7706374126249003,0.6748810792023878,0.5586999821481586,0.4512970845422637,0.42185958095872955,0.5121745464800229,0.6191370742958213,0.7222709581138829,0.8129866624633095,0.8774100292479821,0.912392492698189,0.9227485417375627,0.8996010841597228,0.8245687645635282,0.7079714013255423,0.5772067538362005,0.4470926984153665,0.3369175217699474,0.399059629774011,0.5254981444649962,0.6540699978161384,0.7819693700292176,0.8850047015557196,0.8950992220270817,0.8453096402744475,0.8020194272222945,0.804403559441984,0.8485128671589584,0.8641024307898646,0.8736712053498334,0.8650348651702338,0.8679630755875607,0.8854417122028231,0.8912575915339036,0.8464817471209192,0.8232576327087457,0.8098613125475733,0.8011994803044358,0.7988764939614992,0.7837945007352798,0.7453521571465691,0.728181541051709,0.7708031932330606,0.8205175600755212,0.8100459672085849,0.6952471729973717,0.5621301894328514,0.4232011520857375,0.310542188472557,0.19865513220750097,0.07129344477941846,0.0,0.07687464194747085,0.20859504843886345,0.3423467739152919,0.4777407508077407,0.6115421566159838,0.7472963828650672,0.8384102428227833,0.8607239743645576,0.8449160114884955,0.7975178279741391,0.7124390824679505,0.6147554672531146,0.5129897511208865,0.4024259048928638,0.3268264120401403,0.3507470424982251,0.4531514901448426,0.5630738390051375,0.6679426513023006,0.7596750916587656,0.8251880722962248,0.8444673135394023,0.8448993826903259,0.84541478708084,0.8546648805742345,0.8339181129215114,0.8063049804240459,0.8314255680384695,0.8770778093872202,0.9152206556101277,0.8461368845777293,0.7137970366831778,0.5725966784931495,0.44441980914329093,0.31744822688514107,0.1890105037287988,0.08521609085396564,0.11377270321212762,0.23184441335420125,0.36793428107569115,0.49812184425069406,0.6394247710324956,0.7812113626982966,0.8903265082698799,0.9366307957729902,0.9329549007984745,0.9000204739009847,0.8319190103104641,0.744975609492089,0.6408112422923842,0.5295357870265063,0.4258254189156534,0.35670558468131386,0.39852277823602966,0.5104682087891241,0.6154924147440943,0.7153138255889657,0.8033203867696894,0.855321946308246,0.8569123474017895,0.8475832420687692,0.8506549549262985,0.8532162722112502,0.8218389664103865,0.8194977563084649,0.8590503863679548,0.9147242790801591,0.887546697945421,0.7654318789249328,0.6376208501559963,0.5086683322605245,0.37913491558528767,0.24022742260662522,0.12214870881984918,0.10274376701894417,0.2147541443729124,0.3454831917874346,0.48613298111093073,0.6160180269730642,0.7462449287664317,0.8614284142734903,0.9302188923795236,0.9293965483466704,0.9018808038629968,0.8395458975215542,0.7478265645926836,0.6475461942892387,0.5427317210377751,0.4405969085283923,0.3501519162081146,0.3542105231995403,0.4464273221079895,0.5495184338126768,0.641386383227712,0.7299328170337285,0.7872944569868463,0.8121534326826585,0.8134134143473153,0.8111352387098103,0.8175398938084242,0.8077752632013868,0.7634058272730586,0.7606271224470382,0.8079597546886301,0.8596684943946369,0.8661604715812192,0.7585547015757008,0.6289768739271349,0.49965732791914963,0.3718162602387505,0.24384348249740606,0.11669319210204643,0.04252500509541246,0.1223168727859103,0.23915960872748476,PM
0.5456122762759117,0.526327070599522,0.5133584229754096,0.5455854076908482,0.5625200751536759,0.5929651595747658,0.612262461610531,0.6272868491335939,0.6427585201501138,0.6597550872745961,0.7234040823480221,0.7816987865299283,0.7691004675108424,0.6945877846531534,0.5984893946592709,0.5490305700375067,0.6451647007154668,0.7611491859097872,0.8608844049850313,0.8812005138659362,0.8070672218144375,0.7192095283155178,0.6613003186796504,0.6040453669183465,0.5543531911274462,0.49286443708714156,0.4538315577029728,0.506958256581314,0.5506009986264537,0.5874710061438355,0.596635018613096,0.5950717560175569,0.5799028002153501,0.5797179109895554,0.578754713889396,0.5808959463521965,0.5963315448685051,0.5971595618915244,0.595403245726795,0.5856626868740524,0.5628991660237492,0.5364040568540762,0.5250381805549287,0.5580353619126459,0.6036711082631463,0.6342080412943383,0.6613254130399695,0.6537230910011997,0.6625304429334786,0.6745974494845135,0.7367563852835928,0.7942943700960741,0.7563271051906657,0.6666215617362616,0.5872115728497516,0.6318718128797838,0.7465200761314814,0.8570155831923554,0.95550709005812,1.0,0.9302181334020387,0.830719495899551,0.74809813028175,0.6850830498091449,0.63201652037676,0.6099711371447194,0.5496546235105848,0.5341614043298684,0.5699971408123736,0.5868642519536587,0.5872032707831742,0.5871598156797586,0.5811060476011538,0.5683158679344391,0.5677509175005735,0.5677509175005722,0.5677509175005704,0.5673829410552949,0.5502372606112074,0.5297702383264911,0.5407749741783943,0.5769167660558341,0.611947866226108,0.6359426395878756,0.6479260425452726,0.6628956799049734,0.6689347947164652,0.7185434787382392,0.7839038225888375,0.7710925929817365,0.6893283145878994,0.6074307481836585,0.6562820480148996,0.769077183949018,0.8694909705011131,0.9541192070711308,0.9452146195743252,0.8576199286515407,0.7568628425863153,0.6857210100448778,0.6333972034740891,0.6037298297554252,0.5461094851052177,0.5037950600151992,0.5398484957302183,0.5767924684299941,0.5821011534347131,0.555866904624692,0.5491537257985715,0.5534093690145889,0.5315588014053336,0.529677458749247,0.5431308654915425,0.5480924729730736,0.5387094359441766,0.524985749160753,0.5123403475317581,0.5347172909590361,0.5702287074893606,0.594943312220289,0.6063483685429505,0.606225770656359,0.5886902559650844,0.5541311212486018,0.5417202184884693,0.5501793392893606,0.5308257307150717,0.4948307839314756,0.4665913153548593,0.46304713098663086,0.47438891852854015,0.4838247047204125,0.49607345417479287,0.4841782105042336,0.48216510003897506,0.4838345783033491,0.49850702206793374,0.5019011721398288,0.5143618010594793,0.5266345269597372,0.4834413093141716,0.4418160085865992,0.43924609007035853,0.4958293505373028,0.5527620485687175,0.5825935982442263,0.6078940931743757,0.6499686220293044,0.571512539282609,0.4555375383684095,0.3392529651179288,0.22923340197668818,0.14003766652056537,0.15059962780252434,0.24440431730742906,0.3540982994603157,0.4552941362998353,0.5558390386956584,0.6488865648863298,0.6538463968319013,0.6201237482555273,0.6125697209851992,0.5992226555610176,0.5870166849441696,0.5639095956160016,0.5221352371135568,0.4877909715507114,0.466611284825027,0.4808938389607098,0.5063744965442978,0.5131931746283627,0.5138871755646832,0.5109522472968888,0.5164539532867574,0.513347840742759,0.5109114267717287,0.5227449396175596,0.5378106645677811,0.5404370228024131,0.5301967602414659,0.4936299255393206,0.4585076331021867,0.47206285937516723,0.5368706969933914,0.5780206398868666,0.6021919803230005,0.6371958551034727,0.7166403664343144,0.7166729329462496,0.6069549294021361,0.4906280580154787,0.37429535701172867,0.2580240119364534,0.15291007622148278,0.1340504013349797,0.21106118962397513,0.32209634578395585,0.4239597341460719,0.5339283543869158,0.6301576029697014,0.6874028644435874,0.6376219446797826,0.6055264431152025,0.5987633722300107,0.5821118406739765,0.5930073615426714,0.5763369987866693,0.532000712068053,0.4921396311541444,0.4552861809382329,0.46622813601778024,0.4957091560720088,0.5168897011574289,0.5244564143479384,0.5251034651587432,0.5207722044781882,0.5101247999606722,0.5142179958590476,0.5213475919737092,0.525319592461813,0.5259813838437641,0.5118878460888161,0.46277494128325225,0.408207433194097,0.3743479110987269,0.4055854443935134,0.4793695649127123,0.536889527767161,0.5694655512547939,0.5799668251142265,0.5695444006648147,0.4672319250247643,0.3510288168110116,0.23470043037035193,0.12098132571504472,0.026504351703632967,0.0,0.0644531783672253,0.16011985313781985,0.26833126382579975,0.3792392307175798,0.48221229812945055,0.5923951248782284,0.6706703892111152,0.6438351110187579,0.5916711562676693,0.5784044084785864,0.5642941165393003,0.557600427495835,0.5313310949221393,0.4992747581715764,0.4621706566446582,0.4513957353715705,0.46996526585995957,0.491708896842864,PM
0.394714095103303,0.42982683842155645,0.4474187763532975,0.4615886593738412,0.4496463461573814,0.40314821251447963,0.35112227603251034,0.2902656597690383,0.29001712278700875,0.3534183948831595,0.4281584335246178,0.5076347870849833,0.5705560216245136,0.6113812697295335,0.626382572025141,0.6376199923730455,0.6695246639924677,0.7417904513442872,0.8546009241854153,0.9664842733940846,0.9501732212205498,0.8424176489979107,0.7168314206856436,0.6058407872986344,0.5094430258332947,0.4227802191066026,0.47946812238206027,0.5543035752372223,0.5561878812218772,0.555154647289712,0.5124607161766441,0.45151416577080106,0.49251891304828543,0.5565082979339446,0.6124672421617241,0.6415327287934498,0.6730366204863794,0.6824392794426091,0.6554630937383479,0.6136565571463364,0.5752684782193249,0.6120787027364498,0.6858634415206808,0.7530276007172656,0.7968859573378069,0.8225009590429928,0.8122349409029392,0.8108865838689105,0.8235499022287867,0.9022910312458765,1.0,0.992761475818082,0.8808910556420799,0.7567620839184994,0.6543979500985677,0.5578769046485146,0.5070075720579386,0.591292208587372,0.6543227048155553,0.640799674576074,0.589834183366909,0.5251716467491598,0.4588502668576715,0.4565975103469575,0.5314360422264945,0.589775357245057,0.6343210171651084,0.6623235362072308,0.6657084507302042,0.636529783606592,0.5772837186768647,0.5229678150395265,0.5293919076706057,0.5962443612877957,0.6611098683914904,0.6997343441219108,0.7153286290388081,0.7139905818848624,0.6889860215157748,0.6624083522660045,0.6889657462983552,0.7855116596347438,0.8970977037541981,0.9777101483398778,0.9297332438605772,0.8138499777761115,0.6928538696290567,0.5885354684123394,0.4877028467853157,0.5158932786875092,0.579235051657581,0.5853265376231156,0.5698980821549458,0.5107463929045197,0.48652034979962666,0.5372949335286639,0.5990022798116157,0.6550863293818554,0.692068502888139,0.7023179933081356,0.6721365864720954,0.637138216530234,0.594415366888998,0.5571495012861525,0.5832669011935616,0.6529553374036103,0.7149086342096633,0.7441095456634721,0.7311862807813823,0.713970186769509,0.690493194107666,0.6810613018040637,0.6530341629920042,0.6922999964852621,0.6417736254423514,0.5499694784221822,0.47413894129304657,0.5314776247913073,0.5560525537765568,0.520113102057544,0.46562250341124667,0.40496279849218997,0.34014473254289257,0.24502574242761632,0.11612951786297909,0.015071557615717879,0.0031428160524384907,0.06561843826158054,0.19401371596525419,0.32073364140026905,0.4091528681990364,0.4689758592911826,0.4577355113787256,0.3517990418790733,0.23902256770488028,0.10865581629101184,0.014438078910998353,0.0,0.04147723368182499,0.15880640234237964,0.26622474907532867,0.38910465351072876,0.49838835002959936,0.5060506531814766,0.5319367016230179,0.60639521417496,0.6256823788362218,0.6473460861524662,0.6683955636045251,0.6692216326501219,0.6561736242124607,0.5995445727875555,0.528190841142544,0.4827624083126083,0.49842482801739996,0.5425226353766317,0.588791315945604,0.6223943970670063,0.6297527817335351,0.5945102768300239,0.543899542096951,0.48121347476595755,0.42207452466764916,0.3832854013402045,0.43793117166851303,0.5003851634007548,0.5219289980419011,0.4989645807079359,0.3941644256123169,0.2902221082550569,0.2782006819454197,0.3768883249885615,0.48946490951764554,0.5823749063368249,0.6781897659694378,0.6567617758988327,0.607503358954177,0.6038142728844922,0.6333764799175952,0.6475115298743148,0.6470121510567015,0.6233477935067158,0.5708311883011508,0.4952494031361825,0.4425081703783884,0.4569713211510229,0.5085270718272423,0.5639412384732339,0.6042519967795585,0.5978936421848542,0.5679513969542715,0.5209435519775822,0.4495493297506985,0.3796081398406761,0.3495878392371119,0.402754400833651,0.47862365106891636,0.5391044831322369,0.5785831767229763,0.521220399551622,0.4098593814216325,0.34499240202122206,0.3932629261209919,0.5035599723576967,0.6092704814152654,0.718964153236687,0.7781389389140427,0.7549318367076294,0.7507501843895188,0.7471446707078591,0.7464677393779358,0.7428749129518937,0.7008566717810565,0.6311733152966488,0.5587643449088469,0.510394182691035,0.5203560841175414,0.5587422685303576,0.5951472610700517,0.614257961325551,0.5914631774260699,0.5622879774469225,0.5054251503879206,0.4389457795515086,0.3712153599798911,0.3586426572258743,0.43215489612678093,0.48918690513650986,0.4899049652656249,0.4243767568244925,0.31341143130366733,0.24197412315666256,0.2987293529005095,0.4139488526042636,0.5164923990382615,0.6125606182879939,0.662663169278217,0.6092814357680405,0.5842696993110978,0.5759547151947073,0.5544895101123584,0.5102963242720757,0.44820300122098367,0.3709850013658116,0.29333890927644957,0.22512929347314659,0.1982278127016901,0.2413189648543157,0.3039103047784937,0.3585086168467764,0.39928160509181954,0.3920507671484854,0.379728713543769,0.3601301231510381,0.30535979892425535,PM
0.121959977845985,0.130136792983631,0.16340837556232213,0.25790479925186993,0.361028391514008,0.4774200300647289,0.6040867813097073,0.7250433228135327,0.8564914978310254,0.9388546554780826,0.8857509327160962,0.7733179864757744,0.6470108956326497,0.5149935600947222,0.39032432402690365,0.26838569434657433,0.21597943895669225,0.2126832484753347,0.2146657704794972,0.2722825806050784,0.24977855877494548,0.20344456099598673,0.23538483153832157,0.2830036492013246,0.3254116712931223,0.35280482285616444,0.3366434539140455,0.32528236841175584,0.31933957043311256,0.32963761103337763,0.31309658456507883,0.3101938896412273,0.30066779800843335,0.2811343104065136,0.27662625174734945,0.2716219991759692,0.2842389652399149,0.3012978431788227,0.3503591435939555,0.41170499794577164,0.41355503683418426,0.36817643591559257,0.27843412548126434,0.1834210615519467,0.11773255340141908,0.13867638506235114,0.18886796808776918,0.219299325249259,0.23096960945785927,0.21178071316914782,0.20902687071611403,0.2220367287272964,0.21540654326198805,0.24523860525521712,0.3038866009183332,0.39604688397534904,0.48555087779893213,0.5939732344007478,0.7094709399661943,0.8453181168538979,0.9664892979820898,1.0,0.9139869566114198,0.7884346635147459,0.6588225375025063,0.5379939711421704,0.41753247413295735,0.31640850512849905,0.3060660270794111,0.2867902859013354,0.27616971913713595,0.24413658870823784,0.19063709930100003,0.2083455327460504,0.24428150562063777,0.25885770617751547,0.2591597422343117,0.2591597422343055,0.25905952437329205,0.25029389355732956,0.2633036183954074,0.2573309815756737,0.23463424084874873,0.24484181059823307,0.2552130405865407,0.24727976960219245,0.25127277454372177,0.24993254482049831,0.2992019884312196,0.3453789697643286,0.3746661727423488,0.35821711307488346,0.27535327907619056,0.17974411718153327,0.10100862994953275,0.11044598683161322,0.1580556702540843,0.18683739989908688,0.20631782822724443,0.2038932890398355,0.17727732773919147,0.17934830266172064,0.1830249978741474,0.20026648416019466,0.24764380985310552,0.33921090527161724,0.4285156439441975,0.5119813671671194,0.602997230246638,0.7291004560135486,0.8606367222247728,0.9493231151575525,0.9184343931077086,0.7974877883246396,0.6676374200175017,0.5482621636813256,0.4313151591974158,0.3246782570583733,0.2856579181133405,0.27600273221859695,0.2669585084967805,0.2058137884536153,0.16116834103518496,0.18679652324067764,0.2418676705213434,0.2588817792355904,0.2574738321473191,0.2501398045834433,0.25889530474531863,0.25915974223411986,0.25915974223411276,0.2587410427165846,0.23764517296242538,0.1856041036940388,0.18271084373869328,0.17683407512802507,0.1779527946409365,0.19478461579936202,0.17711729306491186,0.1722765108636004,0.17151534130079504,0.14478294852054052,0.10002125717867294,0.07511790549589126,0.10364605669724813,0.16174868117242713,0.18927840031003917,0.2113139987055126,0.21714360829707235,0.29092960581261185,0.40306103318122855,0.5085955694429396,0.48129942487056,0.3911836711545025,0.30204274252688723,0.2113395095654127,0.14198347086929353,0.10846306598254074,0.0973995348239809,0.09558773130882336,0.09688648211603645,0.11522629409158736,0.11666653452154829,0.11191549354846675,0.08203484442855391,0.03198424609539252,0.0,0.03267946428183244,0.11117531367546185,0.2110268293002866,0.28837503521936725,0.26579575294081437,0.2167874192415331,0.17664076262051687,0.15975952503929047,0.15561404751987418,0.17166503803731548,0.1711234713448997,0.15582473685034426,0.1689898427839891,0.17248326443401663,0.18300408685081582,0.1764142078419466,0.17842939908702515,0.19465903798709228,0.17517724658522837,0.14346574213842,0.10282001855498013,0.08158061701419062,0.1331746796665989,0.18038445802204617,0.19200277454993042,0.21867463394320996,0.21150926670447845,0.2711980810227592,0.3821454376718645,0.49219896188151235,0.5827446508975171,0.6996328772735723,0.7227711685216462,0.598741932913124,0.47812421849234,0.3738815486470859,0.2880471511539531,0.2037044003478945,0.16247257702042095,0.14704420011679353,0.13873198695195121,0.12191361797428257,0.12499475716909991,0.14426436482799865,0.13518862688235167,0.08777509962592411,0.04328414454184504,0.02590701841268661,0.0693814298190416,0.15839597667380634,0.2546959496848906,0.3278874173074593,0.2984669554956252,0.24853518201966285,0.20925726245963094,0.2017720769143514,0.18718599558310167,0.19435101239618913,0.18490202551613777,0.2092408093760234,0.22312108559712662,0.22896607482607312,0.2460408862949901,0.23882494260674303,0.24854208771362885,0.24893617664454926,0.24752823586917483,0.21349079716048625,0.16664950815052038,0.12761093722524652,0.14102542765445314,0.17007877063766053,0.10336625932976062,0.08770602508755232,0.11881255228369891,0.14879248696488823,0.23216115018030425,0.3453391847177558,0.4583500058850358,0.5820407461665447,0.5626093041583768,0.45770135671000567,0.3450772058924825,0.22943109938778417,0.12317441172015986,0.06113310336686961,0.03907128671018434,0.034061819066658394,PM
0.3498274633765708,0.3547526691435303,0.34709254172525306,0.3441375051923403,0.32184439811828947,0.2803690848338536,0.20831720520891528,0.12928469254251818,0.08256491042278968,0.09784214654458312,0.16575244039986448,0.22339831607914062,0.2675235968533576,0.2952590763133811,0.31243632013967604,0.31256642883539065,0.3015961015687716,0.3117327287581544,0.306509806555197,0.3581757906787839,0.4609081034564748,0.5605624556287343,0.6507663709671165,0.6775174533657093,0.603180910587787,0.49710799612031664,0.38772549463384154,0.3382495425222434,0.32865622398068917,0.29151309182037277,0.2391227660575428,0.24292306038254674,0.26923111760563945,0.3029889885169279,0.33009959910705833,0.3465167507152893,0.34243466033027614,0.322595591339379,0.3233941789689423,0.3317974813949798,0.33133986734148957,0.31611481411713394,0.31342564439895737,0.3134596793324942,0.32046496542034575,0.34427750729659046,0.37227844505224494,0.3928010002390545,0.40212790313942426,0.39787143102739275,0.36524378172415384,0.314742616070387,0.2529535670310459,0.17792795608953593,0.1294359575076518,0.15728419963875773,0.21504819071563386,0.2684076334784087,0.327475448421056,0.3593562333066074,0.39081033247398,0.4019861027568501,0.3978513002550552,0.4159853270317475,0.4281753355361273,0.4852692827148859,0.5930531033766888,0.7022396534150186,0.8089521317236761,0.9160951154601582,0.9919302176815457,1.0,0.9202044233396318,0.8188957447104208,0.6989389004306901,0.5761440418015393,0.45772560452763766,0.4084517134261252,0.402608092846263,0.3724505989431326,0.3223708639510594,0.2929334286090528,0.30819544181648073,0.34316200213668413,0.3764359704042546,0.39597320877173736,0.39721807691221667,0.39464443396882976,0.3852397089658184,0.39316324133859437,0.37093326706391494,0.3581323432794896,0.3545457217271428,0.3478811674857374,0.3588197723128439,0.37614911366964066,0.39366192947028544,0.3908233299607198,0.3765275864183084,0.3581397611486943,0.3378224720420673,0.2947964751667467,0.22688362334238033,0.16653431247950534,0.13042173929711387,0.16899490053262234,0.22710654813506093,0.2926406533227337,0.33614440039227045,0.3573054849885642,0.3818655141578544,0.39518211316720464,0.384792299178367,0.4007072135211245,0.4094644450528402,0.4779841986411193,0.5881157298155895,0.6753491314180406,0.7547925892042153,0.7648583851609647,0.6816071903727909,0.5682391748558859,0.45641747729058224,0.41620335854231927,0.41881652599024655,0.37683659637123323,0.3256360683168116,0.30523447653842073,0.29035632053087435,0.23557972749567524,0.2271800283698493,0.22465364212628236,0.2696509280277608,0.3265396508366627,0.3300292627151258,0.29549449028347796,0.3260628174647606,0.4285345201580215,0.5368287418044555,0.5898891235248875,0.5016711988885669,0.4116463115738225,0.35020045020676527,0.3270606065165049,0.32674668895126313,0.3267082899717897,0.3197897137461596,0.30231383610410045,0.280100949905397,0.23268171490238965,0.16088584115792814,0.10569163402763238,0.06851652089064997,0.07006563675565403,0.12130651488390587,0.18301138983745968,0.2533839999717342,0.2820488199822617,0.2979994613761896,0.3253399145157765,0.31458137384805207,0.30466261922726234,0.29936900876054073,0.2834279374470339,0.2825950339181027,0.29479653571185427,0.3149122107106641,0.32651494749415866,0.32674668895147896,0.32674081924622245,0.3232454099565012,0.29047886995433636,0.25384178975764593,0.22323045934480445,0.22223043093310846,0.2241036231789746,0.28318208953932356,0.3244798881783173,0.2976980262382427,0.25518387468002235,0.32093371278733285,0.4244607525423323,0.5395630708660204,0.6464279467990028,0.7649220221004427,0.8255428565398706,0.7441545223954122,0.6363140290337634,0.5309400268253359,0.43919037756237866,0.36944074760423007,0.34875617492965283,0.3333757085010616,0.32780928222913674,0.33427543907513213,0.30308116127672013,0.2764417733745357,0.22412682414445761,0.1625064697398808,0.10450077304021965,0.07027788901470489,0.06730750776447536,0.1193049395761081,0.1926151091323418,0.26305602725954236,0.3105323978401744,0.3359412585278303,0.32805419706997174,0.3070755915627501,0.2901057033759429,0.26114213748307646,0.24147764170714048,0.23899166825076446,0.24726490620959085,0.2539414533316977,0.25479955637282137,0.24717904391476564,0.247211827097491,0.24963491715216746,0.24554812901067136,0.256848369284552,0.2535272274107765,0.22221378535264646,0.17932659811585872,0.14999951975512715,0.1518547142874178,0.18970824543867382,0.24279949713089577,0.23760212632293598,0.20231615457418872,0.2327789815241359,0.3280284879949962,0.44074014218672675,0.47245076761445626,0.37267048867755914,0.2699430462628447,0.2216156579588313,0.23464499139518535,0.2380102353851803,0.24477268985574474,0.24022997677154434,0.22607438086461507,0.20213293158988943,0.15533812688882387,0.09621479428302981,0.029258001532577183,0.0,0.02669044578916191,0.0767160871796011,0.15223093085639672,0.22254522751684513,0.2680524838465832,0.28209368403079393,0.2821319175639996,0.2716163737626469,PM
0.38766238015818466,0.3540475116136492,0.349255554397633,0.3594572859197638,0.3781481139833276,0.40564356537171786,0.4111381299424264,0.47109505321037126,0.5603603074348795,0.624413100232144,0.5981114055399082,0.5234881395663185,0.46175511231578037,0.5144721073165699,0.6142208551486594,0.7147785813453966,0.8108736128069394,0.9017089838755186,0.9905419661702028,1.0,0.9273291938738613,0.8415463677151007,0.758218261929263,0.7021233766597752,0.6846409775649804,0.6520411140410967,0.6330255974842682,0.6295731408314262,0.5894398168899011,0.5296845893244786,0.45379772898544646,0.3663727686989966,0.2742050760631858,0.18186819209723382,0.13956685110521994,0.12938878772102447,0.19644725469162116,0.2787896466994102,0.3264778781676583,0.33383335679146464,0.3411929719457629,0.33987204689780404,0.3528878374364557,0.4010826864606747,0.4666089025352793,0.5186460884218409,0.5433261107649252,0.5462840887003666,0.5239226852557053,0.5211278997659132,0.5351131584209301,0.5554575020949675,0.5737549080130426,0.6154773207438016,0.6443740170300378,0.6243111039509555,0.5807866588519448,0.5129952401680411,0.4411358089915782,0.4557087416922556,0.5444639839150125,0.6425341537426399,0.722102102427582,0.8165373012031036,0.9146967713566503,0.9654565690208425,0.9135388771625297,0.8280949624675844,0.742283364649623,0.6638438414397188,0.6153924458070414,0.5761867987395561,0.5206878787877076,0.47118631864378635,0.45187211667753546,0.4123045620328458,0.40568123756952446,0.4164571829696415,0.41710181256682244,0.4046669625998667,0.3830464056186531,0.3812700253906227,0.3629141620211618,0.34960761026422116,0.30616806692249243,0.27344295042772293,0.30285889121236487,0.30671053418158767,0.28722601625083,0.26663222419466814,0.27072286892446096,0.2814287448828443,0.293852503590756,0.3060708916524377,0.3079044903688293,0.2718750601595201,0.20946962066845876,0.13948973335887427,0.1652982505257503,0.25610468318784685,0.3564967595034956,0.4570917200820874,0.5576679014005204,0.6523645475406794,0.679407114278423,0.6156351806272862,0.5322753129169802,0.4462160160271669,0.37312249587742086,0.3390332060255776,0.32326593355039357,0.29736744402573256,0.30464662020607003,0.3429680643347637,0.3455052745504741,0.3490873043911136,0.3649456452787869,0.3860968326842702,0.3958733636993199,0.39500545238354023,0.3975907847568281,0.39252764180702293,0.4160512171040316,0.46665260717236334,0.5209611989469387,0.5736709181046624,0.629478419162993,0.6850736511942435,0.7280617183711833,0.6952520836111438,0.6084991550976055,0.5401774781077284,0.5099423711424298,0.5485244947472627,0.6195515448317304,0.6271072061310656,0.576442239789265,0.5203001641597127,0.46473320820174013,0.4134084363088455,0.3692841442774655,0.3532832832661277,0.35136955204233056,0.34756231401005167,0.34909396366404266,0.3364149232489537,0.32303996026410653,0.30418673968821164,0.29706765997556905,0.29452337056611055,0.2532446591038302,0.23883693490129332,0.26705503549871246,0.2915792919267406,0.3190406149279106,0.3668631801330786,0.4143490394187297,0.3486609025617282,0.2486581934003831,0.15236103403648737,0.0633348791048145,0.0,0.030633850019057274,0.1019863412941624,0.18082290804157797,0.24618147016433678,0.2691770460766931,0.2590018352731911,0.2459745214007718,0.22887116424654286,0.22072272682964122,0.2157150636367522,0.24137510477844915,0.26156388067682945,0.24363915377011347,0.2084896030948462,0.22744547311719288,0.28851245938060943,0.3155375981275781,0.3253096317569022,0.33789067712892074,0.35146614415872657,0.3699512452868259,0.37243002286180404,0.3677169292779001,0.36381509581096116,0.36011238165458925,0.39523044490202697,0.41194417624401725,0.45260052185648814,0.5085522449263107,0.5598411826866609,0.5978679636404798,0.6530724559063179,0.7105750145991809,0.6492761665391491,0.5491460429286819,0.4508347870821239,0.3619986343378825,0.2935878823456002,0.3224855070754007,0.39675691623125386,0.476160071234601,0.5459687098651753,0.5854552278399909,0.5739929281478209,0.531792897730825,0.5075538089922014,0.4862901238255013,0.47298715010547454,0.47787801355849924,0.4992734570448447,0.49915765875406937,0.4607585200748283,0.4066045650464072,0.3421043336362888,0.30939894038645077,0.2966327821331447,0.29129525762469255,0.28681146872908503,0.2533861449257091,0.17476358579114004,0.10314224408808847,0.07916441779259076,0.1008148919381493,0.13685957671776583,0.2207397216168836,0.31483822604232437,0.402953455434075,0.4842953580643554,0.5488517660183878,0.5789230359376414,0.5802620571542438,0.5935254624530519,0.6333637766143299,0.6533184741275204,0.6606432890731977,0.7152783777679699,0.7230079792273068,0.6404522417111851,0.5405941262755465,0.4409987622852167,0.3534871285871537,0.3071624153491759,0.35524858319894204,0.43246099866037513,0.4744064984035008,0.41452239282872183,0.3623449944288444,0.3558160955621097,0.3327238771890859,0.31437672856507026,0.3086712271686407,0.311149596829968,0.3322887676081616,PM
0.9303255662847261,0.9185943683278182,0.8744313952530707,0.8080095771335705,0.726669030120112,0.6417159161189319,0.5965973697669664,0.6414086201556044,0.7188179383811693,0.7790870898165747,0.8315526372861388,0.8731270524716437,0.899279808834776,0.9156932000342728,0.9013849312120086,0.8896513562057722,0.8749439939705388,0.8176438215344541,0.729666735144884,0.6349951486572047,0.655403059063119,0.7663712616752765,0.8674895291513951,0.9356741590755946,0.9664102183547265,0.9676644886418533,0.9676527032846525,0.9619497663457213,0.9287250506257241,0.9106928854105067,0.9324856250682259,0.9364647999245115,0.9251267274600852,0.924875933790231,0.9247299425089976,0.9150091537545881,0.903721595047378,0.9037702228493578,0.9150885570183962,0.9113943469073793,0.9093056160691142,0.9205252382514972,0.914754265562089,0.8823093340459112,0.8229666313252202,0.7507624374099522,0.6814603767126663,0.669269099449362,0.7341183321921889,0.8043603767325989,0.8609082491431463,0.928126336235263,0.9708744288585263,0.9737103406196344,0.9860703473066419,0.9719293182200852,0.9537050571879004,0.9098941546815085,0.8466216251151923,0.7594997218112707,0.652420994964046,0.5732081163458873,0.6536082337171711,0.7772019593167734,0.8805650132488938,0.958703005928085,1.0,0.9830080881861019,0.9909477953765697,0.9952892564218616,0.974257356920968,0.9616108110903197,0.9573577257329782,0.9604653284621292,0.9675842162981216,0.9643688772444459,0.9467336838511509,0.9385562331964188,0.9308675644238562,0.9288783384290547,0.9279539210025525,0.907073005542109,0.9034887996861389,0.901863733253697,0.8950348407395841,0.8946458863754811,0.8842981385387634,0.8531331146176298,0.7963930905271872,0.7260292953115233,0.6489171451603619,0.597531351805026,0.6466534696368402,0.7105151262362175,0.7750400927785486,0.8411745837805067,0.8827985454828524,0.9126421438156314,0.930326302127046,0.911695319719259,0.8967830849915206,0.8735129816556757,0.822110613065298,0.7341475962067694,0.6280244721802521,0.5179424916398405,0.506835416554344,0.6249607620732842,0.7447162987620026,0.859038288337238,0.9372535782065996,0.942052191956988,0.9316085766888986,0.9374891129578589,0.9407063765380976,0.9420013303364696,0.9187363580889185,0.9097843845265685,0.9041651276235485,0.8654275459205087,0.852653314783399,0.8610335586988893,0.8564647737916435,0.8681522045514765,0.8574397136710936,0.8547903978631584,0.8290254001928248,0.7195145599381809,0.6071120848743305,0.4818036871798701,0.3661023504145837,0.24574921182085374,0.1392958088395857,0.1339442187903659,0.23134571654976144,0.34456732671137447,0.4636775731468288,0.5836535572809001,0.6893819215420494,0.7694314668026614,0.8189930431454098,0.8323438631388989,0.8471850084628252,0.835035669627735,0.8151748230581846,0.7500730330167458,0.6851585541286864,0.6157135751935727,0.5505262804681714,0.4978220511054179,0.5274455016536135,0.5946099640235518,0.6804263594840756,0.7481476887491127,0.801103449684669,0.8299032456947573,0.8307400912937233,0.8307807100686939,0.8365265394741939,0.8375028438804715,0.8468619802741446,0.8542171499789992,0.8705608062325942,0.8735714584423304,0.8802668310921478,0.8942973407460646,0.8932358939738876,0.8794480184778153,0.8941026953610063,0.9018168133894915,0.9148156237113629,0.9216100750276608,0.9108680455232991,0.904863280533077,0.8598765896677856,0.7594825404920642,0.636690333329641,0.5099724019807619,0.397387621143344,0.2720002550831673,0.14426554804019354,0.03607592227402012,0.0,0.09467579866468867,0.21199050274502795,0.32556096806453994,0.43815859962039916,0.5518911659683008,0.6654967465329902,0.7665030508400648,0.8419923254164332,0.8874711110024927,0.9094627928836099,0.9162111856734896,0.907930393852781,0.8589460188693279,0.7938414275218553,0.7405446398386188,0.668585761023123,0.599415224931549,0.5813091131358434,0.6310692288133604,0.7057103000600584,0.7716004170786319,0.8303537856553818,0.848598534083338,0.8332941803578691,0.8365666267033842,0.8465617853077836,0.8409113962116175,0.8491767925656499,0.8422112018761747,0.8518172209552151,0.8521348382168914,0.8529319391476831,0.860155304051538,0.8623212822973283,0.8492191823048509,0.8429404943608167,0.8594700144180454,0.870556411294626,0.9017350841422265,0.897833131875343,0.9078299715119056,0.8835426697434117,0.8138258826098292,0.7067092910025972,0.5944656018907675,0.46949857233533887,0.34109974618702976,0.22419917530627975,0.1094358882902271,0.06269118682221198,0.15345650183487836,0.2661126719414151,0.38551312762441503,0.49410103961827856,0.6013099889485964,0.7051357008091967,0.7863032043287355,0.8161216087499632,0.8301944155655887,0.8305946496876122,0.8170906184297828,0.7685906567610363,0.7133322889290934,0.6509247234336852,0.5730115215294513,0.5175072514732566,0.5259990420014371,0.5992519139378811,0.6775070213342755,0.7577747874106038,0.8281902541698751,0.8516150009389372,PM
0.9999999999999998,0.9540085870264388,0.9260224870031821,0.9290025298928521,0.9402146096904767,0.9431809411795535,0.9384458224680425,0.9169367759434983,0.9111747155368091,0.9169347699538035,0.9400675829638432,0.9740103706489702,0.9773767786945828,0.9664852794891352,0.9549165275086071,0.938623411450423,0.9308236364212894,0.9167272247844427,0.9095721894022646,0.9102300202516382,0.8755039514922982,0.8134490945691526,0.7349987905374109,0.6458661268330201,0.5527088743410375,0.46083054636879406,0.3616903118084447,0.2904175347876594,0.3436532332481983,0.4336779730788072,0.5281575709077246,0.6188057468536761,0.7129393748846453,0.8023107334253818,0.8885229830703041,0.9154689771163171,0.8802388697022756,0.8761404923014411,0.8833054365393644,0.9151183532928637,0.9329928165243986,0.9065053842565025,0.8688087377550284,0.8579431883514819,0.8706278429338739,0.8722324100359435,0.8652580230327305,0.8448539571202198,0.8319187031088748,0.8373611682920374,0.874823593883143,0.9132133434701426,0.9184681064371725,0.9136082994601582,0.9066392304232525,0.8767792967730872,0.8644488193844688,0.8437675465896752,0.8447239207309114,0.8442471835824639,0.8221550018219508,0.7586900018490732,0.6775075191365094,0.5860437935429068,0.4946827750723277,0.400776203670143,0.307705713164393,0.21728607070867567,0.188904402051713,0.2754832306172834,0.3648821339866297,0.4611637596758442,0.5515078780080545,0.6450554126342751,0.7338490128303066,0.8225333804162236,0.8839349150858189,0.867111622308897,0.8542251689655,0.866649971365977,0.90094996878331,0.9203579676124443,0.9024386181588506,0.8536571798962906,0.8272564545343657,0.8496744088815136,0.8673012773374278,0.8699127697447733,0.893307327986433,0.8958712579534958,0.8844814985934855,0.8745046510443333,0.8604188526888497,0.8749534471022147,0.8832243596895555,0.8885349044674549,0.8958117252588769,0.9004258286634574,0.8973606724151997,0.8873283800748342,0.8908125443572181,0.8965362764885458,0.8751285875241017,0.8284551838402556,0.7563954727474791,0.6669346222457986,0.5774336154802724,0.4812881066382859,0.3816173268488383,0.29164883944233533,0.3110240861327327,0.39833910701467135,0.4919900329313249,0.5809682211920835,0.6724471494513045,0.7648945943726175,0.8567945925656548,0.9292620041245738,0.9405761223012374,0.9106739771123651,0.9098755903099269,0.8884231864120962,0.8569493857612278,0.8087317755305625,0.7775187001375234,0.7878710534406237,0.8202372562236147,0.856705531237498,0.8531593732683016,0.8312751626944539,0.753666885927138,0.6610123631111235,0.5697003472152915,0.4794847204786221,0.38441747866850684,0.29449460818163975,0.22521122378547775,0.14608790841794272,0.07788860327377534,0.11125982682450863,0.1967902917606723,0.294114128844408,0.3865986418093472,0.47958410044151445,0.5735407983910961,0.6624157187480233,0.7492857986443184,0.8173194138643944,0.847919017553256,0.8428493401904669,0.8472975191558214,0.8442763854585504,0.8478488677720153,0.8446237793908822,0.847486565145118,0.8324971482111467,0.8312855439576967,0.8146292169729816,0.807598480942348,0.8269005413874482,0.8371897848197574,0.8450429763559233,0.8324727789418256,0.8168731967094482,0.8135573694366494,0.7799805604845031,0.7858054920061435,0.814617340420227,0.8576836385930016,0.8523505910305891,0.8192464594502191,0.809541175521767,0.8004839602743565,0.7785770168236843,0.6924758681708891,0.5928842729359995,0.4965668304528754,0.40683066041808935,0.3101269503602242,0.22102442316305937,0.1285971231280838,0.04928387823400149,0.0,0.054328004059333246,0.1436385823956856,0.23193094717167417,0.3038561551743453,0.3988090117525389,0.4881348688355913,0.5850856783579641,0.682736974010085,0.7612419172645362,0.7927583794805801,0.7825993916806124,0.7782541124158036,0.8074402724343559,0.826226423772592,0.8551412920799748,0.8638774233481794,0.866289255463397,0.8584609066505264,0.8184289956843658,0.7899172014678058,0.7775198220022006,0.7907779272791504,0.8072647591667301,0.8087230783729187,0.8213194722246435,0.8172899877199817,0.8110554219654655,0.828129366494508,0.8627050848307907,0.8589607982277123,0.8349007568119717,0.8244928360230566,0.8298466405743581,0.8242737366947235,0.7617129200617547,0.6723797832296123,0.5772026046818397,0.4871468945073114,0.3880495852136516,0.2891863980526661,0.20123456167746046,0.11591271580539808,0.04558490170511442,0.0750415748204476,0.16246379713266723,0.25341592170707083,0.34766635748522057,0.4437977564029427,0.5335940643076504,0.6302584781548821,0.719251421616508,0.805550913903786,0.8519870991992409,0.8576238378977068,0.8709831884094614,0.8763193629913884,0.8900098844551516,0.9037422255907941,0.9131475742133393,0.9224824761116024,0.9125446709038922,0.8839315534198311,0.8623720710791771,0.8607084572581984,0.8704972859392661,0.896461790774816,0.8981742505957475,0.8912252994776091,0.8834776595897156,0.875104956668223,0.888461364314421,0.9150640425300709,PM
0.7937087122596886,0.7588022549221933,0.7485236125667711,0.728044802886568,0.6935900782432469,0.688833776878627,0.6668342955545037,0.6134385486140528,0.5461114211033493,0.4566316542711837,0.3540610422364381,0.2609216902786393,0.16292676688761443,0.08700058149326484,0.1301095747687655,0.23122470813079588,0.33035385177534726,0.41432715646511653,0.4952789351310467,0.561600679574974,0.5974214235236226,0.6304944676124502,0.7045306593045049,0.800670103574149,0.899595645102067,0.9412947609681361,0.8804300858883929,0.8045683285708192,0.6835970674440497,0.5753065361712069,0.6132448084224071,0.7232837415051692,0.8232421041767184,0.8763080873190527,0.8529058736149957,0.8260855391205117,0.7849080626025229,0.7306194870832114,0.6757823200693296,0.7042796018840369,0.7983620712536204,0.889386850221944,0.9213537020713805,0.9217598301114363,0.965325334709104,0.9999999999999996,0.9771808614879713,0.9346975255963663,0.9005604721049778,0.8611678408913073,0.8328646175997316,0.8189958263222401,0.8437216109552512,0.8463196922052263,0.7922770020449139,0.7432124662416935,0.6568545421170486,0.5578056241626279,0.4682999962978629,0.43125001432636845,0.5095406015196806,0.6135016033588037,0.6992176305990072,0.7794670137555677,0.8562347666780532,0.8914361295891382,0.9183387346265692,0.9202834564520956,0.9050680600571628,0.8497254682555551,0.7779754399423751,0.6663191120281726,0.5891287594735388,0.6710647467500421,0.778110593904672,0.8668411171294395,0.888585253122721,0.9095600043363121,0.9305892676512153,0.8995146834079168,0.9113880988836369,0.9307653974351604,0.9325365068011031,0.9508200679074603,0.9467347019628383,0.9171918375931458,0.8941518496427641,0.8924060982742703,0.8738353057673951,0.8533445941512707,0.8240719287742153,0.8088465756499144,0.8050262332791935,0.7998232950117616,0.7787829727512663,0.7177431656892708,0.6372242580364706,0.552508591483706,0.4474333993270809,0.3606722248526202,0.3441557048315951,0.434449901794677,0.5289458423546813,0.6224178093156043,0.7129036616633257,0.7887838874457649,0.8414571066965824,0.8779416450958815,0.8865257846758499,0.8678956181585034,0.834009669186822,0.771025378068344,0.6752115199553277,0.6841676449453686,0.7836855951873067,0.8729715004919534,0.898913944926929,0.8759737785789361,0.8318950139321046,0.7658377696347656,0.6613190906515385,0.5458894960222258,0.4236588069865399,0.31229592115212457,0.26608509242575984,0.3028918095766584,0.40842826685647937,0.5224172942839624,0.5411468878524954,0.42075817939339055,0.3042358081905632,0.2722498286764723,0.3178943819692517,0.44109001925442515,0.5603938957419721,0.6080257592203693,0.6882582125518542,0.7703357649718834,0.8070570631733669,0.818436312132147,0.8050548094619625,0.7665704665242457,0.690645904635252,0.6036631955298519,0.5105665360657046,0.4206704555552654,0.3264216502818411,0.2608056317376235,0.2909456029276982,0.37510094009562245,0.47288281255725506,0.564034194589861,0.6416795134278894,0.7168702252174617,0.7393540529195746,0.7156023953465276,0.7367908949233581,0.7343373439984799,0.7685484613607017,0.8051699799089822,0.8138248692158192,0.8219183542622348,0.835505529228536,0.8631239442968139,0.8692013374936232,0.865001608095187,0.8547684507922964,0.8300590988838974,0.8205379155772099,0.8536629381672487,0.8393830034021885,0.8154366877918435,0.8116816172194055,0.740458433056264,0.6325794223910104,0.5102783837879259,0.3892672343104828,0.2767395944195794,0.2758709225384357,0.37645520778327946,0.49074887612192386,0.6147389056720374,0.7191317537036892,0.7941475096522597,0.8308799631924324,0.8481862002301681,0.8331871822839592,0.8006516860076753,0.725719893369563,0.6420272492931454,0.556603100304085,0.4619145949130776,0.36390935294481963,0.3223919347109958,0.3820633047543054,0.47014840671732827,0.5663809777353332,0.654922389694713,0.7145206059006664,0.7666523087596739,0.7691076132051844,0.7572034582982767,0.7657492926529406,0.7968150330378805,0.8334355259907484,0.8543083614660909,0.8918843493376247,0.9218588733487163,0.8893849685258264,0.8541878261397784,0.8552041511415691,0.7948546263629179,0.693508498541012,0.6162971929149146,0.5885348478664705,0.6295330264548507,0.7005980017903757,0.7510239408495347,0.7855373785060369,0.8009062945945811,0.7203594434330389,0.6082740736940027,0.4865735530469313,0.37010749028757006,0.304769107009605,0.3780564764869725,0.4978087154753248,0.617283946631416,0.7317887502081857,0.8071996462366582,0.7918584894111431,0.6900460626611014,0.6049635668762288,0.5583744196385694,0.5318278872109645,0.4802973925325551,0.3968578035954158,0.31209018939798616,0.21531006026457522,0.12030947697920125,0.03275097809685912,0.0,0.05666084103059266,0.14831594661739222,0.2522331929875614,0.3517946515100392,0.4425068464380235,0.5265669265200201,0.5869229609162891,0.6236782193020702,0.6313315192615554,0.6388177856959811,0.6780356400764078,0.6920369715437746,0.707797759791978,PM
0.5514164510044872,0.5945512046700521,0.5757001993031818,0.5578125966922012,0.5862149651974433,0.5782664995690001,0.5551247528761949,0.5537331202389644,0.5511143940085605,0.530709884704279,0.5271844531773069,0.5384525954416506,0.5554719727963469,0.5761999335118282,0.5910704257701132,0.6012802490085982,0.5782552995006784,0.5359247456835976,0.5034790453294238,0.5282947965158109,0.5904105688829371,0.6471415635139874,0.6544116783921523,0.6079476653079374,0.5592507573236021,0.5270400341245955,0.49128210294517816,0.4837522408110222,0.515830349901695,0.6007291955589538,0.6864129704355251,0.7298794626099716,0.753745172214582,0.8126864412699315,0.8953243269978057,0.9070158205490748,0.8240316126359697,0.7595244740423595,0.7988571240762794,0.8406469029986856,0.8023717810660105,0.7327016656968115,0.67414909929991,0.6977230558007048,0.7378168316555942,0.7432817760024597,0.7638940848744222,0.7670527928671365,0.765485723880643,0.7456873670890487,0.7488230278178798,0.7843658330807028,0.7966047509513294,0.8243164775287437,0.8445890896981925,0.8151028444499233,0.7792471569959161,0.7332384908546472,0.7107953475572235,0.76526045808883,0.8266417060720657,0.8852605728346528,0.8839471526998666,0.8590255186720612,0.8250323488624223,0.816600122102145,0.785529775699779,0.7943991649181519,0.8395656952240356,0.9301437522182572,0.9939861593898587,0.9942904954924345,0.9999999999999996,0.9896284532537156,0.916334339675521,0.8237988464967958,0.8092325480173357,0.8440888853950965,0.812177589576978,0.7321531465417217,0.6958717527336229,0.7445320182585866,0.775878968251519,0.808131575362927,0.7867870800982533,0.7911687534934777,0.7935616424575094,0.781587129326645,0.760245881037259,0.7625974025891735,0.7681252874519573,0.7871065356504139,0.7935755720971263,0.7824083790737082,0.7469098529303051,0.7270918962647959,0.7054727410092734,0.7330551068385547,0.7998306481172768,0.8514824805358372,0.8605515042190004,0.8169731682012285,0.766677457017741,0.7168918433263465,0.6979918092327329,0.7133616837868098,0.7311421057236012,0.7954588166857133,0.8718891311422285,0.8936124717434724,0.9542127231220126,0.9683747112181504,0.9259153966472318,0.8219353262221856,0.7329398739065103,0.7402526530291911,0.7792830217594164,0.7604801149213816,0.6920908689378149,0.6269925956370632,0.5905140669754387,0.5195711590569005,0.41156581759469324,0.2722835102146526,0.1318920163388353,0.023690828429419053,0.0,0.03272971235449651,0.1430984380201039,0.2836802032329584,0.42116883411466555,0.5219140558998165,0.6167746299274035,0.6781351884899407,0.6569304298885625,0.6223046390270306,0.6114191461601961,0.7030834017430805,0.7548406053422876,0.707868547009515,0.6605331050349288,0.7126111445231351,0.709332753091513,0.6399956442840709,0.6232142196062749,0.6230728923655557,0.6269503499810933,0.6605452531816529,0.6989917361024802,0.7619028060017876,0.759942364975736,0.6941594894522418,0.6290842144422091,0.5831012131237183,0.6153208464610826,0.6544639161468395,0.6858581822536167,0.7025640238343862,0.6913053675091727,0.681958026315423,0.6799716625210741,0.6577435509824565,0.6772575408946531,0.6996746260522673,0.7030578099018459,0.703005700622819,0.6944927202248272,0.6699528688294074,0.6084082341947137,0.5835374485944445,0.6263851807954954,0.6783463210386889,0.7368812216459228,0.7127960028110167,0.7076568560442893,0.7634119955635303,0.8349653006690958,0.8359147637618167,0.7308024157923101,0.6993730767169182,0.7213109814775973,0.7861975722681742,0.827194588975106,0.7488476374839297,0.7044312332439397,0.6853104510581578,0.70755840911221,0.7322572804649101,0.7608166509743453,0.7951012139508209,0.7991624807582887,0.7421122316307165,0.6819778446962705,0.6305157477883694,0.6367723424681251,0.6853846058290762,0.7255072781225125,0.7642161020043683,0.7433124544553071,0.7101365809032054,0.6990971896389797,0.6739387632590668,0.6521081499952213,0.6675171310523225,0.6767605958104128,0.6897407612749888,0.6785382767068344,0.6555760685215204,0.6378946682253557,0.5817255710281208,0.5770946247532973,0.6389148576899735,0.7165757563053696,0.7286821161277435,0.6856448102727906,0.6451071537470381,0.6751530105880348,0.7235934175542433,0.6377865171751593,0.5231925131576065,0.4910201456446548,0.4868682397605686,0.568127044111788,0.5734133701917092,0.4851782862107856,0.43502621485344717,0.4107604203763011,0.3942130610067607,0.4139814366331014,0.4558187906036175,0.49301306316254623,0.5502720817625009,0.5590190056976634,0.4996362095137967,0.43983929787653286,0.39935561489203897,0.4103392471247074,0.4605866309774531,0.492149516988889,0.5124683077518299,0.4998208175325627,0.4941462488997428,0.4688766377477802,0.4547797987390241,0.44379310772801484,0.441629272807075,0.46120167318588345,0.4636363258595346,0.4803636364206949,0.4905211324096732,0.49601491520442265,0.4899180716821818,0.49435369931919704,0.49704268299175114,0.45177883197756286,PM
0.5797554271404728,0.590109733545674,0.6109950544103482,0.6210936674383314,0.5896003088973165,0.5747193787260647,0.6128141714013622,0.6484906901774141,0.6160012651764366,0.5653172183303083,0.5759564307815337,0.5992971832699214,0.635993390553443,0.6377821662824141,0.617399930510683,0.6207045445747319,0.6469764307658217,0.6529899855003576,0.6661283724425608,0.6838254687883052,0.7240250209049859,0.738215832209856,0.7523523800317595,0.7732778133951621,0.7957646068042812,0.7903571125311886,0.7964267022386404,0.8048109978688447,0.8343032966434993,0.8326154144422375,0.7979373159936478,0.755971071203621,0.7092519687380969,0.6332002831390215,0.5842037588104367,0.5303483210834194,0.45475490251819295,0.35577600701753154,0.31366246965367583,0.35923884619365287,0.4065619218450709,0.4340601601597429,0.4168124028778579,0.40060237628688755,0.4248512116384586,0.4522883933784585,0.505634495854713,0.5610612715698968,0.6233666439934815,0.6620960160405671,0.613909516428151,0.534426511958503,0.46849826974280084,0.4192924557512683,0.37382409106105907,0.3359071149226178,0.4131750755424961,0.5219280018442394,0.6331674255580433,0.6556111227036556,0.5707868859841332,0.4577750590976497,0.345683136987204,0.28026459168853224,0.3329358128088651,0.3303575936756231,0.28070011215044977,0.30263393537527916,0.4143491023812649,0.5146201104739387,0.6058695344863221,0.7051302232670849,0.7687271634521324,0.7400942998034727,0.7294494717518778,0.7196723066146977,0.7167810976250961,0.7279423231233819,0.7278441647056741,0.7449757941839952,0.7597126815597126,0.7747605935760622,0.7808483345036596,0.788497492276174,0.7826330515530713,0.7960523256396037,0.7942023377915493,0.7995424189109186,0.7798119886658013,0.7769064537170971,0.788948604994987,0.8453501272448718,0.8917510738188148,0.8755205952135223,0.8603622862420957,0.8888185689433179,0.9605212191219201,1.0,0.9887700558115831,0.9652821243018681,0.9400787822869869,0.87727507251609,0.7992442851412611,0.707664928897437,0.7123758520297705,0.8166381046618691,0.831987507099714,0.8232239508099997,0.8145961710441214,0.7630445278897748,0.7252619182716882,0.797233127402833,0.8967759571113927,0.9709669477247229,0.9501366938962366,0.8339326827963243,0.7128720186997084,0.645073821771132,0.6969675991406348,0.7292693786790014,0.7061999746279453,0.649936338072501,0.6468382627484912,0.6414142705958352,0.5491174026659587,0.44074641447853535,0.34470049172002915,0.2217099384737673,0.09411028284051515,0.010763536873373614,0.0,0.04634276830226991,0.1640605492827083,0.29233469171423154,0.3865192969571165,0.460873015994252,0.5716676413225308,0.6837942092688247,0.7640227507549429,0.6953588205269012,0.6081276374660036,0.5818674798015109,0.6596526707034549,0.7207749253827602,0.7356121621093723,0.7426448635777003,0.7354778466963023,0.6469698320803325,0.5423829819059653,0.49113685607854896,0.5638199449880896,0.6630066252006559,0.7548669876950003,0.8375289203308971,0.892507576995277,0.9142328143530509,0.9051541126900351,0.8475875009795777,0.7827264628669552,0.7685847469880294,0.7959487872202335,0.7975064113335719,0.7422554803980725,0.7137883204185043,0.7143402789973217,0.7144610388071224,0.7176772948682939,0.7211353854676665,0.7174276554962731,0.7085042851919447,0.7150926693214461,0.7091849748802286,0.7007819370104533,0.6953641869107892,0.688688716706495,0.6664816057912346,0.6586289406593244,0.6482784442443021,0.6532440257120617,0.6331257080963697,0.6413721757564241,0.6582355692478443,0.6279824373131637,0.5339939886380138,0.44248630563294533,0.3365430955977029,0.23756281538612134,0.19026608163075265,0.21617264360673394,0.2595008712998834,0.18717654015398644,0.09604163881147176,0.09316591299635091,0.18264520868409573,0.30379338473515816,0.41412016265599716,0.44788017692543036,0.3580821908889025,0.275575472066357,0.2114334038525829,0.24562322396859404,0.31255627998233404,0.35719050714750855,0.4091843737035994,0.4713341973233307,0.550362793658457,0.5427887347124307,0.4828506262570773,0.4262333550676516,0.3746240760201789,0.35209841510579354,0.3333434239839179,0.3146795387967152,0.35156510695266885,0.350427500598014,0.3029563457206135,0.25082099879007735,0.20738029891717114,0.24964115076473137,0.35588847463397766,0.4486498066111051,0.5031166147381434,0.5511341653185453,0.6285690825553503,0.6819089383373598,0.7218070192555737,0.7575316819475133,0.7552542385574221,0.730419683809373,0.7213477406830475,0.7212110942441003,0.7138316549368766,0.6868404523539544,0.6687599635801695,0.6581381959079988,0.6280168452364818,0.6023455395935571,0.5713814179535563,0.5773487172587282,0.5640329653244365,0.5404744956947569,0.5494717575003087,0.5645250179963002,0.5468548743581456,0.5170328778086852,0.4936643716140816,0.4872308727295587,0.5426770205254168,0.565883632554355,0.5273703533025285,0.5163674393761841,0.5288913947826073,0.5427475927133103,0.5244878662456238,0.5161335709874924,PM
0.358625205547523,0.3527762905831211,0.36130359682584334,0.35698418924987596,0.34838485053024826,0.32712207287663597,0.2947477589107472,0.24199559182242414,0.16995850983481686,0.10744440534602484,0.12388141221477023,0.1857784351858065,0.24878152114045093,0.3058484339922054,0.3466596316886412,0.3678758525909891,0.37786371397351326,0.37838875408145745,0.3796196718396625,0.3640414986750913,0.38266922436539597,0.4676807005503205,0.5674337202404711,0.6676668078912651,0.7608877462859462,0.8530522656966508,0.8530112353669108,0.7615759080912761,0.6693303231481638,0.5673528708007827,0.4628214007673961,0.3703177187790021,0.3750532676563427,0.3829389372808296,0.3875798124418095,0.38973855680975733,0.39007963346935703,0.38076405766933963,0.3351912106297519,0.3334542653946082,0.35776885261228486,0.3785784990270291,0.3720886478167271,0.38041042291580984,0.3763166256943795,0.3781241177384853,0.3797734209867576,0.3909326855694677,0.38163906212474563,0.36918644063364026,0.34711339190677304,0.299576699827671,0.24438662301472247,0.18078134873108898,0.11457087618679118,0.12388689306411571,0.18369106057622098,0.24726275175007784,0.3036516930216062,0.3492541918957528,0.37104710797788076,0.38408733934602246,0.3897291796695348,0.3961114922459301,0.38908049697933933,0.39131040193191646,0.47476262275665393,0.5705238139333417,0.6719705974782046,0.7644314958192688,0.8675770696614817,0.9621504234083775,1.0,0.9351378463790341,0.8416229713194201,0.7376698148298932,0.641325417935505,0.5445463817130247,0.4413544741563804,0.3801603910911848,0.3680598688635608,0.398767812683829,0.4019852894171807,0.39388709082874174,0.36651843386627236,0.3412987450142664,0.32806883241400797,0.34797093562181614,0.358838570832944,0.3646093934850487,0.36777940294720546,0.3738306821312847,0.36246385139490256,0.3551005487200807,0.37265507301366796,0.38130540146250747,0.3811658413331438,0.3684556237265735,0.3365774677536355,0.28930230149783354,0.22706731813153347,0.16125157029338455,0.11955296034194518,0.16561895739641797,0.22536773427168066,0.28490964801051843,0.33645912711463044,0.37067486587506915,0.3946441837198633,0.3954349051558266,0.3967028918135411,0.39509332192245505,0.3806077778600465,0.4292411570280672,0.5215792713004701,0.6209600515044693,0.713894708866043,0.7882515970441446,0.7458977083277794,0.652511032951073,0.554904075306474,0.450725998563267,0.3800711607309424,0.4232273269328486,0.42894094319050424,0.4303415109734452,0.440687529683089,0.4229304966764218,0.40940167174065945,0.3799744005627175,0.3448667537468051,0.3484426944548793,0.3769302577915137,0.36308844248055117,0.32566736343417,0.29277586328861416,0.28036956867581386,0.27157445665120195,0.32059049752801716,0.3598760417250051,0.3791611553002623,0.3695106466993172,0.33966229907002843,0.2791837600950413,0.19048218613270063,0.10437870202620525,0.09217378603561777,0.18004555933935817,0.24956691525845587,0.23984932600211906,0.27572518566755866,0.3300963616814152,0.3474151015067948,0.34234451461413373,0.3342154540241,0.327038692015138,0.29839398419686614,0.2476469840366522,0.18785677681846202,0.12574755712366237,0.07034388362333521,0.059899487657057104,0.11056006665090257,0.17318181564551516,0.2362887988894582,0.2931057344784409,0.3206612894913228,0.32591376352820145,0.3253598550627106,0.30842851200266175,0.29601342771413064,0.30930783940360174,0.31283903855747575,0.3035415067817211,0.2996702741196495,0.30733868105359896,0.2846023917662004,0.2672531916391896,0.281796386588689,0.31722240622304243,0.3416074969306573,0.3452631066037686,0.3099025868106393,0.26009986468724033,0.22374459381953926,0.13844448918532404,0.04924251359419207,0.022443125991644663,0.09586317961224378,0.19928467126746252,0.30385332659742836,0.4059671437868304,0.43391518044916344,0.35305995448311434,0.28912931438706035,0.30967179680432766,0.3353158707141577,0.3367439965625296,0.33175047833949733,0.3214370607648269,0.30262811772353126,0.26039644566587716,0.1977401915163055,0.13507063399493058,0.07696879751014896,0.05045719319729969,0.08291378847640951,0.15390088947134606,0.2179222011176134,0.2749989957936263,0.30537628068363354,0.3235347956181971,0.3316080584333867,0.3296990060435343,0.32623012651128835,0.3260579198670408,0.33071853275689955,0.32681372381201834,0.3168751407813568,0.2998094811063896,0.27680584308092504,0.2677215407086604,0.2987781910217513,0.32908583589237095,0.3355563731834028,0.32818718228254573,0.2870895266808544,0.21780714158880965,0.12418286963102343,0.03648691007840332,0.0,0.06893025574076095,0.1723697977099432,0.2625979503010023,0.2733587135416111,0.27697184952326426,0.3149555767184613,0.3257317317015418,0.3258481396958133,0.31799223430069823,0.290928344719696,0.24191762562530839,0.18772070413415154,0.12091498386969324,0.06437581440921214,0.05387117922310036,0.10525430733512042,0.17252576652154872,0.23574586723301216,0.273298178271848,0.28753110015825767,0.3051975061694763,0.3025634070829586,0.30147513686667127,0.304340421531756,PM
0.5514164510044872,0.5945512046700521,0.5757001993031818,0.5578125966922012,0.5862149651974433,0.5782664995690001,0.5551247528761949,0.5537331202389644,0.5511143940085605,0.530709884704279,0.5271844531773069,0.5384525954416506,0.5554719727963469,0.5761999335118282,0.5910704257701132,0.6012802490085982,0.5782552995006784,0.5359247456835976,0.5034790453294238,0.5282947965158109,0.5904105688829371,0.6471415635139874,0.6544116783921523,0.6079476653079374,0.5592507573236021,0.5270400341245955,0.49128210294517816,0.4837522408110222,0.515830349901695,0.6007291955589538,0.6864129704355251,0.7298794626099716,0.753745172214582,0.8126864412699315,0.8953243269978057,0.9070158205490748,0.8240316126359697,0.7595244740423595,0.7988571240762794,0.8406469029986856,0.8023717810660105,0.7327016656968115,0.67414909929991,0.6977230558007048,0.7378168316555942,0.7432817760024597,0.7638940848744222,0.7670527928671365,0.765485723880643,0.7456873670890487,0.7488230278178798,0.7843658330807028,0.7966047509513294,0.8243164775287437,0.8445890896981925,0.8151028444499233,0.7792471569959161,0.7332384908546472,0.7107953475572235,0.76526045808883,0.8266417060720657,0.8852605728346528,0.8839471526998666,0.8590255186720612,0.8250323488624223,0.816600122102145,0.785529775699779,0.7943991649181519,0.8395656952240356,0.9301437522182572,0.9939861593898587,0.9942904954924345,0.9999999999999996,0.9896284532537156,0.916334339675521,0.8237988464967958,0.8092325480173357,0.8440888853950965,0.812177589576978,0.7321531465417217,0.6958717527336229,0.7445320182585866,0.775878968251519,0.808131575362927,0.7867870800982533,0.7911687534934777,0.7935616424575094,0.781587129326645,0.760245881037259,0.7625974025891735,0.7681252874519573,0.7871065356504139,0.7935755720971263,0.7824083790737082,0.7469098529303051,0.7270918962647959,0.7054727410092734,0.7330551068385547,0.7998306481172768,0.8514824805358372,0.8605515042190004,0.8169731682012285,0.766677457017741,0.7168918433263465,0.6979918092327329,0.7133616837868098,0.7311421057236012,0.7954588166857133,0.8718891311422285,0.8936124717434724,0.9542127231220126,0.9683747112181504,0.9259153966472318,0.8219353262221856,0.7329398739065103,0.7402526530291911,0.7792830217594164,0.7604801149213816,0.6920908689378149,0.6269925956370632,0.5905140669754387,0.5195711590569005,0.41156581759469324,0.2722835102146526,0.1318920163388353,0.023690828429419053,0.0,0.03272971235449651,0.1430984380201039,0.2836802032329584,0.42116883411466555,0.5219140558998165,0.6167746299274035,0.6781351884899407,0.6569304298885625,0.6223046390270306,0.6114191461601961,0.7030834017430805,0.7548406053422876,0.707868547009515,0.6605331050349288,0.7126111445231351,0.709332753091513,0.6399956442840709,0.6232142196062749,0.6230728923655557,0.6269503499810933,0.6605452531816529,0.6989917361024802,0.7619028060017876,0.759942364975736,0.6941594894522418,0.6290842144422091,0.5831012131237183,0.6153208464610826,0.6544639161468395,0.6858581822536167,0.7025640238343862,0.6913053675091727,0.681958026315423,0.6799716625210741,0.6577435509824565,0.6772575408946531,0.6996746260522673,0.7030578099018459,0.703005700622819,0.6944927202248272,0.6699528688294074,0.6084082341947137,0.5835374485944445,0.6263851807954954,0.6783463210386889,0.7368812216459228,0.7127960028110167,0.7076568560442893,0.7634119955635303,0.8349653006690958,0.8359147637618167,0.7308024157923101,0.6993730767169182,0.7213109814775973,0.7861975722681742,0.827194588975106,0.7488476374839297,0.7044312332439397,0.6853104510581578,0.70755840911221,0.7322572804649101,0.7608166509743453,0.7951012139508209,0.7991624807582887,0.7421122316307165,0.6819778446962705,0.6305157477883694,0.6367723424681251,0.6853846058290762,0.7255072781225125,0.7642161020043683,0.7433124544553071,0.7101365809032054,0.6990971896389797,0.6739387632590668,0.6521081499952213,0.6675171310523225,0.6767605958104128,0.6897407612749888,0.6785382767068344,0.6555760685215204,0.6378946682253557,0.5817255710281208,0.5770946247532973,0.6389148576899735,0.7165757563053696,0.7286821161277435,0.6856448102727906,0.6451071537470381,0.6751530105880348,0.7235934175542433,0.6377865171751593,0.5231925131576065,0.4910201456446548,0.4868682397605686,0.568127044111788,0.5734133701917092,0.4851782862107856,0.43502621485344717,0.4107604203763011,0.3942130610067607,0.4139814366331014,0.4558187906036175,0.49301306316254623,0.5502720817625009,0.5590190056976634,0.4996362095137967,0.43983929787653286,0.39935561489203897,0.4103392471247074,0.4605866309774531,0.492149516988889,0.5124683077518299,0.4998208175325627,0.4941462488997428,0.4688766377477802,0.4547797987390241,0.44379310772801484,0.441629272807075,0.46120167318588345,0.4636363258595346,0.4803636364206949,0.4905211324096732,0.49601491520442265,0.4899180716821818,0.49435369931919704,0.49704268299175114,0.45177883197756286,PM
0.8995654658629,0.8626248286820297,0.8031239174133102,0.7551845990881505,0.7871540626980933,0.8534016355849989,0.9031192571409921,0.9114022662425865,0.9037757619443616,0.8935834071611817,0.8444525313662079,0.770343297119007,0.6750947916651269,0.5726871369352575,0.4763958668975461,0.41026812057510864,0.47349940594773177,0.5690156678178384,0.6613733543150986,0.7465523753910275,0.8408010548281379,0.9379787655925989,0.9999999999999998,0.961272785080882,0.909601238541512,0.8951898771366096,0.9116103692370363,0.8880692080971229,0.8888610324894484,0.8910798118499828,0.8885429554299282,0.8406459921262126,0.7768104584566489,0.7610458152796535,0.8180426567819084,0.8812361901555665,0.9071849835733803,0.922314135735324,0.9386703496287836,0.9080289571809113,0.8542058554789469,0.7757392241141785,0.6844498146329285,0.5884180214506425,0.49180889939076855,0.4459738022900932,0.5227969694493078,0.619561209887306,0.7195009743055554,0.8158781926517502,0.9112092096554045,0.9846965207011404,0.955124629562069,0.9015706861240746,0.9046715275842074,0.8950814001656147,0.8998541470103207,0.9200019997556972,0.9137015350240938,0.8718865674065215,0.8185138176650109,0.759235733875276,0.7709599169727124,0.8380704842151543,0.8996517015878973,0.9230993135255199,0.9137409098290632,0.9018845592239775,0.8631547542151312,0.78874162505267,0.7019138709110497,0.6081049091493049,0.5117159034332601,0.4135595521050992,0.3875977849085954,0.47364492425542726,0.5713334743743399,0.6690677972237278,0.7645774416228424,0.8616776119154053,0.9544110399824557,0.997272561233925,0.9441867542277929,0.9007805666337569,0.9025812997124745,0.9133666739302726,0.8923348149997601,0.8673053448604449,0.8529300576844072,0.8389535742261109,0.8418132158829146,0.829808336633018,0.7916942702050367,0.7633484180753753,0.8026249053955463,0.8549346846418562,0.8714000388869683,0.88212685830052,0.9188838546190432,0.9170262120330301,0.8654384052459505,0.7918325130166173,0.7114054263356457,0.616143777618168,0.5199391971765122,0.4233946697436748,0.3394639776903947,0.37322131916642776,0.4694316457306844,0.5683103306945483,0.6651999529968051,0.7634291627506644,0.8607246685836429,0.9543106509897443,0.9960021793486462,0.9418863086498552,0.9156584106508419,0.9007488810744084,0.8878537403876829,0.9010826938950212,0.8808363811279929,0.8527124043822343,0.8416328829701822,0.8664104870730751,0.8713347979464456,0.87532516406237,0.8129523733202311,0.717097945817361,0.6164461233978098,0.5198182432876257,0.42133448144969443,0.3249477208292457,0.2280153095488595,0.12938049323500045,0.033610442769403504,0.0,0.07716875551583113,0.17541020838879762,0.27996235231342914,0.38178687691461377,0.4778891950224986,0.5736254353050196,0.6668823198799156,0.7487744481702014,0.8249027929785668,0.8837303882336716,0.8747297067273523,0.8360444383443704,0.8298219991404587,0.8053372952598694,0.7535321783608488,0.7086491901246392,0.7319233685069599,0.779391629281007,0.7991416166770227,0.8000875883556713,0.8011219540679588,0.8203813468391397,0.8346097028120085,0.8652090032604272,0.8679058496165952,0.8567200986783619,0.8816942510594157,0.8616896808218546,0.7669343637218595,0.6632926319994208,0.5664863184940687,0.46581821715630833,0.3697528888673671,0.2736911577055505,0.17256414289463562,0.09139855429017207,0.11286464368744586,0.20663340025948962,0.30427478687412157,0.4012959500182893,0.5032156637249003,0.6063105731786649,0.6978622593430097,0.778156397318484,0.8460869628437053,0.8602107299478017,0.8801378521436436,0.8751137668606119,0.825103485299781,0.7533511424598718,0.7100465021619218,0.7304968353666148,0.7909326993106187,0.8455830674948555,0.8753537571141607,0.861183740324255,0.8472854482796313,0.8677079206743288,0.8581191236791985,0.8294502239239372,0.7428296522749691,0.6467777174480664,0.5506665518184195,0.4508454997822884,0.3541795617883501,0.2547046581704573,0.15690134633564923,0.07690885186432994,0.10534226790463652,0.20188146080848357,0.29856380214607836,0.4017920691115886,0.5065495639709949,0.6070000519823635,0.7020047628566795,0.7858444793057278,0.8518983344846598,0.8845364442222197,0.8772313790304671,0.8553124705262545,0.7953546786681345,0.7362030965107844,0.7083534835026877,0.7519404163175027,0.8155685943076443,0.8544586918075572,0.8430682088462367,0.8408485729156678,0.865835964555846,0.8563403831774299,0.8649229764275088,0.8632821651402476,0.7844669173290773,0.6882780872603866,0.5917822563626824,0.49348927893844907,0.3961632505903725,0.29885950380238047,0.19977072428369813,0.10566126431522438,0.06415655207463788,0.14070465735527704,0.24456709210243344,0.34212919911457274,0.44269403849647637,0.5295917670236194,0.6142789914298223,0.7098705373989338,0.7935320225175377,0.8506190982097668,0.8685920879742055,0.8731899046035607,0.842287631412298,0.7766365905593704,0.7219453552165924,0.7007006557202891,0.7532875986274488,0.8197939937523151,0.8593336238200926,PM
