0,1,2,3,4,5,6,7,8,9,10,11,12,13,14,15,16,17,18,19,20,21,22,23,24,25,26,27,28,29,30,31,32,33,34,35,36,37,38,39,40,41,42,43,44,45,46,47,48,49,50,51,52,53,54,55,56,57,58,59,60,61,62,63,64,65,66,67,68,69,70,71,72,73,74,75,76,77,78,79,80,81,82,83,84,85,86,87,88,89,90,91,92,93,94,95,96,97,98,99,100,101,102,103,104,105,106,107,108,109,110,111,112,113,114,115,116,117,118,119,120,121,122,123,124,125,126,127,128,129,130,131,132,133,134,135,136,137,138,139,140,141,142,143,144,145,146,147,148,149,150,151,152,153,154,155,156,157,158,159,160,161,162,163,164,165,166,167,168,169,170,171,172,173,174,175,176,177,178,179,180,181,182,183,184,185,186,187,188,189,190,191,192,193,194,195,196,197,198,199,200,201,202,203,204,205,206,207,208,209,210,211,212,213,214,215,216,217,218,219,220,221,222,223,224,225,226,227,228,229,230,231,232,233,234,235,236,237,238,239,240,241,242,243,244,245,246,247,248,249,250,251,252,253,254,Target
0.7415415878135985,0.741541587813602,0.7415415878136069,0.7413247908164537,0.7281310210836325,0.6918542322494008,0.6472829622540948,0.6403485045127453,0.683333440248584,0.7332953834756903,0.7588404819925949,0.7479174867402811,0.6554123059298886,0.5532189197734967,0.4562536033086553,0.3488361626979235,0.24189901673810255,0.14625558467077937,0.04606400912506192,0.0,0.05455019095482072,0.14653028119826583,0.25140939040460575,0.35044390511605616,0.45042767706877074,0.5559626969218754,0.6315863997489224,0.6692113217240223,0.6881210918391938,0.6844277420666205,0.6873230381900735,0.662175275892761,0.6386996835506404,0.6156397451260749,0.6207789893624032,0.6642382600234042,0.7290512347159201,0.7712189942798964,0.7665234414059205,0.7588035543627281,0.7586757003928977,0.7590450045700399,0.7698855631852979,0.7871525040762917,0.7928953939537249,0.7929437663759513,0.7929437663759558,0.7927042421693975,0.7783929574146868,0.7332195380634197,0.6879710660254834,0.6903437843027396,0.7401865950817395,0.7887417958247656,0.812776741897641,0.821737325155651,0.7389531670305507,0.6317670710202639,0.5349561248546415,0.4325127961103359,0.3246521659661177,0.2191855378115788,0.12708891158050228,0.08481238762246424,0.15115883299603583,0.24872046020719285,0.3551490749277004,0.4504966153406782,0.5541851220197462,0.6475264585991938,0.723466133822313,0.7769748678339634,0.8054615189325354,0.804626625531244,0.7909011602444429,0.7599853811240438,0.7168051459841656,0.67911454665798,0.6456995889867012,0.6521656608164634,0.7041811207316497,0.7564257839744823,0.7704216576947962,0.7540134039092239,0.7418854828577248,0.7322980819987812,0.7305728061678893,0.7411409062432939,0.7466935432639508,0.7638609265030705,0.7753307177957076,0.7766062688351068,0.7885726283568544,0.7894067251718537,0.763274736207165,0.7149872410666394,0.6817084217682186,0.6949310299610589,0.7461591896602231,0.7873835190342349,0.8043941701369821,0.7806413237977479,0.6909204880925994,0.5848123231547331,0.4771173735564034,0.3781898244819817,0.2780891126137428,0.17245927512484194,0.08485450120324911,0.03524167641474518,0.10184503425084568,0.19955578146296737,0.3000191581827205,0.39791649093817716,0.4714016277984232,0.5670051990504872,0.6529221044100271,0.7248084516541251,0.7664094770182985,0.7827499031453442,0.7621594191450582,0.7313398123662549,0.6930536343812763,0.6441042284899754,0.6007137508843323,0.5568193405868298,0.5418632415997786,0.5823868003316997,0.6472378273667676,0.7006986336907572,0.7038682538750893,0.6913967232135705,0.6996791282931127,0.7291273667894624,0.7420292200050747,0.7482772264295057,0.7398895276468571,0.6926433700852743,0.6299681477927859,0.6064579785969602,0.6466064020735005,0.6907156055570431,0.7389334561242333,0.7755849333396796,0.8040925419526959,0.8299439985644619,0.8278087738020377,0.8025366572177264,0.7535840719570057,0.6805311498354891,0.5845546617906829,0.4883930074635372,0.48631706131638364,0.5782409500907373,0.6857996711782923,0.7912485434412537,0.8854209196589076,0.9724583867313217,0.9883366453878222,0.9143651352281648,0.8467757924925574,0.8273532912043517,0.7834281030321821,0.7423984073179573,0.7623196677803201,0.8107948710530102,0.8322818855464162,0.834031030180868,0.8292810899793519,0.8175825624012978,0.8146240129061613,0.8035588519090799,0.8030796736086212,0.7840815638159864,0.7747532491263209,0.7824167960256214,0.792376394599775,0.8075019087538999,0.8163188627406868,0.7968438074302444,0.7404979388323434,0.7031856944256347,0.727054627043437,0.7657764166698207,0.8090055498353741,0.8416498651520015,0.8510515325601,0.8509475999809939,0.8397883466282225,0.8038724474503383,0.7462172165988612,0.6689420700560964,0.5760156567579364,0.5280289112113672,0.612486952843367,0.7078337786447517,0.8139034692338609,0.9095685972777172,0.9938864137563916,1.0,0.9218902612408524,0.8625048700263456,0.8402358982744613,0.7926554199885447,0.7484289971724856,0.7699075545799183,0.817064576481922,0.8456043997169038,0.8393509205429264,0.8341018328684888,0.8340655092257401,0.8340550283017394,0.8309899144637947,0.8182370098417273,0.8145123112097576,0.8061240079445748,0.8034774780641336,0.8159065461478066,0.8301166772203716,0.8123242271209135,0.7634405882509281,0.6997147201156264,0.6708298193913316,0.6885766413787522,0.7082752026824997,0.7327258502251897,0.7397733326811138,0.7384947004238755,0.7360978845161084,0.7178430727118927,0.6806603975916534,0.6104041962701792,0.5207583591701885,0.4213309505526026,0.3341650700303864,0.3491847347125101,0.45345564571961994,0.560980117906968,0.6585149771412873,0.760089252709033,0.8627045438943126,0.9408238271255387,0.9404958209624761,0.860560914185621,0.8173092321858881,0.7896602188765236,0.7401134910083615,0.7075844858134488,0.7407887166640017,0.7748720336892458,0.7874636552569991,0.7977774777447357,0.7863390961689269,0.7948391553448544,0.8075260001071585,PM
0.0943146374664332,0.1035739670979261,0.11350954218147757,0.12314635975572719,0.11493363680427038,0.10314142109660152,0.08661072590358998,0.07802612070723125,0.06915361954831223,0.06860536569021924,0.051783548884690944,0.02674177664973687,0.015138008496500266,0.02284667383271044,0.053008435958124434,0.07492324338962586,0.059988103021612726,0.04801009065066886,0.07865591023695195,0.14322473136110503,0.22298223823222685,0.3102956329612181,0.4012438935518383,0.49308470081494704,0.5814277351102861,0.6728806423075206,0.7183391721698249,0.6553612747430106,0.5820587124708196,0.5196261215107594,0.44768466194549017,0.36999774379760986,0.28985012785689834,0.2055456716172479,0.12328396895295235,0.058141447989604966,0.020328114037452938,0.002733414402129597,0.0,0.010617012900096867,0.0076568403838779275,0.04227209899278872,0.07970523624699055,0.1254323481212909,0.15493635945583817,0.13950227968435458,0.12009885525982966,0.11571837126112028,0.11376847049649408,0.11546738630811104,0.12542426008619234,0.12353406914649412,0.11075112484316918,0.09474503892021735,0.0779466871889305,0.06497641755456396,0.05437758760961264,0.03383271796414267,0.015433452090550137,0.005237431985610552,0.02331863467431683,0.05143029949096789,0.07234578477030329,0.08310933310869917,0.10772587450110072,0.14569319618997145,0.2131740750451705,0.29636711018132234,0.3825589218095389,0.472336277961368,0.5616517467247353,0.6573780320579128,0.7476138127886074,0.8254597634640257,0.7914922603751156,0.7029750797032457,0.6265574005072958,0.5589011895992244,0.49778363745458076,0.42126509910103715,0.340561713076625,0.25188345938638834,0.17419168901570092,0.1208099366382589,0.0927368876419492,0.0696693326915887,0.058162956027541846,0.037237087076319675,0.03328386255379412,0.057697190696898826,0.09480696775707464,0.1315845005193781,0.12245445017524093,0.0847261713287284,0.06814412936708703,0.06383098597292314,0.07469595562681874,0.0977398860010732,0.13978070976663926,0.15697154285380632,0.15021104498147375,0.1320279192922187,0.11651073326539052,0.09889882124462757,0.09241216158399768,0.06761224270272237,0.039872462696069366,0.02377644243401411,0.019027992626807322,0.03144970427677096,0.03530146207643048,0.02799363411268896,0.016502477794838377,0.034977163466745065,0.09575404241466767,0.1775412021519167,0.26301773772583914,0.3498905942140147,0.4377457708878456,0.5331537032677187,0.6198007253332194,0.6470561182490906,0.579106241149332,0.5136922356354106,0.5419581973257421,0.6259891769887602,0.7105780302212459,0.7957275545389728,0.8527538858001797,0.8143952537217394,0.7322675332835726,0.6398212386025892,0.5494387580511444,0.4583551423954719,0.3642350684094322,0.2662271784467629,0.18243695668886994,0.10668366807003293,0.07142537547774008,0.07905315787097011,0.08440865947330334,0.08211875508365862,0.0706807310273061,0.0825857017149767,0.1139881037812529,0.14181514918494287,0.1435911281844091,0.15679264512080415,0.17527047748268476,0.19406100114645453,0.2116208368653556,0.21482385790829772,0.1892418635382742,0.14720047966513583,0.12182507638913176,0.11659347465936509,0.1292093531705225,0.16727636276768498,0.19058586778478404,0.1721603435738599,0.1328329857447872,0.09630450257282641,0.08135988134461858,0.09689061209114724,0.11787992702441263,0.13745034698377356,0.1691663912850303,0.22999654139600034,0.30828881423412113,0.3888280576977077,0.4738892490830642,0.552324650305168,0.612428389917512,0.6855262375538551,0.7656470430297428,0.846137641867343,0.9268420368365646,1.0,0.9871044089466441,0.9069296357918537,0.8175672184228571,0.7293470316017281,0.6350288756449292,0.5457360795846382,0.4532906185828054,0.36325324344174525,0.27762564366378184,0.19808254568780148,0.15080351167323558,0.13320496033249318,0.11866955567917259,0.09654775201236276,0.07395310308343106,0.062171210565193036,0.06781775133363599,0.08730333822764536,0.09969789168529664,0.10972895555029227,0.12580603709321458,0.1483998474061532,0.16262769770427488,0.17157999615590702,0.17901399574267973,0.16495651067878336,0.15905563995090777,0.1721744790746178,0.18423702166099165,0.1970422205967508,0.20538608328361718,0.17359976379235453,0.12943602314489056,0.085569594662946,0.0557614766452903,0.052623812723546326,0.05284171447320585,0.06692960628583533,0.11818452421433623,0.18710662220051644,0.26559045992877905,0.34894112130001753,0.43489711407401765,0.5139588727139119,0.5764943090952483,0.6445350976908881,0.7151534236870716,0.7939913814185977,0.8797971265820652,0.913517108961432,0.8532790623993014,0.7633296533175216,0.6741783244952093,0.5816183610601748,0.4905879226254055,0.4020283448192683,0.3115928288099137,0.22319773250193853,0.14141159177855744,0.10874086959698914,0.11391999235852435,0.12956790179935274,0.1172266811919358,0.0825346441701007,0.06392205497954828,0.06982568337102224,0.09340203071635234,0.11490268049879271,0.12010093147392142,0.12688890623982374,0.13176911614592246,0.15081136542801632,0.1632429668221036,0.16403982802604133,0.1596353796028387,0.1470021977087148,0.13433232410839047,PM
0.3286350955288988,0.3759081898771086,0.3343394593834228,0.26143293400071865,0.19481311846996086,0.1485550353663152,0.09656830768985758,0.037627067827482374,0.0,0.007971445173763136,0.07174274365078137,0.13808265763136118,0.19108858156670472,0.2155696485553973,0.1595729008229516,0.11698706548230708,0.12663873308472473,0.1723992928411242,0.1885822603865237,0.21357183393119294,0.2851684101227945,0.38377652094998105,0.49015485587639285,0.5974645917202923,0.6928454775303949,0.654621694721476,0.5505845309744548,0.4464269454102401,0.35111237630220415,0.2923855697128692,0.2665940352631342,0.25460188290819596,0.27123578032972384,0.30496240952138987,0.3652767831883832,0.4381872277558543,0.4987206015866086,0.47523506682233263,0.4061961398189231,0.34591734876193314,0.2979010419687591,0.2782274390641568,0.29477118226900734,0.29066853740029197,0.2606134475418975,0.2520587952615543,0.2651719383094222,0.2578805839043312,0.2552899486875688,0.3183906182479852,0.4101447126618383,0.511656620564946,0.6173959385767183,0.716234787170571,0.721051850750368,0.6204258875446582,0.5123206636378383,0.4070469366850209,0.30447194063843597,0.2259019237225175,0.17531177243539497,0.13134894627733962,0.09747435511391389,0.09624606531798507,0.12804022003796822,0.19173656933495398,0.2629844592189534,0.325591891167218,0.29721029174642144,0.22163165916886074,0.15593399033116784,0.12399704887426832,0.129366036394432,0.15987074634635956,0.15020308528362225,0.13453246683594333,0.16107066049519592,0.1889831106256561,0.18931349438096134,0.22589115993723574,0.31583798326165624,0.41957721656837244,0.5227305917142959,0.6294264673134533,0.7098035438428343,0.6580029442908679,0.5546592792518616,0.44489299155338546,0.34058277900593614,0.23900843269951944,0.18799785765040067,0.19613920304885957,0.18581465039117218,0.18965905219585544,0.21868152672870522,0.27801076994680685,0.3518619917922736,0.4292953046096466,0.4828032398077875,0.44437861093005093,0.3755155905729546,0.31638263127406896,0.27520823527588245,0.2676737380049867,0.27250016941053135,0.24967834724537719,0.2319944967060974,0.24673936699434007,0.2462349196070508,0.2512255515420603,0.30227078041488253,0.396065813744646,0.4980209145160259,0.6024138788161237,0.7097299090783618,0.7785234348100234,0.70090758888011,0.5967117360761955,0.48665495885612886,0.38254246839158546,0.27957122847639493,0.21175161958230326,0.20172047010442373,0.18990231968957216,0.2174153727763395,0.2502186057743332,0.30136540803512,0.39574465868347675,0.4994789355821583,0.6109240471825554,0.7171029632593111,0.824837931388029,0.9265603562368887,1.0,0.9606525039640204,0.8576024684839227,0.7508295586279448,0.6457577812930468,0.5595999732630439,0.45994012694148756,0.36020385993617765,0.29341790304549553,0.2913204681593031,0.2823971702450301,0.2876454459562052,0.3141756616005047,0.31973115543771646,0.3038107598308537,0.33275839301011256,0.3854941327624033,0.45688471590470536,0.5256244123763896,0.5380922861546189,0.48061423116268465,0.4037045297004389,0.32286875683549443,0.26154329383923747,0.22716189390970332,0.2227049083840904,0.2482947929961128,0.28553556337553454,0.3730859861935132,0.4767917742413794,0.5880939757916726,0.6929927020880862,0.7977587071494932,0.8800954819319005,0.9098106157796271,0.8374413021173548,0.7264612697499557,0.6134329230255986,0.5090809405744032,0.4041730375275696,0.3073215088230459,0.24014600529679342,0.22838834751026527,0.22666237138491452,0.1854779096834025,0.18625761057454193,0.20144728638512532,0.1782419470934764,0.16179142334837104,0.18292790065972886,0.24126043547325393,0.3193438399166615,0.3839413630551185,0.3790741187009403,0.3149366344902429,0.24630923572979313,0.17698376401595173,0.14412474135181874,0.1574887920243584,0.19222325238198756,0.24661096698832985,0.3035905949990596,0.39917180087671333,0.5041866751074373,0.6084102113182897,0.720972782535497,0.827454090039609,0.9119439433902365,0.9043247921879414,0.8286592318897741,0.7258751363877596,0.6210268460761807,0.5162862994614561,0.4132872643264034,0.32076283989261256,0.3007726411395302,0.31389219057793794,0.3060624590991261,0.30596800601865226,0.3336686299398406,0.34406609880631844,0.33384566261181314,0.3622945612037691,0.42535846710267045,0.49052941083990476,0.5495953670368512,0.5425708887195038,0.480194466982272,0.40714775715762785,0.34611746389253684,0.30786243839104444,0.293161337468844,0.31299143200244606,0.35763319709620367,0.43889545529131935,0.5325905544527498,0.6250614921141229,0.7275402842091458,0.8184504384313156,0.8345630262760193,0.7446698609514582,0.6397580817913351,0.5352720031868095,0.4321495756909899,0.3307953559004613,0.2540328243648391,0.23482641050386466,0.2168586306373883,0.17583758878107414,0.17279951523099113,0.23237887650086808,0.30632121882575625,0.3923924258709848,0.3880684230167799,0.2948873481313603,0.2064429108507868,0.18518293897797866,0.21133922732482846,0.27484225233837867,0.3514769810976155,0.41473243130801496,0.41829270914068495,PM
0.704453437642622,0.7168734576800803,0.7283340182993833,0.7331069854285114,0.7305473265115302,0.7241885526782076,0.7238054595341684,0.7238395717708813,0.7270872940515983,0.7329634380332796,0.7332092851648079,0.7334447217352619,0.7390223111247002,0.7363626942582168,0.7255375049463725,0.7363892010161873,0.7623597373322818,0.7776045500922172,0.7783653180731206,0.745183881736064,0.6884357685201307,0.6281907864454669,0.5644344431126204,0.5006344860977633,0.43683452908290665,0.3730351602101404,0.30986053380575995,0.2528798879210984,0.19103019449053804,0.12724822722301554,0.06560350651602265,0.020859714161653886,0.03797209607479679,0.09378918794989077,0.15729465858891012,0.22065933289902218,0.2779944778882023,0.3393054943139223,0.4030906211819808,0.4668905781968379,0.5306897382588579,0.5938096196905666,0.6507064903485477,0.7126935542449307,0.7764786973212913,0.8354823483815007,0.832580520984196,0.7866362626526774,0.7576752818067011,0.7375570366731875,0.7227509206130739,0.710953240561501,0.6948038945370693,0.667109033515133,0.6316912003109493,0.5961060296808026,0.569216315822365,0.5742108719244136,0.610337958231412,0.6512735949302914,0.691877954480575,0.7231519227204947,0.7379990373996809,0.7433546031807415,0.7504287230282657,0.7538329341670479,0.7561077750322164,0.750035488996278,0.7431740345392311,0.7399749599833031,0.7335668653561694,0.729899931548199,0.7249152320975513,0.731654155010253,0.732746356916918,0.7288969756568046,0.7337872902641213,0.7410121104423592,0.7354116505487266,0.7135698195465204,0.7041682756586666,0.720794922725767,0.7407663027195704,0.7475619663236012,0.744932292165757,0.7171706100101719,0.6566243329718745,0.5928312469516289,0.5295037802012047,0.4722980680939993,0.41082141937437167,0.3470355682064058,0.2837536013413663,0.22664796964678435,0.1650275318398633,0.10130127723680005,0.041687603086781655,0.0,0.023360487911417205,0.08194425841842434,0.14564591340326105,0.20626876551268636,0.264135286187532,0.32767397032500256,0.3914738660030167,0.4552736832155403,0.5187426530059135,0.5763170539227428,0.6372922255088694,0.7010696111704872,0.7646884590048643,0.8075658805496354,0.7751046147426689,0.7438668896546866,0.7259614931233836,0.7155615191052159,0.7116723622684834,0.6966096859604115,0.6694693743606822,0.6365076362787866,0.6007159156205052,0.566112081670269,0.5608946744158653,0.5889475028785219,0.6318565354072959,0.6744980157558084,0.7090842152105931,0.7255491140178884,0.7327977785403189,0.7353192456420131,0.7449880780475081,0.7540223882631997,0.7577027392774461,0.7558876454376448,0.7520379837109029,0.748474838051418,0.7428923718545452,0.749331586920455,0.7694536765946131,0.7754285980357497,0.7807754772548409,0.7766088147289153,0.7835472682106209,0.7901727426201709,0.7838121832998884,0.7704543235839495,0.7594932041229073,0.7590041775533595,0.7528960065425453,0.7412608658797689,0.7157894392079284,0.6745187766311277,0.6323054910904499,0.5981862465158622,0.6094623653026047,0.6461432299294979,0.6784070445014189,0.7097205177469287,0.7301935880223965,0.7369350941079257,0.7433561375046244,0.759893799631301,0.7844144817715125,0.8290054346587771,0.8791659124806498,0.9209801795268117,0.9306331605494195,0.8827126443985102,0.8228950418827353,0.7591533870655177,0.6953820166119066,0.6346414688770058,0.576910444294587,0.5245000238569734,0.5468816155532165,0.6049463988122429,0.668392542710729,0.7258882560918217,0.7662713739588528,0.7725817835666865,0.7738747093802038,0.7654343194974579,0.7447250385776999,0.7381774789307954,0.7577621732456127,0.7728885479152187,0.7670729650722391,0.759943906802535,0.7580209157252299,0.7581586057841944,0.7589189762061949,0.7583234470719106,0.7579268965608178,0.7585222976010996,0.7621977939048598,0.7666976387700638,0.7737506723889099,0.7776843558631344,0.7823479880118914,0.7755408056239353,0.7717730451905701,0.7655328209425495,0.7634808105601792,0.745913222953403,0.7119135881822921,0.6735715742292195,0.6337269365437234,0.6000660795252052,0.6141055443756923,0.6484087847141019,0.6829180347017475,0.7127783202647536,0.7306961700598821,0.743580635479366,0.7562823474367754,0.7757461529512583,0.8029019441690156,0.8473059210814465,0.8998718650349721,0.9572336234621107,0.9999999999999999,0.9774023562628741,0.9225813348283912,0.8592783994344583,0.795483333966844,0.7331769228277688,0.6763971438693795,0.6134818290282612,0.55046088367323,0.524138573279319,0.5703125593321167,0.6322969895080409,0.6956119807119109,0.7487608858224354,0.7911905941890077,0.8113458444840184,0.8078814237061679,0.7993706258021253,0.7777317898750157,0.7549917998806978,0.7610080202663875,0.7717828452363401,0.765550063589903,0.7590232129793592,0.7567597426341074,0.7583457074095009,0.7539445258005645,0.7470549482755363,0.7484236002467252,0.7553105537155583,0.7608320017304812,0.7650558025244637,0.7604883654978035,0.7471537347938862,0.7374724833048815,PM
0.31999473621335106,0.3735734749471975,0.4045826183825767,0.38510162919409874,0.2874692830472476,0.2305551243015751,0.19296832964784194,0.10513909156229939,0.04588832143121957,0.0,0.03677040798130404,0.13518584642805775,0.2735662147586577,0.40791970355057616,0.5496515771687953,0.6840118058435922,0.7988287404279535,0.7491464642643324,0.6186769676026622,0.486937385384711,0.36612321718807506,0.25590345112228396,0.180572417015624,0.13265711687807835,0.13135792911385336,0.15491963367287775,0.20831969655225935,0.3017406120137016,0.4071058989705576,0.5074816213752227,0.5492011286669443,0.47776810536963543,0.4065806813642312,0.34561282150474026,0.3169469421653859,0.3278950585905034,0.2994404533835011,0.24975195881227075,0.27412713845688375,0.33579826215413133,0.3372941846303652,0.2876768957589606,0.1795842136628254,0.12441577926986369,0.21460495947871827,0.35325344476927834,0.48960916319756276,0.6276133039741008,0.6985011237304253,0.6042103639232916,0.47435270218591086,0.3496647887516029,0.2351682061170095,0.16474728588943055,0.1373467015174037,0.13606064642504911,0.18580873244897678,0.26430365715000637,0.3642933483999444,0.46587274042327387,0.552953209223169,0.5451657602290174,0.46832096642889987,0.40169019574200293,0.36614979874904074,0.3847062667366865,0.3997132681675448,0.3719478988965581,0.3185429359571379,0.3127122128843176,0.3772735889678165,0.42207019147579405,0.39817844362773647,0.2968227610208398,0.1903792800546058,0.19282768724739885,0.31392070150260754,0.44833551107302405,0.5905822998271684,0.7204112191930436,0.693369001809633,0.564574962077061,0.435145534087094,0.3204832071289587,0.22076997521974162,0.15399847272852396,0.11007856899541135,0.09997967597400192,0.14780575592704182,0.23091584277839639,0.32951149482381803,0.44319709742339164,0.5465204478092494,0.5591068553333196,0.4770983916408351,0.3965084255021569,0.34198982185316984,0.3312133697048223,0.3628262532973481,0.3422443626089824,0.3003191180298015,0.33521452596467505,0.40588840703919127,0.4219515176659434,0.3390292935477546,0.2413245969054314,0.24912507466858536,0.38055110725830854,0.5263929557997233,0.6607167780054071,0.7795881561160654,0.7382231021536234,0.6089885871237852,0.47859738690091547,0.35734349480276784,0.24982021060753246,0.16911661229381325,0.11579666988237891,0.09096501426762549,0.10265858751048995,0.16617237255172457,0.2621826162695031,0.3742446379071591,0.47876433665955753,0.5598106472911124,0.5252053936802596,0.4393716036947728,0.3866429965136895,0.36476465694876925,0.3834196982124385,0.40830177463858863,0.45038293089962744,0.43699395408504715,0.41481815713960035,0.4534019858063978,0.5204599128834904,0.6033252980444783,0.6359162461493733,0.5687775577438634,0.4644583072554327,0.3565988876697035,0.2546317043669295,0.16902500933114828,0.14646170683680104,0.18256466709055896,0.24261260655639427,0.3364279420431613,0.4619551986151804,0.5903546013298477,0.7248714447885063,0.8605946178274761,0.9725513983834251,0.9595059935858101,0.8499146164754872,0.720600106106942,0.5870831026382213,0.4602919418872964,0.4642406878066483,0.48542111050962955,0.46038262615142456,0.3923894241003052,0.35938853242748126,0.4059066550413095,0.41260355310352326,0.3833495592540137,0.4094549371270211,0.4759222450932743,0.5597043351349691,0.6324276306731891,0.6260159991448728,0.5357133567469221,0.427494504119422,0.3244469961206149,0.22581111145482513,0.16656579703422025,0.17741117073703538,0.22261147149913096,0.3068343620000036,0.42048885156984994,0.5472732671258265,0.6798173510133996,0.8142578275841856,0.9401712009632424,0.980547168314736,0.8761289986322582,0.7629053311295082,0.6298727653825456,0.49561528667415056,0.40907257021241383,0.46499432215864633,0.49862621197523804,0.4699799002439855,0.3994594883451992,0.37633916219684016,0.4254471134085178,0.455605882480131,0.4474480904486873,0.41804054549743697,0.45793581891355917,0.5331046050551649,0.6078362585130703,0.6394096491921175,0.5777575185628376,0.4816161709723574,0.37275939533040203,0.28297674458633315,0.21163963615355108,0.1943531998161112,0.2218767680740683,0.2998363032492364,0.4125094259293891,0.5473968694108526,0.6895199161474377,0.8212563712917236,0.9015578303548248,0.8342519866017373,0.7305354164264051,0.5977908610252021,0.4510942935745952,0.33998196759938093,0.36895283331647066,0.3954438025729221,0.38165802283407935,0.32032123957935843,0.3426788753882706,0.380170453783232,0.37910726741384604,0.3881640454086006,0.44486078770610016,0.518460678158533,0.5956751431675338,0.6368628237499632,0.5757643772659895,0.4729030522707913,0.36618629529489644,0.27201630537823673,0.2101437372799153,0.20108873854925458,0.24240282985363182,0.31733171460819287,0.42462410639398485,0.5563507407688775,0.6987485188360232,0.8322929173838811,0.9601294930931501,1.0,0.9085221297543455,0.7970482987189991,0.6558689913480893,0.5092189416981348,0.4083609173949849,0.4443702529335751,0.47497226013641747,0.46787487436126085,0.4046655521295519,PM
0.7093749605967234,0.6988939015362352,0.6980528630535507,0.7026921268646189,0.7047116349419655,0.6890063285787211,0.6698973078779402,0.679973117685404,0.7089533373045778,0.7132037672519034,0.6619887245869147,0.5950832625979485,0.5267511990887841,0.4562562986247005,0.39038975353665983,0.31945476121634186,0.25112510543965394,0.18368709024250673,0.11246729702083136,0.049623142028786926,0.03870747301737776,0.10032572362406111,0.16781962267135364,0.2360126808997487,0.30780926711460055,0.37961580325369937,0.44790667212872703,0.5153835038105972,0.5871122504419604,0.6589719125209219,0.728659715603517,0.7856347370692773,0.7749995856702427,0.7307486888282775,0.7070430233246627,0.6908054261395082,0.6761165281908015,0.6598435143638026,0.6585301598095612,0.6850078445639312,0.7003124336874913,0.711940096653711,0.724744055665772,0.7228298800322759,0.7151731780206831,0.7132022715291946,0.7071500599434932,0.7056948549303004,0.6957398813034714,0.6795081877610412,0.6781357560861814,0.7033477388431453,0.7168902736408092,0.6775560336920516,0.6093561748171126,0.5434457402897894,0.47239087089891685,0.4043377632986538,0.33663293436423636,0.26522547590507384,0.1987507409055156,0.12930946237655183,0.059053783397828075,0.00036302850370728557,0.006962481796613185,0.07290004701647435,0.1422226401335791,0.20876802983971265,0.2803133062885004,0.3521870513818114,0.42319217644905094,0.48905872153709207,0.5596208705064338,0.6314919746921164,0.7031788918883253,0.770368026182279,0.8359906176474774,0.8451926790242732,0.7977954525833977,0.747099273760516,0.7122607127127476,0.70026096869706,0.6917994057294699,0.6727070104183941,0.6628496957242263,0.685143702039726,0.7111638000571159,0.7196777258326363,0.7239466154969942,0.713365603399601,0.6998977349777027,0.6979300873222758,0.7010885694135822,0.7058170244655217,0.7010909863258903,0.681007865109881,0.6644036525751973,0.6840049547747642,0.7146617070487122,0.7042952852148194,0.6464051751172575,0.5770045466510105,0.5111025710575512,0.4399835278203601,0.3688361828750806,0.30289895316294935,0.23255130216302988,0.16151063311011937,0.09563302619573633,0.027698019824142994,0.0,0.05052921598727578,0.1216037559779991,0.19222569412200552,0.25806957659708807,0.3290365138854293,0.4009102615571023,0.4727856636561716,0.5441963559684562,0.6103344292354003,0.6742072408642745,0.7362006561294314,0.8048725630633309,0.8176173662217405,0.7646048509311061,0.7218766845820079,0.7008456306456652,0.6895214765715958,0.6715767979111211,0.650141107667841,0.6479572256318733,0.6716955796853867,0.6856040538332617,0.6994408520096571,0.7224365153120664,0.7290779214275929,0.7141715519078433,0.7012104184103802,0.6838673564015882,0.6703607878458144,0.6892329539455315,0.7095673012867436,0.7212668388785319,0.7399044002697435,0.7798647209513985,0.8439729552371713,0.9073382501393166,0.9670056322449869,0.9795326996855376,0.9224975198169891,0.8564016319836543,0.7868064918621618,0.7167547847623159,0.6589791535609024,0.5953505171296263,0.5239189614967639,0.4520514807629161,0.38506823119103384,0.38905741574640196,0.45735379773487783,0.5289937202890644,0.5959233126347967,0.6635180607494517,0.7265127405536091,0.7578734471253503,0.7431011589412349,0.7189778463862946,0.6952952571887565,0.7093842167342272,0.7318929782394139,0.7290183074486587,0.7256735454349954,0.7215655523957447,0.7194358390196915,0.7338017175014686,0.7468647364093071,0.7487626061680839,0.7385826946893561,0.7302426798242183,0.7024191032034284,0.6945853794997117,0.7113809734830041,0.7195221268871046,0.7313940130992425,0.7633453781210546,0.819484165052687,0.8870044548976384,0.9511096896707909,1.0,0.9771698061691683,0.9112617120430615,0.8432006921469541,0.7755952930973089,0.7038502849242263,0.6319756804148986,0.5608092827271387,0.49488072565515817,0.42453993986546923,0.3526807096332897,0.2859939853567127,0.2913754532920724,0.35991087616359463,0.4317831301804842,0.5036590111803394,0.5753498304783642,0.6425181985972184,0.7092829652775761,0.7600850992884214,0.7550360548649311,0.7357810998346699,0.7081053399587816,0.7049858714241033,0.7210144741061522,0.7262496106789309,0.733497489120772,0.7362210169560655,0.7364213692370527,0.7405548909155746,0.7482141505230246,0.7444312256022383,0.7313922413133218,0.7237290508080689,0.7031497435306289,0.6833282680654924,0.6959356966149168,0.7117358711270971,0.7247637025100173,0.7479675620224593,0.7934440815141346,0.8560202241889354,0.9193536558950661,0.9781083196982399,0.9847173423514022,0.9280101877504114,0.8583003012831099,0.7923638265583828,0.721214996965875,0.6493404384564081,0.5777003915638697,0.5115397383453022,0.4807273257586089,0.5370320480526736,0.6079086266250868,0.673572958069498,0.7360514194940992,0.7566651022109154,0.7398673603795645,0.7156702641826049,0.69980321134212,0.7160545354868317,0.7254399948472225,0.7257483978733301,0.7248276645876155,0.7214715120988457,0.7313080612557381,PM
0.05508832838684319,0.08292709387729624,0.11251025905534706,0.11404631444710756,0.14344075953549618,0.19082202600007703,0.24197101480291672,0.2963310033259322,0.3470662148467628,0.4005844263986972,0.45294953729643794,0.5046303787059331,0.5593921820752189,0.6115111816955682,0.6634345744272226,0.7182900155377977,0.7724790332769723,0.8230185683421986,0.8756585045836719,0.8889073858699496,0.8404608348992945,0.788282592859829,0.7364328454636296,0.6820151275743415,0.6313095309625104,0.5779914386048931,0.5271038231397541,0.47401117141482085,0.42286276059015837,0.37031561162815974,0.31964071624812485,0.268077420149493,0.2198788267753834,0.17811001824183958,0.16093171098592352,0.14950877172866095,0.11518443402095635,0.09405650687551215,0.08406017665622045,0.10705447133983759,0.12692411444564056,0.10362651558744329,0.06741333189188858,0.03158906528588712,0.0,0.0018258866465139523,0.03420010717093813,0.07236847250118827,0.11429453476989482,0.14935242495205403,0.16543896776542244,0.17881429727639353,0.1932277060280666,0.18769043156778298,0.1698546110259197,0.16131270569166034,0.16836404976335062,0.18093183396609325,0.18874164572065555,0.18777797880747304,0.19187415502649552,0.19383521432997852,0.1940145761005153,0.18440772262767247,0.18411755963901044,0.17421278310691668,0.13668839316901304,0.1406706859447615,0.1867209532805102,0.24108954304255492,0.29603150057757943,0.35032931215509466,0.4008885853231131,0.45481623881541855,0.507165438039158,0.5588656597278018,0.6136975825923822,0.6682386788833904,0.7189781325516919,0.7725374614643469,0.826705435469646,0.8758550195585736,0.8897645464807759,0.845881645515837,0.7922939359801046,0.7417320360508272,0.6978934010792789,0.6467421862426123,0.596008433930929,0.5419577450691376,0.4913307986242196,0.43778666106612574,0.38664571064266584,0.3336591235531071,0.27901973360894583,0.22860671774154884,0.18438376972776016,0.15642283126950884,0.13238415174865703,0.09875655206632938,0.060947033053760036,0.019737564004985164,9.223286574600031e-05,0.024516528625540546,0.06496754475294031,0.1050100718810918,0.14395166909394652,0.17738346177704534,0.1956741430352208,0.19888078371020212,0.182041024020261,0.17605419364981467,0.17862385246007018,0.18124836024082214,0.1890942925519138,0.19224848709236464,0.1906207476676247,0.19785044362701876,0.203913965518157,0.19787950891311867,0.19216169511423808,0.18893775188545658,0.19363424456930423,0.19256784479210087,0.1924740679729905,0.19248823998612974,0.19440686722563927,0.2059064050502426,0.20855792653307104,0.19848158964687213,0.18518934764038408,0.1515300847816632,0.134947080248231,0.16947303018017768,0.2193268443035511,0.27303242141533557,0.32130159294278304,0.36582809389300597,0.4199810885250629,0.47222756593822834,0.5240259385056493,0.578726724291026,0.6302116394348035,0.6827999559859955,0.7377050264502517,0.7926493226845271,0.8475432001588236,0.8922203948367228,0.8725830930830133,0.8232356674436315,0.7718996544853672,0.7181304970557222,0.6675641533870388,0.6132545527805474,0.5604477887718248,0.5092259308258397,0.4580428601283232,0.4147927997440929,0.373071899719044,0.3256978650154555,0.27509722433738915,0.22593366632320377,0.18176835015288617,0.1489495091044667,0.12280046036301573,0.09162356124584659,0.05610045311785594,0.02556712043188336,0.04287363269757216,0.081970101371582,0.11463020726142592,0.14414851491118386,0.1720399115833292,0.20764691499634425,0.2527395862517846,0.3049063724228781,0.35913261957190834,0.4096591227743839,0.46165975870139075,0.5128399331462464,0.5670064925509585,0.6176012780274586,0.6714280929215085,0.7239382317747182,0.7754613696028668,0.8281968620633827,0.8777515983737617,0.9262237889035511,0.9753302039068671,0.9998428903178332,0.9642930153320727,0.9133047769557444,0.8589474308064616,0.8082164614331023,0.7546383119571002,0.6998935610294478,0.6486271256962467,0.5957877818091896,0.5410104575522566,0.4894982324321585,0.43695324557715065,0.3835771767593298,0.33274678117774303,0.2782741077662999,0.22867407210986646,0.2080197809427372,0.21519476239159996,0.22596838084101745,0.22910952327279743,0.21527473354618454,0.20840819670343846,0.20688713554827698,0.2074512542176996,0.2116292309603468,0.2091439370744287,0.20943686493368707,0.21531526906355614,0.2187157263524142,0.21603840151927634,0.2083605385917804,0.20682737066332446,0.20366710526122767,0.1962833523776586,0.19715650503300386,0.19320873735924637,0.20503839717618189,0.21769736284370855,0.21206510393304534,0.19412202312995364,0.16381025944805172,0.126090778519518,0.08399706789949479,0.04358323421036514,0.028914871924870744,0.06196946766317124,0.10304422372463651,0.13803506461751558,0.1639055890334451,0.18997809220940776,0.23329217042771921,0.28254497222110186,0.3332959939228851,0.38577149324171456,0.43701129762752944,0.489614891982897,0.5407332247861493,0.5937199543057431,0.6486411458306417,0.7035846442056207,0.7580045797211924,0.8086190992511683,0.8618080082491636,0.911021613145275,0.9591389095405908,1.0,PM
0.773820229119518,0.783567812831766,0.7433456983246851,0.7231819403169457,0.7308116217168668,0.7352036878810304,0.7207800989938338,0.6895767481202415,0.7020604272353821,0.7415367167699729,0.7364199084886736,0.6698053582235726,0.586916750195787,0.5000105723310995,0.4156419646006111,0.32536567513460546,0.24092799143709343,0.1539923332273505,0.07784220589451829,0.08022458298528545,0.16455033564292698,0.2567053395856427,0.34756102239556785,0.4318770250191797,0.5226051752278127,0.6147548939762157,0.7036166847675991,0.7888863996998605,0.8720785735618017,0.8649912793340979,0.8001180152068461,0.7547532509131978,0.7341327316789936,0.7409635835579695,0.7637184317552912,0.7692685096252774,0.7315924476919875,0.7215926024647346,0.7214898342730265,0.718311775295164,0.6884330742972966,0.6673576718665046,0.7006783110019075,0.7312019425839389,0.7128656588936795,0.6504884168944671,0.5691059923359356,0.4803339494622705,0.39565349782584547,0.3067377297069449,0.22223721341495173,0.13635803224881848,0.06953687460082603,0.10320492484825072,0.18620813899562916,0.275233166383158,0.36736277830939534,0.4564036299112655,0.5415562333171562,0.6332846038109745,0.7248777924985939,0.8096336848672199,0.8806164458227412,0.8482523910150439,0.7834301003169353,0.7375573390449439,0.7235373286782854,0.7343315890268753,0.7587699104011956,0.75787434730977,0.7246944217311881,0.7147387201121509,0.7170844948445947,0.726642456006841,0.7092330642718343,0.6970888259685744,0.7282073487654239,0.7286871936840777,0.673650529325295,0.5914484613295816,0.5034693185136014,0.4181381159624784,0.33005465376620347,0.24467301226115512,0.15884164579447613,0.07431698214685989,0.025419805449872213,0.07924239680658118,0.16946417888748733,0.2580602530130698,0.3435658884654349,0.43539304869758744,0.5271333284283686,0.6123534033410736,0.7013092868212945,0.7909246466288318,0.8339862914798335,0.7872360637831464,0.7422708361929182,0.723178488176826,0.7124563751745807,0.7226740466999855,0.7286402062971877,0.6976788043075195,0.6894901649252172,0.6849866480817242,0.6776086940130437,0.6585648526167869,0.6612497969859124,0.7005452144806088,0.7133891862991577,0.6582602552729122,0.574834872971167,0.48829999522098233,0.40146829238579484,0.3150158336041373,0.23015272119906482,0.14089582650802734,0.0501761180610103,0.0,0.05695642125197531,0.14092539787280622,0.22873012071425025,0.3053612891723052,0.3875393232068529,0.4753082669313349,0.5674081680806637,0.6575319708885639,0.7420113816753999,0.8320069736234565,0.8720586097932774,0.8112181223979682,0.7548173611528137,0.730839765308892,0.7323014124810066,0.7512956293796675,0.7664635152404973,0.73452153290786,0.7090039442453095,0.7067825215798853,0.7066907640278735,0.706706433704041,0.729363257423224,0.7432289417799534,0.7455555138975638,0.7648703227599023,0.799961118809166,0.7977195094310341,0.7711179998644171,0.7604161356382435,0.7833180987029573,0.841312619176233,0.9174205579683563,0.9862522086308021,0.9661881673009363,0.884534450348244,0.7951248324198148,0.7104021762264126,0.6188890882419023,0.5267597019797485,0.4396968190996311,0.40659759818465635,0.4742001819138255,0.5637093321335471,0.6547500595998752,0.7290706952503689,0.7552169138449027,0.7385891870806276,0.7031523423351203,0.7029326457711784,0.712361498393761,0.7217414541469174,0.724577055410693,0.7266557852079296,0.7598496605849137,0.7686243384203477,0.7518786647730489,0.7527034120510216,0.7793396680969731,0.8309967676985643,0.907735465540287,0.9752972418024788,0.9756360451337436,0.9000849777328164,0.8146799646737917,0.7229233339484464,0.6360223601532833,0.5691786963119005,0.5796765743306038,0.660685996682977,0.7343171361669305,0.7697414964758156,0.7696836222812304,0.7434859500985769,0.7347617796220545,0.7559244869457633,0.7526572851190358,0.7473241908447397,0.7552578150256872,0.7933791471465559,0.8019975833165374,0.7737813231608703,0.7552307914619654,0.7613638632223314,0.8064463267464475,0.8788928777847891,0.9523584866495167,0.9901480475503817,0.9360899932425912,0.8489023207345825,0.7645813500211451,0.6735386394697709,0.5814136070474407,0.502813392473868,0.5298469932449439,0.6146109065985561,0.6948599978990357,0.7582421877815471,0.766901795897079,0.7447511610247388,0.7110215391845727,0.7280073102090063,0.7479271787975059,0.7559044104688026,0.7498313873539573,0.7597339609098508,0.8038592535963245,0.8087648522495932,0.781285971408459,0.7646519827149609,0.776116545558527,0.8225511672422643,0.8919559773574048,0.9659571059252086,0.9999999999999998,0.9362091604388327,0.8457138825182073,0.7613765606212297,0.6707743655783809,0.5789117505518813,0.5080740880627943,0.5428743493260935,0.628945462289576,0.7101102619485198,0.7683102264769157,0.776093867097249,0.7528698381661365,0.73065007567515,0.7531020656879208,0.7639610622387107,0.7606484339021218,0.7606792629923018,0.7942536915188454,0.8256815652932368,0.8103139331206131,PM
0.15051372870080093,0.1503968658876096,0.13825462072849848,0.12416442351058365,0.1370621109342356,0.15455127802681234,0.17241613641119202,0.22545033059649255,0.29337760226458376,0.36286909599125194,0.43071930022842086,0.49992340692231996,0.5719526041502807,0.6431780373159433,0.7161154193794566,0.7894924165582433,0.8044031339165703,0.7366357250302333,0.6633331004738958,0.5923754771769021,0.5193123071768115,0.44871514391503586,0.38220092639150804,0.32923011726435725,0.26828900795794364,0.20216861372425177,0.1489923765470602,0.10468539183936976,0.07246717019315763,0.051115913594873774,0.038516488718171926,0.047163440289253566,0.08040166562594053,0.12573882483700993,0.17457667503293095,0.20869456047490687,0.18693390360540008,0.1480790895292481,0.11568356999919072,0.1017559795339853,0.1083721320434976,0.11763596829447898,0.1176766631118924,0.11719268486268652,0.12043638497145515,0.11200799737197475,0.0863261506314712,0.08261888944848383,0.10172295969874434,0.11088408309007036,0.13415489349405862,0.1972413394916792,0.2595064296235954,0.3195095738026654,0.38906891175951563,0.4589563923679072,0.5324135709069475,0.6025919118532312,0.6772982389000399,0.7244308777672899,0.6805990441880811,0.6072099349192572,0.5369165858030347,0.4629721891064895,0.3923074428821005,0.3185875977720536,0.24479029454910006,0.1775698377856274,0.11449923720386446,0.06388309987644791,0.029397816767122942,0.007900651134891135,0.0,0.00376483285762097,0.034051271393597204,0.07836951256386593,0.12342438094452013,0.16273244238595375,0.15563410827792779,0.11976670212847917,0.09568340862113534,0.10221260940872567,0.12016742940960379,0.13430089543299584,0.14531851623196812,0.1546730046352338,0.16266081008775535,0.15953617650155905,0.1438529819737122,0.15318631572603825,0.17058100350237448,0.18813001673584462,0.2401547979246541,0.3079303100534829,0.3766583907046812,0.4452615539290177,0.5145066064034487,0.5875633876638338,0.6578783707911424,0.7281601950682866,0.7896935696817069,0.846347527200638,0.8156705549726797,0.7428386830314415,0.6723326709208668,0.5988206427216893,0.5283436936598911,0.455447393151182,0.3850417215378996,0.3156132673626528,0.248536748996931,0.1867213503667513,0.13637758543864642,0.10067730742438052,0.07589205329733506,0.06680347518878738,0.07783752274033984,0.11234279245592393,0.15710563578523518,0.20609837651475127,0.23848348333812797,0.23232230029837053,0.2612676234978788,0.26356061051234914,0.22421772934523543,0.17759883748353622,0.1316562799715364,0.09669831328974476,0.08988085687167424,0.10716362869989693,0.13854264211539968,0.18222214298238715,0.24435366851770235,0.31170933395736355,0.38091228760492246,0.45264940246004826,0.5167271700584974,0.580566089549311,0.6508116675351441,0.7247409724983083,0.7950558188473165,0.8699151815820956,0.9398751439554942,0.9999999999999998,0.9961718374820163,0.9308086511632172,0.8566535979693122,0.7863966986488258,0.7115471591306244,0.6410466122791925,0.5686066530746008,0.49859709721456924,0.42817457739204645,0.35966438119651967,0.2905549228431814,0.22630555550659226,0.19913389662873127,0.1846597710115705,0.1716057336794723,0.1828442382012787,0.18516534778465865,0.17963798258633656,0.17244788266652944,0.16076666560074715,0.14579360192080193,0.12922246655339742,0.1227855353892231,0.14740382696872656,0.18098004180442562,0.19741832756542133,0.1686523968150031,0.12507323157441275,0.07813463628937667,0.03789877916698736,0.022146887136812232,0.030895968511449157,0.0540809914018352,0.09393389100527783,0.1496492720917213,0.21497354521378753,0.2838603406377509,0.35380433595758487,0.4262508246416361,0.4964645174176465,0.5696883672172677,0.6402345529914377,0.7157873372723809,0.791671711541301,0.8635315374464694,0.9292329937100436,0.9505877580242295,0.8972969423956989,0.8329816972557693,0.7680835872486018,0.6935395435562093,0.6194597414960188,0.5490233746176396,0.4749094343098965,0.4047260274157327,0.32992078199822905,0.2595503351853572,0.19210787053183265,0.14334900873089618,0.1325302728318245,0.1158539654550319,0.1114752551075302,0.13379004989191978,0.1436901869759739,0.14221841278085146,0.1426083925195416,0.14283212635800902,0.1392193635236143,0.127836758642621,0.1333939367736794,0.1638780933260482,0.20192410745224998,0.23601605859621433,0.22947103903744082,0.1872168118213986,0.14044937616874087,0.09322694267377662,0.06429079491858714,0.06864856636273653,0.08931585955075994,0.12026705079941458,0.17061315710938962,0.23572136100169994,0.30418332770718415,0.3731800226002877,0.4425645240366871,0.5149699440627913,0.5855941785456409,0.6606884447344066,0.7311548531512002,0.8050964330408739,0.8755550792674576,0.9346408635675398,0.9836984895458991,0.9596022206987691,0.8897398722257093,0.8195537955248939,0.7447113058618631,0.6741501507608272,0.6005178430262814,0.5294745664649538,0.4577031949029329,0.3892402217126403,0.32165192408551113,0.2527234424925069,0.1947467936787961,0.1754931671435458,0.1577524716298795,0.1606083870735795,0.17177792930267888,0.17265851177051017,PM
0.8864063916316735,0.9021123048497094,0.880766837288743,0.8589594619001965,0.8521114809576987,0.8622641780142514,0.8673695686175832,0.8592442491539133,0.8389600809969208,0.8124339136577375,0.7872140414232899,0.8015061080613263,0.827902063037533,0.8303157582660882,0.8400522881591354,0.7995435217531842,0.7307626516813056,0.6550666405263307,0.5788227408575785,0.5044193675835532,0.4349591285744555,0.3594564412197402,0.2832058067331975,0.20787433160291258,0.13854682119384132,0.06396241436685635,0.0,0.011266794467291286,0.08056531021796387,0.14985772721310697,0.2250946858478684,0.3012540089569795,0.37314227183106785,0.4445800333202673,0.5207024035356952,0.5969554707785788,0.6732085380214631,0.7494282026857452,0.8226000647511947,0.8891183707269307,0.901675996763127,0.8725507379613623,0.8590088417366725,0.8536579779004468,0.8466433106576213,0.846747938127082,0.8625899208863715,0.8856443980126513,0.884215307083564,0.8702288039314986,0.8658837297997396,0.8703250682597691,0.8622358715532875,0.854670399117161,0.8414470388371807,0.8172577347668989,0.8131795677863906,0.8399267607995685,0.8588447644774898,0.8606086811037431,0.8545399507009895,0.7883380202362741,0.7163862802173583,0.6450398852795286,0.5689320998382729,0.4926790325953888,0.41668103043898996,0.34612302141483375,0.27328009160725875,0.1970698541623347,0.12144009991347449,0.057332169726338145,0.05018551831444351,0.11037631990294106,0.18558904803639242,0.25593461705966136,0.32903450280844615,0.4050604607224172,0.47595619036848336,0.5484167986341614,0.6246101131539202,0.7008631803968041,0.7771162476396879,0.8531984471847945,0.9187416587022693,0.9222497208594463,0.8990224701567239,0.8909128492319224,0.8825825285597636,0.8658789757153683,0.8508088939081387,0.8626777928438866,0.8830692358101203,0.8720204251001887,0.8510977918100121,0.8453021808714335,0.8463251677884515,0.8517471067617742,0.8444060738342863,0.8301369260695345,0.8068038301445467,0.7945009357511631,0.8158299784515274,0.841281979945301,0.8485943657147664,0.8339336420784934,0.7699626804314047,0.6961583123790415,0.6264043747929974,0.5506956380592612,0.47780064666261357,0.4164171707156966,0.34896596463002705,0.2738728542498745,0.19769645951205472,0.12585703667796777,0.07759458838176225,0.11079326767565179,0.1842891056176178,0.25755163827181904,0.3277595185810215,0.4028063893167363,0.46605012990247185,0.5300876098759352,0.6042271868658312,0.6792340935851168,0.7485248991907859,0.8235502729464929,0.891539206879889,0.8966916043919281,0.8762142413187736,0.8603125286594658,0.8561850304131641,0.8537071868540219,0.8512361373121858,0.8693035562834889,0.8950703907279741,0.8923527945039579,0.8691606550619903,0.8561778984781435,0.871684733247755,0.8890109426826279,0.8946519409185899,0.917026475980692,0.9352087987039489,0.9174996375390877,0.8891414268863319,0.8828598898779435,0.8831271145043605,0.8891556041277336,0.8996809652483831,0.9228244087476353,0.9645208149912471,0.9718714782132193,0.915212283428609,0.8417328185796121,0.7694894876791699,0.698404403440611,0.6224088471374668,0.5615361656380277,0.5952935961019811,0.6705883227345121,0.7435610313185333,0.8140156918830824,0.8891958990124188,0.9488220901161165,0.940644360187639,0.8915025771410704,0.8728024634248833,0.8581821050876853,0.8308314570283454,0.8345337119477573,0.8588066148294876,0.8693947571293758,0.8763790990363539,0.8761960890799548,0.8694233127384335,0.8764209125329804,0.9010409973678243,0.9188459079144441,0.9019502546369379,0.8824713315767126,0.8927695714567699,0.907518961655894,0.914836102072418,0.9256825572926081,0.9565648127220278,0.9999999999999999,0.9897445873396674,0.9260694745165045,0.8527986241508195,0.7822598255316088,0.7094104169253271,0.6332824554213413,0.5614463525590639,0.5163695275731545,0.5659945554764471,0.6419766536450203,0.7176063270389391,0.7872064313900212,0.8612385422516512,0.9320389733486251,0.9672880567636809,0.923918062846688,0.8912986725578954,0.8837350734154524,0.8647010735033808,0.8409090590605218,0.8533438775453476,0.8787915713441986,0.8812000334188163,0.8886481271255057,0.8934198063306972,0.8940285508486273,0.8967245451130922,0.9100342407206351,0.9215635978273303,0.9062896142462477,0.8799796537795522,0.8689416804022946,0.8771892254170052,0.88590905972049,0.8925310633059128,0.9238552854946752,0.9759303562883762,0.9933959723988607,0.9375642882187513,0.8682110843978391,0.7945005530272286,0.718429268496089,0.6472467221020887,0.5752035236484926,0.5174683034080297,0.5543659208624948,0.6240827430003008,0.7000151627051553,0.7762199793507171,0.8489674259883547,0.9183707480613931,0.9597642068130016,0.9167353520557938,0.8755353845060713,0.8639574502216493,0.8455937775359542,0.8227225441885392,0.8424508540305674,0.8696723340967164,0.8893015027810948,0.8996650418903315,0.8967367763656887,0.8892045648230426,0.8951778814323569,0.9160679038693699,0.9368847316856971,0.9236445855432759,PM
0.8056467619056353,0.7730165876078905,0.7424907184343823,0.7432631421369096,0.7702499012857471,0.7927018110586546,0.8101687166274636,0.8165206570103956,0.82785281917202,0.8288083841780338,0.8209363343035565,0.8216240954970617,0.7976208964088545,0.7676810672687386,0.76037516313141,0.7759724671497796,0.8169854467155391,0.8487809774239428,0.8439613702514013,0.7723007665845558,0.6855402446528269,0.5884524074348327,0.49312470184497803,0.40587625666043836,0.30850797600538193,0.21011155752646316,0.1149310266272896,0.06150751251586373,0.10598055878207013,0.19725666395416974,0.29096560994168685,0.3792745324876572,0.47715296270963403,0.5753439497678454,0.66555089215578,0.7571547302128376,0.8446864907636975,0.8656730410755782,0.8694531958567042,0.8559773143363252,0.8336180791897299,0.8028016290929889,0.7746378514017938,0.7542768817257115,0.7654581304213948,0.7929022354922388,0.8098569629736501,0.8236378293030122,0.8289834503245648,0.8290338725043505,0.8288089834052834,0.8216460729899753,0.8336484872486647,0.8290329726699226,0.803247908415214,0.7989249824183551,0.8161957178371471,0.8508090517642732,0.8472761620855,0.7760587229983895,0.6866269115577239,0.5949261742068974,0.4969029082380123,0.4073672520819298,0.3150247744065462,0.21707623381231933,0.12837853981973302,0.05541305615164971,0.07931867877839616,0.16250604989043316,0.2583668217240467,0.3501081984015122,0.4402176597667449,0.5384016623909695,0.6365887442548925,0.7248071875613809,0.7941563775812068,0.8528557670997539,0.8582536227875739,0.844571377398895,0.8195879419739698,0.7990615677397708,0.7692781980159658,0.7395637275727243,0.727814720819925,0.7509542738257391,0.7680022892525105,0.7778270163620102,0.778174404371049,0.7789108630971833,0.7799411389670388,0.7783275364949365,0.7777930692537112,0.7822563415076496,0.7745818442199877,0.7510901592255275,0.7387240661967538,0.7535662524765798,0.7965310416704354,0.8186102636158656,0.7981863846844441,0.7221834881624951,0.6264877942282423,0.5392270504235168,0.44394415016913147,0.3478325001210236,0.26102504479997934,0.17416625586319046,0.10757606988955493,0.0409914655259247,0.0,0.060612228827930936,0.14730276527593533,0.24147365137054155,0.33906755515043496,0.42668868765222046,0.5214006553488404,0.6197870714711189,0.7181761796996673,0.810327799726454,0.846881081547429,0.8486042099808673,0.8367220353421017,0.8152136312037341,0.7906592968387138,0.7608130657639065,0.7407174291869043,0.7516197464666767,0.7783730110578966,0.8044053285779538,0.8223858595978419,0.8289446431705034,0.8293558880792018,0.835823541575774,0.8342993741032556,0.8436960558132198,0.8511422754057136,0.877898731145133,0.8809887957027089,0.8808546547809772,0.8742765697026171,0.8712552891323018,0.8659377083030249,0.8616716563480429,0.8454478673286787,0.8222670454091614,0.7945152628801044,0.7887100610549855,0.8153212058583836,0.84646187992512,0.8668545629700284,0.8808021222025304,0.892036100072715,0.8930936694225449,0.9135681359583745,0.8651319581128551,0.7804129963384376,0.6842068881800438,0.5859975589360178,0.4956230689154544,0.41537027249758696,0.4433345482518001,0.5391761339175631,0.6271901356847578,0.7212477623446936,0.8130309749975413,0.8872785609708846,0.8894606252215516,0.8621819301411362,0.8292652716080968,0.7884960418294407,0.7840275089234185,0.8118032018184111,0.8301173423867851,0.821235770224829,0.8272555694383237,0.8349249760326125,0.8293238017608071,0.8201817166904801,0.8186893033312144,0.8073592297797361,0.7982176917052066,0.7796239553515254,0.7969100533297224,0.8288515049249963,0.8539567544290083,0.8775093713973909,0.8931880899050895,0.9062692265550822,0.9386096367792538,0.9615678422975344,0.8979910615372502,0.8007762366492583,0.7023710874595861,0.6039920441219673,0.5170052762800887,0.5412003235157394,0.6370177402070127,0.7279569493383797,0.8180946686755783,0.9003892721552398,0.9327619674771741,0.9036629837098888,0.8835299483608212,0.8475460408614808,0.8396025236951119,0.8664710944583098,0.8908269153038462,0.8785184352807662,0.8711544624800567,0.8710481271298671,0.8691714560991795,0.8691031068920876,0.8656526237293374,0.8593509961699337,0.8482634157745754,0.8240645515915084,0.8074334557624416,0.8268926297781767,0.8599086091785444,0.8814370990987364,0.9008692272383789,0.9112814144910275,0.923458524551652,0.9824488798259079,1.0,0.9328543551890229,0.8408632874408881,0.745397319869936,0.6582660666149391,0.5619044553625048,0.5164009987696785,0.585546336834259,0.6801425129962988,0.7752720927995922,0.8615539797776544,0.9188382336426235,0.9014252058778816,0.8766911156176374,0.8361865742227885,0.8090794435575996,0.8240533144755506,0.8553498597450142,0.8693027354226688,0.8679045001100842,0.8657192663287421,0.8657070629844013,0.8636996407410829,0.8507356458102477,0.8370115954887822,0.8175153039398442,0.7866989800521105,0.7958494557306723,0.8258761828289245,0.8547632755869321,PM
0.5230520000630388,0.4638475163644775,0.37617313006617814,0.28818984463406316,0.20210658883876764,0.11554263004143794,0.028502841427098913,0.0,0.06907618971166762,0.1571375767487999,0.25141402236963484,0.34585883602449363,0.4361063459043817,0.5152742778568506,0.5805069239828271,0.6692775819070804,0.75684739513127,0.8476567835932849,0.9196891288305729,0.8874181773003342,0.8430695672901718,0.8298765632596665,0.8380915487495959,0.8635962779807003,0.9011062895799029,0.9076097324359114,0.8590074313675431,0.8116777196248015,0.7886276788612958,0.7908984781671013,0.7869291376164949,0.7773939039640538,0.7820636145408775,0.7878520349038995,0.787604188995072,0.7574154420219088,0.7187043278518266,0.7256689009707218,0.7765067249763942,0.7671111396453028,0.6897092629797819,0.6032592163040809,0.5159729527815617,0.43076058186957256,0.3445880368497112,0.2575797035891565,0.16934425247170148,0.08306573791421368,0.020253569815021355,0.06711053141505441,0.15329572493279198,0.24728060345509517,0.34117981006708464,0.4282134374312214,0.5199657894653791,0.6142485930000394,0.7028187523463438,0.7919078371166373,0.8766388020697424,0.9112311597301657,0.8674263963165083,0.8420472262695524,0.840668612192369,0.8637109978345128,0.8999075272960568,0.9308621472326364,0.899348866888271,0.844846687825473,0.8089041454570924,0.797246709255828,0.7889009932221447,0.78033401972883,0.7812700654683804,0.7834962655759836,0.7834109238909053,0.7766898694161739,0.7472048125402708,0.715264035321254,0.7295324027862269,0.762887404454607,0.7121230632516873,0.6266877899669472,0.5375156271292751,0.4516518477034561,0.36607532342485816,0.280061164997907,0.18932810719674187,0.0959117609453124,0.016282434146312696,0.007069621604855136,0.08692529992195253,0.18082767185623583,0.26839750885487823,0.35942678639457704,0.45387001515502834,0.5452518920508032,0.6325433962991771,0.7258021002502897,0.8119560862135329,0.8865515684300413,0.8753923107382855,0.8350551501824253,0.8340009247334679,0.851719673193017,0.8799204975537709,0.919570122983814,0.9445700933321772,0.9021484438563863,0.8474022086099258,0.8191106211976924,0.8150742499972645,0.8062350273528183,0.7955915628191443,0.792045878223111,0.7924169024643395,0.8018057833720809,0.7928493795699991,0.7606643254954573,0.7474338057120575,0.7837113197949226,0.783192039273269,0.7109156161994787,0.6242655647614932,0.5380907849644201,0.4507444103155476,0.36548132444213977,0.27695076923230477,0.18324823880567753,0.09981760161982778,0.07821736129882328,0.1517180053915097,0.24546530612820527,0.33500221515052875,0.4238983638059237,0.5180128070126502,0.6064470755990119,0.6963971964358784,0.7863748187859025,0.871931671883444,0.9069459211094015,0.8657057395189585,0.858303295896887,0.8891349077513726,0.9422028825654705,0.9907682881311701,0.9566898722011619,0.8762730795723899,0.7905452945173854,0.6985830954589936,0.612088658946462,0.5188861883724567,0.4304123030687679,0.4253477418744338,0.4949979812540315,0.5831503390857264,0.6767383929795141,0.7623482923999378,0.8360769707416276,0.845867743439217,0.8170228653960936,0.7904506273638261,0.8134634366072804,0.8301336842185567,0.8276935510507095,0.8208792817120307,0.8240974788487099,0.8342573197821606,0.8417779798249716,0.8480328030687827,0.8854375036867306,0.9398302037128679,0.977936205879532,0.9611350540630852,0.9204291543883432,0.8879682533834266,0.8675114388901548,0.8772119952412805,0.9325502314869245,0.9792211024464168,0.9370132584782223,0.8555448966441344,0.7702529783942726,0.6810865624532452,0.5939814310626697,0.5000461590247935,0.4066599225134795,0.36034795437662615,0.42527381647842777,0.5150002600054362,0.6093113056394888,0.6986527852385247,0.780437618022086,0.8206572661993821,0.7961681365998143,0.7552512128665627,0.7631177499558564,0.7984364781559061,0.8092914351510814,0.8095899548068941,0.8095899548068903,0.8096932012623548,0.816372805942045,0.8301437202416775,0.8349305843623918,0.8677508803160578,0.9244809649181467,0.9642818191679179,0.9525620198564173,0.912034663444329,0.8785750181138106,0.8680405996538063,0.8897801963867962,0.9470947967382188,1.0,0.9767206669708532,0.8967254276388139,0.8105578129257087,0.7169747375053619,0.6224848973382349,0.5307079613321393,0.4444909100575507,0.3955364960178367,0.4589989933480869,0.544816078670415,0.6338801083910472,0.7197004069185611,0.8004250516632658,0.8372761190773865,0.8164174408508305,0.7781562323410829,0.7830275248518341,0.8134123815056795,0.8202700944944805,0.8159176726175101,0.8103231526020005,0.8173497126604656,0.8205918909582557,0.8326757258686446,0.8776201940265214,0.9300176928167299,0.946314665485255,0.9182888306777033,0.8826613402093322,0.8618343339396684,0.868502434939046,0.9084391503411784,0.9744826158098516,0.999242701599635,0.9395510837037171,0.8541521335526052,0.7659118010763597,0.7063359046006907,0.7313483654021795,0.7917641249286613,0.8443723687096822,PM
0.31999473621335106,0.3735734749471975,0.4045826183825767,0.38510162919409874,0.2874692830472476,0.2305551243015751,0.19296832964784194,0.10513909156229939,0.04588832143121957,0.0,0.03677040798130404,0.13518584642805775,0.2735662147586577,0.40791970355057616,0.5496515771687953,0.6840118058435922,0.7988287404279535,0.7491464642643324,0.6186769676026622,0.486937385384711,0.36612321718807506,0.25590345112228396,0.180572417015624,0.13265711687807835,0.13135792911385336,0.15491963367287775,0.20831969655225935,0.3017406120137016,0.4071058989705576,0.5074816213752227,0.5492011286669443,0.47776810536963543,0.4065806813642312,0.34561282150474026,0.3169469421653859,0.3278950585905034,0.2994404533835011,0.24975195881227075,0.27412713845688375,0.33579826215413133,0.3372941846303652,0.2876768957589606,0.1795842136628254,0.12441577926986369,0.21460495947871827,0.35325344476927834,0.48960916319756276,0.6276133039741008,0.6985011237304253,0.6042103639232916,0.47435270218591086,0.3496647887516029,0.2351682061170095,0.16474728588943055,0.1373467015174037,0.13606064642504911,0.18580873244897678,0.26430365715000637,0.3642933483999444,0.46587274042327387,0.552953209223169,0.5451657602290174,0.46832096642889987,0.40169019574200293,0.36614979874904074,0.3847062667366865,0.3997132681675448,0.3719478988965581,0.3185429359571379,0.3127122128843176,0.3772735889678165,0.42207019147579405,0.39817844362773647,0.2968227610208398,0.1903792800546058,0.19282768724739885,0.31392070150260754,0.44833551107302405,0.5905822998271684,0.7204112191930436,0.693369001809633,0.564574962077061,0.435145534087094,0.3204832071289587,0.22076997521974162,0.15399847272852396,0.11007856899541135,0.09997967597400192,0.14780575592704182,0.23091584277839639,0.32951149482381803,0.44319709742339164,0.5465204478092494,0.5591068553333196,0.4770983916408351,0.3965084255021569,0.34198982185316984,0.3312133697048223,0.3628262532973481,0.3422443626089824,0.3003191180298015,0.33521452596467505,0.40588840703919127,0.4219515176659434,0.3390292935477546,0.2413245969054314,0.24912507466858536,0.38055110725830854,0.5263929557997233,0.6607167780054071,0.7795881561160654,0.7382231021536234,0.6089885871237852,0.47859738690091547,0.35734349480276784,0.24982021060753246,0.16911661229381325,0.11579666988237891,0.09096501426762549,0.10265858751048995,0.16617237255172457,0.2621826162695031,0.3742446379071591,0.47876433665955753,0.5598106472911124,0.5252053936802596,0.4393716036947728,0.3866429965136895,0.36476465694876925,0.3834196982124385,0.40830177463858863,0.45038293089962744,0.43699395408504715,0.41481815713960035,0.4534019858063978,0.5204599128834904,0.6033252980444783,0.6359162461493733,0.5687775577438634,0.4644583072554327,0.3565988876697035,0.2546317043669295,0.16902500933114828,0.14646170683680104,0.18256466709055896,0.24261260655639427,0.3364279420431613,0.4619551986151804,0.5903546013298477,0.7248714447885063,0.8605946178274761,0.9725513983834251,0.9595059935858101,0.8499146164754872,0.720600106106942,0.5870831026382213,0.4602919418872964,0.4642406878066483,0.48542111050962955,0.46038262615142456,0.3923894241003052,0.35938853242748126,0.4059066550413095,0.41260355310352326,0.3833495592540137,0.4094549371270211,0.4759222450932743,0.5597043351349691,0.6324276306731891,0.6260159991448728,0.5357133567469221,0.427494504119422,0.3244469961206149,0.22581111145482513,0.16656579703422025,0.17741117073703538,0.22261147149913096,0.3068343620000036,0.42048885156984994,0.5472732671258265,0.6798173510133996,0.8142578275841856,0.9401712009632424,0.980547168314736,0.8761289986322582,0.7629053311295082,0.6298727653825456,0.49561528667415056,0.40907257021241383,0.46499432215864633,0.49862621197523804,0.4699799002439855,0.3994594883451992,0.37633916219684016,0.4254471134085178,0.455605882480131,0.4474480904486873,0.41804054549743697,0.45793581891355917,0.5331046050551649,0.6078362585130703,0.6394096491921175,0.5777575185628376,0.4816161709723574,0.37275939533040203,0.28297674458633315,0.21163963615355108,0.1943531998161112,0.2218767680740683,0.2998363032492364,0.4125094259293891,0.5473968694108526,0.6895199161474377,0.8212563712917236,0.9015578303548248,0.8342519866017373,0.7305354164264051,0.5977908610252021,0.4510942935745952,0.33998196759938093,0.36895283331647066,0.3954438025729221,0.38165802283407935,0.32032123957935843,0.3426788753882706,0.380170453783232,0.37910726741384604,0.3881640454086006,0.44486078770610016,0.518460678158533,0.5956751431675338,0.6368628237499632,0.5757643772659895,0.4729030522707913,0.36618629529489644,0.27201630537823673,0.2101437372799153,0.20108873854925458,0.24240282985363182,0.31733171460819287,0.42462410639398485,0.5563507407688775,0.6987485188360232,0.8322929173838811,0.9601294930931501,1.0,0.9085221297543455,0.7970482987189991,0.6558689913480893,0.5092189416981348,0.4083609173949849,0.4443702529335751,0.47497226013641747,0.46787487436126085,0.4046655521295519,PM
0.9022533233313181,0.8657186547624391,0.8321437367029818,0.8087190806951674,0.7987737534279822,0.8037357547848203,0.8044205852552471,0.8040786533193682,0.8007767797993119,0.802947451050307,0.8104561780379045,0.812663540347599,0.8123344170617546,0.8027000844709908,0.7884136378864686,0.7855576626542948,0.7989658715162558,0.8191672516598865,0.8301750475720431,0.8184610597768671,0.7678473766262248,0.7091373341356118,0.6521706621912726,0.5964137082167655,0.5361799458141945,0.4767899904526749,0.42258374946573873,0.36326068637177944,0.302872887152964,0.24249532019451825,0.18418359446702015,0.12952898418855163,0.0696012822649057,0.01391246857426054,0.0,0.04771549796846575,0.1079395052431199,0.16832999648263192,0.2287150038503919,0.28760643867196745,0.341941023677228,0.40163562860580815,0.4620253077654064,0.5224157990049185,0.5828062902444306,0.6431895103723018,0.7019450420256874,0.7562548626918475,0.804537311834201,0.8043841549060953,0.7975651806537192,0.7915761531969077,0.7885074778525225,0.79070423208295,0.8018279649995481,0.8194723837272899,0.8430085351954906,0.8748144359449102,0.9161988799097194,0.9451340735624791,0.9306112414141279,0.889691712354004,0.8545574968801335,0.8256654227462392,0.8032887044047636,0.7987193674449342,0.8029090450339953,0.8027563047006081,0.802521576908827,0.8068933849885165,0.8090308783411555,0.8122534526736362,0.8122513169741461,0.8091213790647274,0.802144368445165,0.7883463614825861,0.7852008146236846,0.8002905033678511,0.822645463441583,0.83247870670817,0.8234700589444164,0.7685646367993502,0.7132850144684344,0.6557931769671381,0.5954517975885187,0.5373440311879314,0.48254746785671765,0.42252031396511924,0.36213071635975536,0.3023427286737511,0.24795020747394514,0.18920826613737773,0.12896999603712866,0.07323235103399539,0.022441183815734123,0.026329998901787888,0.08173425626312747,0.1417918493032767,0.19677297865479215,0.2546465056834114,0.3150157473218044,0.37540623856131583,0.4357967298008284,0.4961872210403411,0.556565794344501,0.6149504020229992,0.669558537460937,0.7294923618949862,0.7893532001224159,0.8238151901892901,0.8122558483032658,0.8035948298870876,0.8028503065509636,0.8060670089616171,0.8136414950162436,0.8271415708239711,0.8449181167953868,0.8749545910981855,0.9142307368685114,0.9527801038437615,0.9750999437419372,0.945584444639447,0.9074717670883736,0.8726719363236122,0.8404805570136271,0.8185807027269405,0.8128026945341569,0.8126787284800321,0.8126787284800334,0.8126787284800354,0.8126787284800367,0.8126783889806615,0.8121134722708789,0.8005248743748798,0.7850503570241678,0.7817393043815692,0.7983468608932751,0.8183639956769597,0.8291224099183954,0.8702795319884722,0.8920597208636707,0.858900243850176,0.843146242233136,0.8236350283722949,0.8080301648824082,0.8132714875457541,0.8273430836632623,0.8324521977204962,0.8349392610186486,0.8359828427384812,0.8345980403243676,0.8371925190700584,0.8364983423891887,0.8372220335321818,0.8385269012918386,0.8405366732600261,0.8636250414665607,0.8972702914981061,0.9344224427026828,0.9726315587343346,1.0,0.9946608733775975,0.9597263932710476,0.9173812250914228,0.8816518537736993,0.8566182889233149,0.8410232206103652,0.8311793426297918,0.8281314652714966,0.8310495180797235,0.8369927295744501,0.860481125529774,0.9029260385806408,0.9091043546375446,0.8647519335553415,0.8101325563594479,0.7613875672956487,0.7076932929798025,0.649758616878094,0.6224494441845494,0.670931999847094,0.7296819962633223,0.7840395823322148,0.8424394125498957,0.8963976125639272,0.9426647071938947,0.9336034715588595,0.8874786431201798,0.8547098340636479,0.8482064300433192,0.8249608323128461,0.8120614867790112,0.8207361329298217,0.8315051658109265,0.8324944388194142,0.8324958762754882,0.832492275586934,0.8312865967153635,0.825122476260225,0.8242394026296616,0.8236856307090714,0.8234823547845329,0.8413093555327202,0.8712270725072517,0.9066196854032866,0.9441318008193171,0.9753025826523032,0.9712353745628517,0.9388841796808038,0.8997672082832782,0.8669178363010164,0.8412864158356228,0.8246731741149211,0.816569294860173,0.8166789181023981,0.8228658484747462,0.8328662017688753,0.8684065119117532,0.8898558671399146,0.8485671937973311,0.7940590668056848,0.7359513004050973,0.6755777419340829,0.615187250694571,0.554817137659507,0.5017276816217786,0.5142851847531811,0.569761284735613,0.6298343880524493,0.685028712985748,0.7426310412559238,0.8016018980433728,0.8558583295649977,0.9121392319432622,0.9410819644895725,0.9063013700163107,0.8614406337051679,0.8432218179638946,0.8266270873863601,0.8121670219045571,0.819071759360996,0.831757468758711,0.8382748365870931,0.8333251376119348,0.8324961746172133,0.8317890862754866,0.8284018963902553,0.8297358518767863,0.8245460907650606,0.8243272624743767,0.8299073585479242,0.8502112766967906,0.8810226832304984,0.9206588535623659,0.9565987161306524,PM
0.3980314360147639,0.3833851376819548,0.3966046689252778,0.44661673574367633,0.4907796751861442,0.5049482108401024,0.5167724514782139,0.44679293170831835,0.3479123646009463,0.23898475613592973,0.1444179912793544,0.09997945220194016,0.16657854656099325,0.2640576945801687,0.37628331365868917,0.49000614472791515,0.6037270274989068,0.7131478606822936,0.7298423223961961,0.6562788619331874,0.5933436545706958,0.5550247558184429,0.5472828908954752,0.5438640685105414,0.5433377555258709,0.5423620932622186,0.5414166748569165,0.5441698953428973,0.5665339351439371,0.6157300049135279,0.6322747721173201,0.6066280112281603,0.5632020493539955,0.5398510138224357,0.5196115755845723,0.48821978932190424,0.45484251049044566,0.4284827921403558,0.4063318080323892,0.3989890988832423,0.39126985988462115,0.39184633551818226,0.4113111624599859,0.4118965314532881,0.38766799959740306,0.3802682207045276,0.38019844073306164,0.37743947578238,0.35000748982243657,0.3119869576072558,0.27352068858865763,0.27565451763043036,0.301901591207276,0.3516519131864144,0.37721831068080824,0.3476725978073376,0.2639871481376028,0.16725433675281964,0.06858487426863036,0.0,0.040089302200507326,0.13424195715931253,0.24659201688882337,0.3491969493188827,0.4465850591314058,0.4446643497945053,0.38616393772830726,0.3400189364215378,0.31749436360368444,0.3027652215946115,0.2929151078589034,0.28240748425475504,0.28225629850317,0.2904657431500084,0.3123767920164817,0.3587459854269439,0.37972679017838873,0.38231997468057743,0.3840347287351973,0.3965871678288124,0.4098805245826673,0.4140086030079053,0.40510690543966277,0.40299543468603405,0.40100655569005283,0.4067050734353197,0.4038731651325338,0.4181908470394786,0.41941784800258475,0.41997291203877474,0.4305156340722984,0.4134948682154871,0.4331544728306089,0.4476851575796199,0.4445856895878051,0.4081544454903625,0.3894477112818633,0.4051186916435934,0.42878989583650196,0.42379999668606105,0.45150560325355604,0.415654426038099,0.3236409319225224,0.21858231227294178,0.11798460896091534,0.03262265476090187,0.05269583052030846,0.14842170403782795,0.23660586979013187,0.32109553895691745,0.4311919955923358,0.5439771465898833,0.6418583628767958,0.6718195278269441,0.6001128007261394,0.5421213114845664,0.5151755605211097,0.4995392649237802,0.49930521223857127,0.5072075780926637,0.4863686057497314,0.47399248113918846,0.4803453700488114,0.5139433367519977,0.5433656873526242,0.5366572814963009,0.4984973578947587,0.47236009124449607,0.45994442706265426,0.4869037690911444,0.5148689346946265,0.5263878717087516,0.5538905678047472,0.599220097977009,0.6173379968839736,0.5991765627432004,0.5625743837936703,0.5317705295417721,0.5421806427824452,0.5601820926457517,0.5644975674042136,0.5645980728324322,0.5752460776238197,0.6275874542820334,0.7101010815126836,0.8056190268080807,0.900638523845708,0.9484248855026536,0.8915512775821135,0.7840910331474595,0.6703963186359325,0.556672503817548,0.4447885224628374,0.4054919212776946,0.48394078384976824,0.5645160126180513,0.5921540406630665,0.5360411609740665,0.5139812475145504,0.49986539241516814,0.4690429161500824,0.46066615938498323,0.4954035163035426,0.5187719780969386,0.522562783582802,0.5053832838444934,0.48839989551065033,0.48608747737322133,0.48600675400018956,0.4784756182873764,0.4668497091838648,0.46647791755879364,0.46767952918742495,0.47695823997405107,0.4681903555774567,0.47891320407191795,0.46493716276397334,0.4480119123527988,0.44096568341277287,0.4447607741573565,0.4385643801435348,0.3981604770948888,0.3542479906295104,0.33860755412626453,0.3408605968898679,0.3476499307241445,0.3503294041160214,0.36515155787773157,0.3779120518565331,0.41956526710596354,0.4826964423781761,0.566270674408794,0.6591486980248384,0.7268155266643017,0.6878123794154134,0.5910772331983818,0.4846332232826107,0.3842691889985188,0.32383478991317505,0.38846528840560257,0.4733123860714836,0.5024322419107867,0.44602555657601295,0.4253608143820875,0.391171254281228,0.34678806050292765,0.33946871927794087,0.3736730309481069,0.4104471523590436,0.42678392388312814,0.4272618471359859,0.4279148879816632,0.4436700504492226,0.46441791023363743,0.46516455259193723,0.45073831196233316,0.4475289094122745,0.4608708833594015,0.47770723799298187,0.5080242313459591,0.540268020895569,0.5711605689489674,0.5864817631857457,0.6114791336952656,0.6569765285037272,0.6927297444226186,0.695256893275146,0.674360617273762,0.6240879418331051,0.6077388610627197,0.6119205657720661,0.6039030536218086,0.6083674100290399,0.6165603955355645,0.6326758867282747,0.6907653304631287,0.7756296255331834,0.8724578375646623,0.9643390871005177,1.0,0.926527912288329,0.8288656094374582,0.7174528964632789,0.6052382222458523,0.5145028396553766,0.5266813708628724,0.6107483953821871,0.6708299130056283,0.6279443234625277,0.5719761861829387,0.5432482131521139,0.5053016049205024,0.45590982873874664,0.4509447447344148,0.4749421200525563,PM
0.6964292993418129,0.7552535472218693,0.7556619848950534,0.6938207444323323,0.6456569137115737,0.6163697699316746,0.6139748656293449,0.6300691987977887,0.6551359727627428,0.6127841448348947,0.5176138384106288,0.397926203047418,0.28870482983468904,0.22268202743807475,0.1969888112735303,0.20353914192941325,0.2286894329595821,0.24858625121773326,0.2665710466023574,0.26709611519408316,0.22881521044031405,0.20307385566277958,0.20795892438741337,0.2665565432128343,0.32954060486206505,0.3626647323769445,0.4179213213788069,0.405797996970116,0.2820092064758528,0.18040787681137527,0.23201420864469569,0.3546551036552996,0.46506770509580697,0.4502739460347769,0.40005357187071944,0.3625639576673114,0.3377944942867597,0.333077351471986,0.3330649146061555,0.33321430042164657,0.3470196185752332,0.4010149337847677,0.46709759883922874,0.5301428059592865,0.5204902537439571,0.4479809674633861,0.36104689578893456,0.3052772854421546,0.27951866830678807,0.2773767761626953,0.29491609356789805,0.32845132631426655,0.3524339949604105,0.34014556913608374,0.33372538881800917,0.34312470324598365,0.2877786854961366,0.17945388719314526,0.10158756809020542,0.08094959624599696,0.09113504268160533,0.09125108957984818,0.05060227736551237,0.0022725149434599246,0.02487298583070441,0.09800743101885168,0.19123577230003175,0.24462753495820788,0.2873326960512266,0.31262481403934217,0.2011424063229157,0.08570621198776252,0.09178562749807018,0.19813705401900794,0.31308583733434947,0.31468368709425576,0.2737616957834579,0.25104172420759596,0.2627635680442131,0.32909689132798015,0.42324283491151427,0.5396393941290176,0.6293150548651862,0.7035394807428066,0.7515859887472329,0.7912810035781259,0.8358238317547526,0.889588001922931,0.9040158629141359,0.8370987113586521,0.7475928101023088,0.682724555113646,0.6445763540496214,0.6222958144882265,0.6136570896996592,0.6135919379465093,0.6086039279417177,0.5674919348804988,0.5194666915436095,0.45721967826670706,0.44526960110837965,0.43569676598945684,0.4179035763507404,0.41591072081560476,0.38269932666390893,0.33211827038303277,0.2753645630226318,0.27048917194789457,0.3067601803280606,0.37186292693909095,0.39818327013019683,0.43879485545308405,0.39084033619170633,0.26307004541621737,0.1569725291486055,0.18431512260713578,0.2960723770484739,0.4048942845352652,0.37056112926457363,0.3064757830739415,0.2507355102494788,0.21311265698961268,0.16957341009290072,0.09694085579524181,0.02810285286303138,0.0,0.04686308727261945,0.08015966196053448,0.1254704717431263,0.19694220943469265,0.25979264066744356,0.2953703430591954,0.3382613014488527,0.40326212134035355,0.4811694416440231,0.5702888104022907,0.5649351068503385,0.47209887345115487,0.5177929062761875,0.6332719713334587,0.698235972573082,0.6088415894120818,0.5020105432679092,0.4699669738438317,0.42859503170577895,0.36303922559513246,0.37491356843051626,0.42935432676427077,0.4745890845131724,0.4845682573592196,0.49425408631562373,0.5211940442360863,0.5472123097200843,0.5185252568907561,0.5666875974489232,0.6326943076158367,0.671261177192017,0.6808625362930032,0.6813405036976263,0.6973082912589605,0.7100034106625888,0.7385643491634344,0.7993358244534994,0.8821322828412033,0.9685765170354879,1.0,0.9774153615391095,0.9305412912140625,0.8826721329236635,0.8390959417361401,0.8021474622245943,0.7398214086041737,0.655750275067887,0.5547042769479447,0.4525890045483765,0.3680981423703402,0.3281181022158899,0.35148888800256284,0.4134039617329037,0.49239767706566173,0.47285543579731737,0.3734861008514958,0.3982504780623257,0.5170913883609902,0.6013793833765835,0.5504383730601647,0.4338375718707024,0.351391643719249,0.304347404921975,0.22399197368694868,0.13931091999991718,0.08467694462943864,0.13333858388507025,0.17345638638783,0.17322090054765926,0.16164854277565865,0.19026265557235167,0.2899058466036468,0.39089048220417677,0.42659408950630606,0.41737368133437247,0.42742830810316246,0.4284390742284119,0.42444843754856176,0.38906773368756387,0.3565050167635313,0.35198101011590577,0.38850295650110844,0.45015698877789845,0.5320439311811676,0.6034322733386883,0.620122860554277,0.5755240420322112,0.5099432097792604,0.4539502005582605,0.41366832480437754,0.4005411868931512,0.40295001797802144,0.4245572348124407,0.44305517471900213,0.478522782844637,0.5326398961604086,0.6225487020446137,0.6283973193929748,0.5365495217267471,0.508930361036156,0.6220771772053109,0.6983991966964904,0.6294459425877967,0.5050420572556487,0.42906002724268344,0.39513567347209655,0.33557347619420685,0.291917519987547,0.3112550787538373,0.3410060104486474,0.3526658250575059,0.3457435479997848,0.31901317501875237,0.29709527213399056,0.2882724425047707,0.2995657687079216,0.39097688764181804,0.5160004646380054,0.6271023646027674,0.7077962958354078,0.7352700736751183,0.7180863242032629,0.6978273115833646,0.6990632366117051,0.7313821772561306,0.7830934375292982,0.8375896408270824,0.8434515934049225,0.8030497401587846,PM
0.9210387448167594,0.9198844158719213,0.9065146788513965,0.9018691444464322,0.9236983659157418,0.9507206821638001,0.9706354730656839,0.9396712161273215,0.8763930252625474,0.8161608510109002,0.7517499703056902,0.6902461427787538,0.6275892856492777,0.5634103411683486,0.5030596798935814,0.43802330308809373,0.3747412426634062,0.31376847497088417,0.24852349426323767,0.1889551520151886,0.17145449751931896,0.22035989630619918,0.28430161872359266,0.34997102709059186,0.41552358498002534,0.47725810317176837,0.5396758814187781,0.6052874763165996,0.6709668124663544,0.7366456419121148,0.801872455809999,0.8621173924203254,0.9166568704556506,0.9510780463420967,0.9506229113820093,0.9379366575404156,0.9342163411261837,0.9216396533865312,0.9086178618344642,0.8913877890928736,0.8687681721395608,0.8658439080137152,0.8819660276236034,0.8775372793370391,0.8806214819855773,0.8733790075978771,0.8707416384248741,0.8743350519770177,0.868486881855395,0.8749429118873533,0.8995026904630803,0.9119109704718509,0.9164717300359408,0.9198317318865645,0.9232443076889139,0.9155400964651406,0.8724203774298951,0.8112024809118272,0.7509814708855775,0.6862339816026757,0.624632030808209,0.5620714845711041,0.49656586118209584,0.4347197670869893,0.3724186028131054,0.3068592175687624,0.24406861299063703,0.18267402572239383,0.11724816501210839,0.05491165928735009,0.0,0.005355343571447235,0.05632824727637026,0.11853720710067067,0.18398978428653828,0.2452751076893262,0.30818943444254837,0.37382803937705605,0.439507375526811,0.5051522940565873,0.5681900206601722,0.6293654916205302,0.6947146490318021,0.7566270346653896,0.8164063432072104,0.8631132933740957,0.9039083763015097,0.9322962319335886,0.94878971160683,0.9455515217165547,0.9453099226835537,0.9497261843022471,0.9336575873415491,0.9144413975359555,0.8967107948596105,0.8783579453798951,0.8597287491396559,0.8481626152388544,0.8530930302673028,0.871902293333636,0.8826632591796599,0.8924749056359023,0.9026293050394367,0.9126987946620335,0.9021492862778626,0.90556075875236,0.9326157895136458,0.9423946728180845,0.923506233462775,0.8782834625139948,0.8181287099199903,0.7564540540553644,0.6909056960614579,0.6252263644894192,0.5595506256137328,0.4949474073286894,0.43470402052511764,0.3699238584527597,0.30721086354760024,0.25698777609479534,0.1950553674942675,0.1305799908175172,0.07043926657504174,0.017236023676116208,0.031072589924032834,0.09244315120635349,0.15795423031227912,0.21955784410574092,0.282114660833026,0.34773624830391486,0.41341558445366905,0.4790902054421354,0.543572609289827,0.6020178820762556,0.6510781432262303,0.6949480816618379,0.7384281480718684,0.7864816738271412,0.8468970004234886,0.8907643447026345,0.9151910617628196,0.9179706103981085,0.9173895641939416,0.9100288500021119,0.8899879355870937,0.8685610094822984,0.8566873925291949,0.8663762577955714,0.8781221716392167,0.8859293436102686,0.9072745990527562,0.9247969856635598,0.9362783590698553,0.9381111783487588,0.9368990489944098,0.9405637727758773,0.9212078733207896,0.8818361972929776,0.8296042215605317,0.7697222662666974,0.7058695586485428,0.6407981425830356,0.5804230243713253,0.5162365583366839,0.4505652007572947,0.38544029217048187,0.351639465009914,0.4013600356953085,0.46688665025208226,0.5296261521926688,0.591065870187947,0.6564282296653405,0.7180672437892859,0.7803641114132458,0.8398271881201387,0.8907282036095838,0.9391094746522806,0.9589197856786502,0.9628431333782954,0.9415334363490377,0.9249547319244085,0.9362547153818517,0.9351688251191423,0.921565532802264,0.9117718874801655,0.902228209694689,0.8840031820894672,0.8729833397060256,0.8765996548724528,0.8944931597572578,0.9116971774554532,0.929912232093328,0.9487035295939372,0.9704021809736685,0.9756605179288598,0.9713369297584578,0.975841675244002,0.9660819215060987,0.9436560433196131,0.9125996152194817,0.8732072501203467,0.8244152166569816,0.7649970074643999,0.7013983075541537,0.6370557495648594,0.5946812528953684,0.6315501661879945,0.6918430619887268,0.7551349611449876,0.8159605824995082,0.8776874133317079,0.9285590039773979,0.94770993268306,0.9494992624051648,0.9467435927337939,0.9357124129451568,0.9306717486225293,0.9097847652560846,0.8929921015806763,0.8940336482275917,0.894083754530415,0.8946244564706127,0.9073314473498606,0.8995528936485855,0.9074972941486648,0.9024239565803525,0.8918017818524713,0.9074130349343028,0.9258469168216683,0.9433292823671355,0.9570632495206175,0.9619890434901062,0.9744800332803085,0.9744285130693102,0.945334633663713,0.8948065196481285,0.8351961138078534,0.7711065827230121,0.7108728128642905,0.6460839685342203,0.5899817216514562,0.608123198318059,0.6720019022993489,0.7349366235493424,0.796187582391291,0.8597260428195728,0.9197688214465372,0.9762617100957982,1.0,0.9868870694137273,0.9618895241790568,0.9353549098911431,0.9272430701278793,0.9383881504268206,0.9430171698931289,PM
0.24819150434555803,0.2177605112741423,0.21819905372155102,0.24143924842539644,0.24611699465402248,0.2244803141499645,0.20856853674482734,0.19691017815436185,0.15677953099179076,0.10820233823471437,0.07584612605314778,0.08919786073917413,0.10102095969946445,0.0863388339258142,0.11662512909170664,0.20455605439240365,0.3057387379178351,0.413189691081441,0.5182600040173986,0.6203563577728737,0.6349382430049544,0.5333866297684184,0.4212505828682356,0.31206202994257737,0.20709767360037024,0.11317720482987292,0.040363211700575885,0.0021694765913218284,0.0,0.0256565840797065,0.07394153615042587,0.1442799999402853,0.2227792880013868,0.308690685976027,0.4018969895389679,0.4986048037207893,0.5900551654147534,0.6558841052309301,0.6134042734185221,0.5184851447370673,0.4270085954427305,0.33776686674509326,0.2547493819734026,0.18683808135244995,0.12042246178353677,0.07542553450892209,0.06421894338668821,0.08803463546936507,0.11282506261141112,0.12141888415743018,0.12438620359740149,0.12592949175439427,0.10170244200975587,0.06972823997515487,0.07438078261833914,0.10458394566850293,0.11252296754888391,0.12135556801089198,0.19791543794584276,0.2982990849370588,0.4051824501509316,0.5219242146465239,0.6397453070494614,0.7475247482553717,0.8083580860689179,0.7267642389518163,0.6220137735586659,0.5129381841927483,0.40477385725318316,0.2971967004147382,0.19375770073673948,0.0988728700197612,0.04411626485011144,0.02495540299761778,0.026595404768039455,0.0670385424535942,0.1304114886502128,0.20662835315792716,0.29457291162029753,0.3827767356033842,0.4702849473768911,0.5598705733424398,0.6431079465079432,0.6336372035484059,0.5508038318194681,0.46060869248207403,0.3699948502333177,0.2819660563084416,0.21110235152325618,0.1620868784533851,0.1405118783551984,0.1483258716022049,0.16769971929264083,0.15513676267981769,0.13453852246031728,0.12541293729894454,0.09177123315837532,0.05467543728087376,0.07019019538350824,0.10804777194470239,0.13711678330237254,0.13485421341319537,0.18800837294575246,0.28627738712920836,0.38672421934017676,0.47856450732991007,0.5845694741799927,0.6887748805018226,0.7085734607786565,0.6119878675951314,0.513360405256698,0.4049154909767396,0.2916661450665825,0.1933269868023726,0.11441428041498103,0.07371939251234316,0.0664493908036814,0.08584614242710042,0.1321252912724411,0.2051367131856887,0.28512555122323313,0.3738829702319615,0.46358304351954427,0.5577879211006689,0.6433741742025321,0.6152587230284454,0.5272748413734458,0.4376814039319372,0.3494466951904265,0.25969271656751847,0.1841577004320949,0.13164088133920782,0.11081585551742679,0.13699364768123745,0.20314540052064256,0.30210226528537243,0.4065656834702729,0.5091572293424105,0.6110449802494688,0.7246261276324599,0.8321749257611155,0.903721375603058,0.855486079864336,0.7589641945065804,0.6530303223042053,0.5465416767921298,0.4328924497050539,0.3158258676044938,0.2181951293206903,0.1836645059531543,0.182948464903665,0.14189724283507177,0.10830028050239626,0.12575884370736556,0.15990237260479434,0.17534380510324077,0.19598181002439974,0.20860562877401634,0.20195864544632558,0.18383989933234224,0.20490014720521188,0.25999870899655475,0.3354822091538372,0.42074186215309917,0.5160979345766377,0.6073737767611709,0.6889391137614651,0.7190873320263114,0.662523606191951,0.5750138429519884,0.4854643850499123,0.39643859277594906,0.30102483790157475,0.22027306343394804,0.14763901077269148,0.08711331552189261,0.06725390402557574,0.09035567836362102,0.14770375400179514,0.25099848191681007,0.3648956703397439,0.47263310012749127,0.5799068179054077,0.6867929420543994,0.7933904918170085,0.902455338059609,0.9985794953915037,0.9999999999999996,0.9040095459691657,0.8028114675738718,0.7136352995468966,0.6076450072374202,0.49706841231659693,0.388423441314365,0.28014779537891554,0.18808586614812306,0.16397456895325835,0.1582274688943648,0.12115982748961907,0.12103317943907355,0.14755134089335442,0.17482587443867725,0.17308827997543563,0.16895271003886814,0.15672242298319672,0.135144079563696,0.11219659066521182,0.13017650566005612,0.18872639937152957,0.26837422795326527,0.3585364388983132,0.4475772987507738,0.5388925251634302,0.627068528562702,0.7062357940206905,0.7089631437671708,0.6409165995374231,0.545762028497887,0.45011374775471147,0.36192593219145763,0.27457531972890337,0.19173991242996546,0.11548998435116165,0.06879500049981413,0.042514635417304714,0.06901248438980012,0.13363363237386094,0.22827821838964635,0.33411315932911556,0.4419609319058253,0.5482769580717726,0.6515031887393858,0.7542140180678163,0.8394433686859806,0.7998958718758016,0.6993810663245106,0.597382442792231,0.4935753317138838,0.3881257084166947,0.2819443230694869,0.17939157439712305,0.13495790343809766,0.14856918194513558,0.1302726963288401,0.133256169866649,0.17184935312030625,0.2221444671159749,0.25357733910608093,0.26053726521958476,0.27275244312699254,0.3002281874058066,0.2930990524860433,0.2662624436798713,0.2684075231983396,0.3117892704990455,PM
0.7741188389098412,0.7810089931224962,0.783688942189124,0.788128795539524,0.8151750947012213,0.8521173321156545,0.8968825591561349,0.9431061950672586,0.9673612670403071,0.9352053029817642,0.8928129994964324,0.8558447832987921,0.8195211011285237,0.7944247670913762,0.7703907337416778,0.7525259868437257,0.7465401659947721,0.7442600177062675,0.7506504017165567,0.7570731856857797,0.7674688573799442,0.7687666703594651,0.7623795728038025,0.7489641276589285,0.7257666810059866,0.7236578352353482,0.7455491613957586,0.7543203601821471,0.7395554611739095,0.6854871714679667,0.6279098900332112,0.5667748389409728,0.5047825345352153,0.44733376912773476,0.38570575967577886,0.3229430846498496,0.2616672291007108,0.20407913650843018,0.14186151511289052,0.07909094005803541,0.018568435239664116,0.0,0.04959661916408531,0.10693315394897723,0.16856247478973613,0.2313327249325831,0.29410489123437794,0.3560001505504424,0.4134331946606627,0.4751833206355042,0.537953213260421,0.5999736740955703,0.6574265226014944,0.7172276078133679,0.758297751729357,0.7598456115409222,0.7466248962824844,0.7583329326981056,0.777037885329694,0.7888434533564328,0.7980400884697703,0.8282383387301022,0.8691464711593777,0.9173252933150329,0.9589483755133914,0.9417048650317055,0.8974449867667569,0.8556380930107244,0.8219031088201081,0.7977017092346033,0.7682013823631948,0.7588877391595878,0.747108329976663,0.7430950064493331,0.7448775680868935,0.736065270339187,0.7370624598643349,0.7411425401959415,0.7468593612504639,0.7560409812268722,0.752575396914853,0.728176964990757,0.7262134961186861,0.747578190681536,0.7656867168189001,0.7742466580302441,0.7459127281924853,0.6902228301143571,0.6280214640244604,0.5652478974962161,0.5024735508788922,0.43984457737674415,0.38110061363860864,0.3213472656185699,0.2586619284983975,0.1985359566126354,0.14013595074282287,0.08022437137901806,0.05716515126132876,0.09964520850004616,0.160552264677099,0.22331245974104968,0.2851237919515964,0.34254392211615686,0.4043911067193506,0.46715815414082235,0.5286783495109613,0.5861646007401915,0.6480313751298672,0.7063950555967313,0.7625354770933714,0.7802164389213826,0.7697763973775844,0.7648367978534023,0.7722943111420935,0.7760332784515072,0.7853591353105849,0.8005289087299898,0.8381368052513212,0.8874355226391955,0.9300955892076244,0.9423280112581693,0.9050192326406463,0.8641653711208008,0.8291150088820656,0.7993369451588539,0.7742029270845074,0.7432025774948874,0.726850302096121,0.7293787894942716,0.736078737799023,0.7403018314187282,0.7483022189669486,0.7498589085450189,0.747133241124931,0.7333593489197168,0.715922462235822,0.7324041647669992,0.7589475111865791,0.7854689638721726,0.7823970406010876,0.7822279179253027,0.7736341766721531,0.7706811174083468,0.76287227073301,0.7593810003951122,0.7653634938564069,0.7920176987845091,0.8188078953305828,0.8482845493336275,0.8847828067912495,0.9244836034963024,0.9644146923612076,0.9820900738441605,0.9530492203849932,0.9066866579103559,0.8611149858117735,0.8253406336321152,0.8117874842009665,0.8053659154274142,0.7959897722048539,0.8038149568663153,0.8217426950159981,0.8082778313161685,0.7526477958037909,0.6948432562479985,0.6325870744648276,0.5737212393576183,0.5140959585090226,0.451423421249556,0.39858784710915957,0.4195140980173721,0.47600792772511386,0.5382104091407047,0.6003461532283145,0.6578623785033906,0.7181624514606322,0.7737121232892188,0.8033765925665868,0.8026016660216362,0.7966565843019566,0.775659865784398,0.7673124256095847,0.7853739329341078,0.7925492185010288,0.7892619509119931,0.7834305326340116,0.7800919031260167,0.7814047437680387,0.7788004689801629,0.7820956428808779,0.786094218888427,0.8008949540421406,0.8165893540908264,0.8385545443063855,0.8729376403453164,0.9110770191981605,0.9585004014213199,0.9969740472924715,0.9886258038452336,0.9451635633812379,0.8997304973154283,0.8553093713313988,0.8268627288072128,0.8191573674372563,0.8023445150382014,0.798939503721765,0.7900131983007359,0.8075626399463973,0.8112860986705559,0.7655003024443148,0.7075229860345311,0.649245748628686,0.589177023623908,0.5267772604694356,0.4688345143526322,0.4081383552995173,0.3517116839873731,0.3636613751741849,0.4244325008000595,0.48675508871970224,0.544472350054154,0.6045677052981311,0.6572900706295246,0.716365163690289,0.7738213830640766,0.8070208622976662,0.7891967217374976,0.7800381714754021,0.7619447748552173,0.7552305554985099,0.7759984559944331,0.7934309586878878,0.80217576446789,0.7908418542373574,0.7947452615052997,0.7861110082036595,0.777032037550351,0.7710652952724049,0.77855481411536,0.7966824883572536,0.8175440448545617,0.8453296660012899,0.881704701520116,0.9203147465977017,0.9638753152506447,1.0000000000000002,0.99681579171971,0.9591596429956062,0.9125697246803617,0.8675107921182377,0.8309054745409667,0.8152654437770044,0.8118574407120815,0.7967391854668877,PM
0.32330248882352564,0.2704284917333837,0.17956036360343441,0.11133302333196493,0.16105174448061277,0.2543426894793148,0.3561989354528281,0.4405709783593035,0.49038337486536276,0.5645829151122093,0.6570477504037533,0.7508857422834407,0.842064581108537,0.8819142931927435,0.8356447747301079,0.8031513917833513,0.7917075641936573,0.7830658273117681,0.77949170289572,0.7703904626675202,0.7937100234218466,0.812981125401818,0.8149132285437699,0.8064422863338501,0.8090163878468544,0.8017585845979189,0.7800188916386497,0.759442047733009,0.7422043965568026,0.7370412453113868,0.7339178495327054,0.728246449281531,0.7042471106334833,0.6728798561893119,0.6666502343539986,0.7049778335230155,0.7230780172151365,0.720383270323731,0.6734777617247629,0.5831634137018642,0.48124358757487284,0.37881653802997795,0.28617639832547637,0.18359818163867514,0.08808386737243667,0.0,0.00375560502450889,0.08924088766619875,0.18926862572370595,0.2842408029779069,0.3829770834422175,0.48355407001470674,0.5765579032255417,0.6699668091290487,0.7422587319334957,0.7148098496995128,0.6807958785403185,0.6564504047551472,0.6475554651817266,0.6579042058592743,0.6684512539121061,0.6725537130764132,0.6839113015288585,0.6848338512137881,0.6880061117123613,0.699616182166312,0.7007172336645713,0.7004502588510979,0.6916381840094021,0.6911607080071835,0.6908021396131439,0.682580140065816,0.6831420546540801,0.6862371026937772,0.666729216182643,0.6477276084432386,0.6597231615777117,0.6941940606638415,0.7087904421269942,0.718464621065654,0.6660959643857294,0.563970312539662,0.4593653650363172,0.35548410982247614,0.2619371620332376,0.163228697064298,0.08827182380765608,0.10375203615905226,0.19300727222956882,0.2872259052096897,0.38633289982327,0.48455160953609866,0.5778199955326571,0.6692407079522287,0.7476888632736927,0.7412159895863613,0.7127454593671136,0.695656666874167,0.6977884919085913,0.7020330595215758,0.721490246224628,0.7485168359031373,0.760884641955637,0.7486279231587694,0.735580034253283,0.7322419418826618,0.7216766694264769,0.7168666044448297,0.7191285560724241,0.7013627744758417,0.7007179971501465,0.7007288136477587,0.7037093851301721,0.7154511796241647,0.7208678103388455,0.7136492503017422,0.6895365697046243,0.7051300904222,0.7407604560281622,0.7627392163633839,0.7548006070468682,0.6716701529884817,0.5674668641413381,0.4716225676374024,0.3738311740974125,0.27431407394458684,0.18057174126078657,0.10880487242815695,0.1461726506113643,0.2379485319391339,0.3383859079822815,0.4316862770192609,0.534061024951114,0.6266336640600398,0.7202142349233345,0.8153874245609365,0.8921659423504029,0.8756610600485208,0.8049730696313446,0.7228333500705904,0.6312024394632223,0.5628985695582305,0.6139187843171605,0.7123858365824214,0.8000099164303429,0.8546315307024077,0.8224281820823158,0.8063373897120583,0.7812459801081753,0.7498047213369361,0.744612523190137,0.7670015794108891,0.7654052735628918,0.7640025308883929,0.7549707066155849,0.7480387993960727,0.7391638522008743,0.7444716049061118,0.7673382911406872,0.7734452678038779,0.7852326173995983,0.7837804275213456,0.7865472867035828,0.8063813190919293,0.8030677150847012,0.7952495810643341,0.7669633837080165,0.7439973138967915,0.7390999294529537,0.7479293668088256,0.7710243157014398,0.8148421619690391,0.8558024780720466,0.8120822636723268,0.7228116953484989,0.6289996656078451,0.5349910027075118,0.4580305308699888,0.49967809345761927,0.5933321255154596,0.6904075856903771,0.7799960648403976,0.8358630295375837,0.7979276024964368,0.7567635589249484,0.7387117676063082,0.7068274378530996,0.7070549280882044,0.7343077043955533,0.7382177217971164,0.7337257209222541,0.7386032113776713,0.7388705672462974,0.7388705672462952,0.7388977156439696,0.7430715620396251,0.747425999063267,0.7294616590352425,0.7287707619068331,0.7327121634759148,0.7186152271908219,0.7147098020734459,0.7139464097744921,0.7146761802989139,0.7094352434977336,0.7241309692997211,0.7662866947217406,0.826387353686115,0.8513704222638703,0.7909418988281951,0.7019068322261401,0.604383776466499,0.49993312359154185,0.4110512363963603,0.43999010054215537,0.5381764610977049,0.6381191313851993,0.7296119096384213,0.8077582102420511,0.8175716149903551,0.775395405697946,0.7577295918875429,0.730279004664292,0.7266354980484167,0.7600493527863166,0.7836459020594102,0.789146484130848,0.7958515249411913,0.7858699422725737,0.8043164671771841,0.8153747104285944,0.8349269744817831,0.852833552398371,0.8570078134669417,0.8615294447919299,0.862369822956385,0.8566224551219483,0.8376881519398647,0.8243097528012777,0.8396190964955634,0.8411109522889983,0.8478973180259697,0.8626333339676533,0.9004812601167322,0.9647747053129891,1.0,0.9431799562139025,0.8481331292278105,0.7553709337056089,0.662363259378969,0.607816035517514,0.679870556445834,0.7841100194559094,0.8824057539211321,0.9484642280033184,PM
0.05508832838684319,0.08292709387729624,0.11251025905534706,0.11404631444710756,0.14344075953549618,0.19082202600007703,0.24197101480291672,0.2963310033259322,0.3470662148467628,0.4005844263986972,0.45294953729643794,0.5046303787059331,0.5593921820752189,0.6115111816955682,0.6634345744272226,0.7182900155377977,0.7724790332769723,0.8230185683421986,0.8756585045836719,0.8889073858699496,0.8404608348992945,0.788282592859829,0.7364328454636296,0.6820151275743415,0.6313095309625104,0.5779914386048931,0.5271038231397541,0.47401117141482085,0.42286276059015837,0.37031561162815974,0.31964071624812485,0.268077420149493,0.2198788267753834,0.17811001824183958,0.16093171098592352,0.14950877172866095,0.11518443402095635,0.09405650687551215,0.08406017665622045,0.10705447133983759,0.12692411444564056,0.10362651558744329,0.06741333189188858,0.03158906528588712,0.0,0.0018258866465139523,0.03420010717093813,0.07236847250118827,0.11429453476989482,0.14935242495205403,0.16543896776542244,0.17881429727639353,0.1932277060280666,0.18769043156778298,0.1698546110259197,0.16131270569166034,0.16836404976335062,0.18093183396609325,0.18874164572065555,0.18777797880747304,0.19187415502649552,0.19383521432997852,0.1940145761005153,0.18440772262767247,0.18411755963901044,0.17421278310691668,0.13668839316901304,0.1406706859447615,0.1867209532805102,0.24108954304255492,0.29603150057757943,0.35032931215509466,0.4008885853231131,0.45481623881541855,0.507165438039158,0.5588656597278018,0.6136975825923822,0.6682386788833904,0.7189781325516919,0.7725374614643469,0.826705435469646,0.8758550195585736,0.8897645464807759,0.845881645515837,0.7922939359801046,0.7417320360508272,0.6978934010792789,0.6467421862426123,0.596008433930929,0.5419577450691376,0.4913307986242196,0.43778666106612574,0.38664571064266584,0.3336591235531071,0.27901973360894583,0.22860671774154884,0.18438376972776016,0.15642283126950884,0.13238415174865703,0.09875655206632938,0.060947033053760036,0.019737564004985164,9.223286574600031e-05,0.024516528625540546,0.06496754475294031,0.1050100718810918,0.14395166909394652,0.17738346177704534,0.1956741430352208,0.19888078371020212,0.182041024020261,0.17605419364981467,0.17862385246007018,0.18124836024082214,0.1890942925519138,0.19224848709236464,0.1906207476676247,0.19785044362701876,0.203913965518157,0.19787950891311867,0.19216169511423808,0.18893775188545658,0.19363424456930423,0.19256784479210087,0.1924740679729905,0.19248823998612974,0.19440686722563927,0.2059064050502426,0.20855792653307104,0.19848158964687213,0.18518934764038408,0.1515300847816632,0.134947080248231,0.16947303018017768,0.2193268443035511,0.27303242141533557,0.32130159294278304,0.36582809389300597,0.4199810885250629,0.47222756593822834,0.5240259385056493,0.578726724291026,0.6302116394348035,0.6827999559859955,0.7377050264502517,0.7926493226845271,0.8475432001588236,0.8922203948367228,0.8725830930830133,0.8232356674436315,0.7718996544853672,0.7181304970557222,0.6675641533870388,0.6132545527805474,0.5604477887718248,0.5092259308258397,0.4580428601283232,0.4147927997440929,0.373071899719044,0.3256978650154555,0.27509722433738915,0.22593366632320377,0.18176835015288617,0.1489495091044667,0.12280046036301573,0.09162356124584659,0.05610045311785594,0.02556712043188336,0.04287363269757216,0.081970101371582,0.11463020726142592,0.14414851491118386,0.1720399115833292,0.20764691499634425,0.2527395862517846,0.3049063724228781,0.35913261957190834,0.4096591227743839,0.46165975870139075,0.5128399331462464,0.5670064925509585,0.6176012780274586,0.6714280929215085,0.7239382317747182,0.7754613696028668,0.8281968620633827,0.8777515983737617,0.9262237889035511,0.9753302039068671,0.9998428903178332,0.9642930153320727,0.9133047769557444,0.8589474308064616,0.8082164614331023,0.7546383119571002,0.6998935610294478,0.6486271256962467,0.5957877818091896,0.5410104575522566,0.4894982324321585,0.43695324557715065,0.3835771767593298,0.33274678117774303,0.2782741077662999,0.22867407210986646,0.2080197809427372,0.21519476239159996,0.22596838084101745,0.22910952327279743,0.21527473354618454,0.20840819670343846,0.20688713554827698,0.2074512542176996,0.2116292309603468,0.2091439370744287,0.20943686493368707,0.21531526906355614,0.2187157263524142,0.21603840151927634,0.2083605385917804,0.20682737066332446,0.20366710526122767,0.1962833523776586,0.19715650503300386,0.19320873735924637,0.20503839717618189,0.21769736284370855,0.21206510393304534,0.19412202312995364,0.16381025944805172,0.126090778519518,0.08399706789949479,0.04358323421036514,0.028914871924870744,0.06196946766317124,0.10304422372463651,0.13803506461751558,0.1639055890334451,0.18997809220940776,0.23329217042771921,0.28254497222110186,0.3332959939228851,0.38577149324171456,0.43701129762752944,0.489614891982897,0.5407332247861493,0.5937199543057431,0.6486411458306417,0.7035846442056207,0.7580045797211924,0.8086190992511683,0.8618080082491636,0.911021613145275,0.9591389095405908,1.0,PM
0.4878317004369517,0.3987230485176758,0.3042474271329041,0.23300379165872953,0.19642452837275615,0.1884168484206321,0.21462012357158988,0.23440433164405206,0.23574654606849932,0.23817799041475873,0.22872695594697467,0.19226170452249813,0.18195680641059075,0.21462461989770754,0.2382576544791004,0.29044730948837505,0.40221908906463555,0.519429165323783,0.6328048520096423,0.7446302470029387,0.7912891965341335,0.6964059242098826,0.5840213294364787,0.46350669325662675,0.3421396126766616,0.22741339361754753,0.11130479065668575,0.0024048536802658838,0.0,0.10909778894486011,0.2306486493394868,0.3510627974348821,0.41311446787856076,0.3347814515036289,0.2431439464315479,0.16968934772375643,0.13182886498800372,0.11869773640061121,0.12914781424428878,0.17842014676915285,0.25954552102434225,0.3534604889317918,0.4471317166413289,0.5435780175674167,0.6177951981691965,0.5731385589836997,0.47530401033872427,0.3804496523336909,0.2940377798982283,0.22186211204536144,0.2019928043078396,0.22565441969407618,0.24872789782948268,0.24680888195288442,0.23171091991070392,0.2160575965860556,0.1811657602001111,0.14338784925777293,0.1579476474226995,0.19611710170146424,0.21079666853580914,0.2838583844822684,0.3968422309538051,0.5093109310030683,0.6251660828382366,0.7326410597345199,0.7537336619602237,0.6463019311281981,0.5305380325976754,0.4154389523096589,0.2955471850212146,0.19224040445378976,0.18716728755471523,0.2937017277919891,0.4083511359926708,0.42306707819331835,0.3269150895519852,0.22383668578023097,0.1471609749326892,0.1080812560160389,0.09693992615344738,0.11134159803217947,0.1724067066794337,0.251168686951728,0.3396053177366489,0.43789378750683805,0.5405547083110045,0.6337360614185015,0.6453741094418135,0.5560389803205663,0.4548058961730346,0.3523813903097801,0.26789692147586686,0.20636186453833738,0.18265123639858882,0.20857030609390037,0.22602998392961138,0.22467076244712358,0.21336271187833167,0.20209953207744458,0.17529228231254068,0.14142035285109644,0.1619334682803355,0.1937997108723366,0.22124754113107437,0.2986332821529818,0.4070120779831903,0.5235197476314501,0.6365906918970883,0.7194333012608956,0.657750379779128,0.537707102453594,0.4203629805749569,0.306630229968482,0.1864712120221672,0.09766587980968744,0.13995702244310126,0.25064706752032007,0.37165005281780217,0.47034194637943805,0.4271360523654353,0.31567015760553985,0.22427054045729844,0.16181859890026518,0.13914278516259837,0.13632945967047916,0.164777239441934,0.170197532185979,0.17165686329638064,0.20054300124568347,0.27227940258042627,0.3697837883062942,0.4753578627748072,0.5875904311304756,0.7003078892794863,0.8170954393819361,0.8890261121145067,0.8186287621545609,0.7041025847167413,0.6936122088314371,0.7994761219989688,0.9138888283363185,1.0000000000000002,0.9539125265434716,0.8597496123703785,0.7519085843969393,0.6381411660113583,0.5258634028806435,0.409217675474949,0.3022086245549145,0.24210067519745437,0.21968208807385237,0.18182470309967447,0.2005012416080485,0.23711018559835684,0.2512999035698267,0.26034266673847895,0.26810420713102645,0.26739363600216204,0.246883923615129,0.23240125304373094,0.27895541972983406,0.3604639414185551,0.4557308583049269,0.5548911054229959,0.6601704177172076,0.7291330844906561,0.6955000183640003,0.5987141590182408,0.4992387185251721,0.40187206396720376,0.31067655248352044,0.2243675030409551,0.15358727100334146,0.13357488790808225,0.1429808065913909,0.18416879270477482,0.2642264567440804,0.36232153725669813,0.4718528750907309,0.5925221668880225,0.7080497600918345,0.8200211463209686,0.8899938596273367,0.8253825093554623,0.7103178959212653,0.6888765941285582,0.7976669970567476,0.9102648919375602,0.9863700819313916,0.9292316924848121,0.831377410371015,0.7289706353632381,0.6180263213022579,0.5045873388770794,0.38993314023384884,0.2849042061818581,0.23904773795938605,0.20870496491508606,0.19168424199253264,0.22966915309175895,0.25431671875003325,0.27021937926074435,0.2848125541480415,0.2884863758815366,0.26869039573883113,0.2422898168926102,0.26364418128444567,0.34348130939440913,0.43582944035702975,0.5332324001845132,0.6286625230355842,0.691005981757612,0.6495025730738633,0.5592900527213123,0.46218007784932413,0.3621400294389836,0.27097928372628766,0.1954056182915116,0.15685353408648162,0.16329939428172557,0.198694949513752,0.27808797008951447,0.3730153201837616,0.47995771782831054,0.5904819559048915,0.7018300696333568,0.7973466751954288,0.7761266634027029,0.6665311279754207,0.6548939206167572,0.7587440600016995,0.8742204960224369,0.9678399484557032,0.9484778374305611,0.8507165004636537,0.744052572767212,0.6293104124792552,0.515797700638222,0.40034203684003633,0.3048948179754405,0.27135548147685795,0.23625226990268033,0.23053391205846974,0.2637527462748779,0.2779748155339494,0.2784216017071277,0.2731089505539652,0.2613418106587482,0.24573906782511457,0.2736558782903089,0.34558228884284214,0.4391489437801288,0.5428185355737154,0.6313547073035652,PM
0.32330248882352564,0.2704284917333837,0.17956036360343441,0.11133302333196493,0.16105174448061277,0.2543426894793148,0.3561989354528281,0.4405709783593035,0.49038337486536276,0.5645829151122093,0.6570477504037533,0.7508857422834407,0.842064581108537,0.8819142931927435,0.8356447747301079,0.8031513917833513,0.7917075641936573,0.7830658273117681,0.77949170289572,0.7703904626675202,0.7937100234218466,0.812981125401818,0.8149132285437699,0.8064422863338501,0.8090163878468544,0.8017585845979189,0.7800188916386497,0.759442047733009,0.7422043965568026,0.7370412453113868,0.7339178495327054,0.728246449281531,0.7042471106334833,0.6728798561893119,0.6666502343539986,0.7049778335230155,0.7230780172151365,0.720383270323731,0.6734777617247629,0.5831634137018642,0.48124358757487284,0.37881653802997795,0.28617639832547637,0.18359818163867514,0.08808386737243667,0.0,0.00375560502450889,0.08924088766619875,0.18926862572370595,0.2842408029779069,0.3829770834422175,0.48355407001470674,0.5765579032255417,0.6699668091290487,0.7422587319334957,0.7148098496995128,0.6807958785403185,0.6564504047551472,0.6475554651817266,0.6579042058592743,0.6684512539121061,0.6725537130764132,0.6839113015288585,0.6848338512137881,0.6880061117123613,0.699616182166312,0.7007172336645713,0.7004502588510979,0.6916381840094021,0.6911607080071835,0.6908021396131439,0.682580140065816,0.6831420546540801,0.6862371026937772,0.666729216182643,0.6477276084432386,0.6597231615777117,0.6941940606638415,0.7087904421269942,0.718464621065654,0.6660959643857294,0.563970312539662,0.4593653650363172,0.35548410982247614,0.2619371620332376,0.163228697064298,0.08827182380765608,0.10375203615905226,0.19300727222956882,0.2872259052096897,0.38633289982327,0.48455160953609866,0.5778199955326571,0.6692407079522287,0.7476888632736927,0.7412159895863613,0.7127454593671136,0.695656666874167,0.6977884919085913,0.7020330595215758,0.721490246224628,0.7485168359031373,0.760884641955637,0.7486279231587694,0.735580034253283,0.7322419418826618,0.7216766694264769,0.7168666044448297,0.7191285560724241,0.7013627744758417,0.7007179971501465,0.7007288136477587,0.7037093851301721,0.7154511796241647,0.7208678103388455,0.7136492503017422,0.6895365697046243,0.7051300904222,0.7407604560281622,0.7627392163633839,0.7548006070468682,0.6716701529884817,0.5674668641413381,0.4716225676374024,0.3738311740974125,0.27431407394458684,0.18057174126078657,0.10880487242815695,0.1461726506113643,0.2379485319391339,0.3383859079822815,0.4316862770192609,0.534061024951114,0.6266336640600398,0.7202142349233345,0.8153874245609365,0.8921659423504029,0.8756610600485208,0.8049730696313446,0.7228333500705904,0.6312024394632223,0.5628985695582305,0.6139187843171605,0.7123858365824214,0.8000099164303429,0.8546315307024077,0.8224281820823158,0.8063373897120583,0.7812459801081753,0.7498047213369361,0.744612523190137,0.7670015794108891,0.7654052735628918,0.7640025308883929,0.7549707066155849,0.7480387993960727,0.7391638522008743,0.7444716049061118,0.7673382911406872,0.7734452678038779,0.7852326173995983,0.7837804275213456,0.7865472867035828,0.8063813190919293,0.8030677150847012,0.7952495810643341,0.7669633837080165,0.7439973138967915,0.7390999294529537,0.7479293668088256,0.7710243157014398,0.8148421619690391,0.8558024780720466,0.8120822636723268,0.7228116953484989,0.6289996656078451,0.5349910027075118,0.4580305308699888,0.49967809345761927,0.5933321255154596,0.6904075856903771,0.7799960648403976,0.8358630295375837,0.7979276024964368,0.7567635589249484,0.7387117676063082,0.7068274378530996,0.7070549280882044,0.7343077043955533,0.7382177217971164,0.7337257209222541,0.7386032113776713,0.7388705672462974,0.7388705672462952,0.7388977156439696,0.7430715620396251,0.747425999063267,0.7294616590352425,0.7287707619068331,0.7327121634759148,0.7186152271908219,0.7147098020734459,0.7139464097744921,0.7146761802989139,0.7094352434977336,0.7241309692997211,0.7662866947217406,0.826387353686115,0.8513704222638703,0.7909418988281951,0.7019068322261401,0.604383776466499,0.49993312359154185,0.4110512363963603,0.43999010054215537,0.5381764610977049,0.6381191313851993,0.7296119096384213,0.8077582102420511,0.8175716149903551,0.775395405697946,0.7577295918875429,0.730279004664292,0.7266354980484167,0.7600493527863166,0.7836459020594102,0.789146484130848,0.7958515249411913,0.7858699422725737,0.8043164671771841,0.8153747104285944,0.8349269744817831,0.852833552398371,0.8570078134669417,0.8615294447919299,0.862369822956385,0.8566224551219483,0.8376881519398647,0.8243097528012777,0.8396190964955634,0.8411109522889983,0.8478973180259697,0.8626333339676533,0.9004812601167322,0.9647747053129891,1.0,0.9431799562139025,0.8481331292278105,0.7553709337056089,0.662363259378969,0.607816035517514,0.679870556445834,0.7841100194559094,0.8824057539211321,0.9484642280033184,PM
0.06682564300260618,0.15212665899144273,0.2567015688433254,0.3365322414879368,0.41617912881505803,0.4863410818633276,0.5316606142243385,0.5363887804197511,0.4940021984524763,0.5685146221731645,0.6729730793227566,0.6949693057290016,0.6309250407584677,0.5869409738517515,0.5581429494546946,0.5518613773492578,0.5548474984955587,0.5511358294409212,0.5986125705770347,0.6590929148547837,0.7248866905044968,0.759762881131544,0.7203428446024778,0.6884326919895098,0.6702791725547828,0.6619011136514019,0.6657267455062028,0.6731142566471782,0.6832678139263426,0.6939455472141125,0.6774136476706745,0.5866275030626382,0.48188292648723996,0.38353759657464526,0.27661618284851297,0.17428431374752096,0.07479959504848899,0.0,0.04077129675823188,0.14216888110970993,0.24117668825351224,0.3488278111354428,0.4562752177907585,0.5549094017991156,0.6548572308154217,0.6671863792235846,0.5992102040011966,0.5525233106455247,0.5345897792177792,0.539888362331264,0.5492958756129496,0.5875004621971449,0.6471338411401888,0.7136553528886838,0.7208088831926385,0.6947429790727071,0.6727006925126506,0.6712789138605917,0.6766977634019375,0.6722356935388292,0.6731807989913126,0.6866639226892932,0.6919601783446443,0.6938939742872154,0.6963529132279489,0.7074395823120505,0.7193423612008543,0.7320900703001447,0.7136749864747789,0.6330661731514944,0.5351428370779345,0.43025061972281464,0.321946703007028,0.21370213953071393,0.11219903814701038,0.06210204537865027,0.12320651076222355,0.22297188838677484,0.3310227346493917,0.43498327657883373,0.5346034601613918,0.6424448891149512,0.7482087393060546,0.7792181101546247,0.7040612891924045,0.6402262147741076,0.5974873979053803,0.5836031915917399,0.5982082059271696,0.5967026134245823,0.632818743771844,0.6944024529992658,0.7349103562954662,0.7050727780953752,0.681714534843143,0.670538131667477,0.6664943673233639,0.6807612476275273,0.7029194689658969,0.7087303538925349,0.641244940495286,0.5426550744302183,0.444203241732845,0.33690506434705236,0.2339499842461854,0.134881950660664,0.06545861608163239,0.11517268982852213,0.212598231669187,0.3131316541969835,0.3940348256612647,0.4700538059974404,0.5726735874688749,0.6434974347816249,0.6109591519451301,0.5685913737105643,0.5363710566598989,0.5408919250829305,0.5502354934046503,0.5872854202907751,0.6456419863140272,0.7052093230893246,0.7352139663983683,0.7099867376498352,0.6867793353557774,0.6670852706262957,0.6733113894994487,0.681496371362178,0.6941060200035216,0.6870901267773055,0.699295333231643,0.6741134518406788,0.5819840009735904,0.5196888903162806,0.5901509044320621,0.6912796654744655,0.7861195930866329,0.8084746326060142,0.7504124555187408,0.7321054187289344,0.7299018292615909,0.7157505781366158,0.7103959434800711,0.7302020906619808,0.7503179416213723,0.7857245784926179,0.7749164285209127,0.7183176641760229,0.6576288531796419,0.6037271681234682,0.5835837902082432,0.597314827267954,0.6335568874724231,0.6975097421171865,0.7877305167985886,0.8666364407788492,0.8592925268850773,0.7699971331929523,0.6624462361723724,0.5544444792565373,0.4814745741332076,0.543106585245341,0.641734341586218,0.7353234672405731,0.7995267238719004,0.7752119236259918,0.7434615621729983,0.7170044791815942,0.7052782726633811,0.7139995799596841,0.727071484701515,0.7595665239615084,0.7778943402012857,0.737123231398845,0.6729605593101828,0.6419311718190781,0.6363800648645097,0.6299732440736103,0.6645493747955022,0.7197461408433603,0.8025497140877014,0.9064851518345436,0.9955525943574166,1.0,0.9094865903408667,0.8106936189463534,0.7031145707431774,0.6036233098669799,0.6049760255951417,0.696894046275462,0.7879562780320217,0.8094672376452086,0.7749886950515856,0.7555703968664118,0.7455526343463044,0.7382313301296883,0.73200829528382,0.7301835061027924,0.7204190314583929,0.7064304093228628,0.7103145351537319,0.7211927772484228,0.7117377447733757,0.7226834988628665,0.7421083290528188,0.7752289847800449,0.7669304990143178,0.7097058211169345,0.6414875873003871,0.5936012967536684,0.5803906457645835,0.582699029093332,0.6221325555628057,0.6974763874304659,0.7892424951312602,0.8845201867156831,0.9469089111623061,0.8963542857692754,0.7992473396481516,0.6917277651511635,0.5834020894913619,0.4750757803176957,0.36809220478094695,0.3224871057190357,0.4105415394541412,0.5123585199992307,0.6128683511432111,0.7102696486614515,0.7908067962382392,0.7839530332479274,0.7344766022566209,0.7154537228949178,0.7075294136512418,0.7028382424129545,0.7053053944975294,0.7249518200019338,0.7484100891650747,0.7941450029322876,0.8152201325976409,0.7677189545903684,0.7018607040415503,0.6361505836751689,0.5990307132495585,0.613787779417271,0.6149511143974102,0.6327691846968984,0.6878335178192665,0.7737516241451297,0.8665125090010397,0.948958891320995,0.9305726929316935,0.8314907244289325,0.7332469031307718,0.6264544713394171,0.5262725118097178,PM
