0,1,2,3,4,5,6,7,8,9,10,11,12,13,14,15,16,17,18,19,20,21,22,23,24,25,26,27,28,29,30,31,32,33,34,35,36,37,38,39,40,41,42,43,44,45,46,47,48,49,50,51,52,53,54,55,56,57,58,59,60,61,62,63,64,65,66,67,68,69,70,71,72,73,74,75,76,77,78,79,80,81,82,83,84,85,86,87,88,89,90,91,92,93,94,95,96,97,98,99,100,101,102,103,104,105,106,107,108,109,110,111,112,113,114,115,116,117,118,119,120,121,122,123,124,125,126,127,128,129,130,131,132,133,134,135,136,137,138,139,140,141,142,143,144,145,146,147,148,149,150,151,152,153,154,155,156,157,158,159,160,161,162,163,164,165,166,167,168,169,170,171,172,173,174,175,176,177,178,179,180,181,182,183,184,185,186,187,188,189,190,191,192,193,194,195,196,197,198,199,200,201,202,203,204,205,206,207,208,209,210,211,212,213,214,215,216,217,218,219,220,221,222,223,224,225,226,227,228,229,230,231,232,233,234,235,236,237,238,239,240,241,242,243,244,245,246,247,248,249,250,251,252,253,254,Target
0.21838340807176126,0.22320726543584346,0.25105990248631116,0.2936638424688962,0.3359428856736837,0.36163647079691685,0.3958245452565834,0.4411607785356282,0.4866567861422846,0.5312774107493816,0.562050130375038,0.5423630509259652,0.5036364358664338,0.4634163005101224,0.4265943094332081,0.3898153927277408,0.35683480061989137,0.3293702883493228,0.3045948756895571,0.2786170494330322,0.240910981833786,0.2115462310228413,0.1766076074208045,0.15512484888330658,0.1495245802448557,0.15557863937338423,0.19002856350835984,0.22607791102222752,0.2579302443139244,0.27329827831489073,0.25391602764746257,0.25867514382939527,0.2969412889518175,0.32603417916040134,0.3532990258246991,0.36032421716042196,0.33544182525645994,0.2910081960064501,0.24551216547223986,0.20004000412531342,0.1609431350118824,0.15006874640566448,0.14950200727962337,0.15617054674037978,0.1691131613846848,0.194839542606295,0.22871220190108477,0.25405119697407486,0.29068095350502166,0.3186669179306456,0.34456888560435917,0.3575191434709941,0.36053964642539893,0.3496675199941168,0.3237084901985563,0.2934347533104711,0.2663487273660554,0.27918707731232506,0.31250129889778977,0.3437001210119044,0.3595079592867392,0.36253505739728253,0.3814377059899967,0.3979003259962841,0.4092639311037176,0.413805380335724,0.4139531040721032,0.42035641156469206,0.4189308970973571,0.3975209745690613,0.3696723100614645,0.3387666998490295,0.31015312348876933,0.28944229316434145,0.2637582733592845,0.24338151192859114,0.24074388400021074,0.23190472277895924,0.23449519199389024,0.23143018253154946,0.22054181709241494,0.21462775840900594,0.20059343869863966,0.1998983639275691,0.20049040978776134,0.1917946441124445,0.17516878394263657,0.16350517708835866,0.1512967500686575,0.13887074437839297,0.12684339023396962,0.11235135437716925,0.09487585459308501,0.08238402086064012,0.09432637602134153,0.13271988766847187,0.16869524168306627,0.19527812075716233,0.21520243339372946,0.22691256677754001,0.24170722439906456,0.2715587656373615,0.31356237549701405,0.3590505862359399,0.4045442786573332,0.4478962419837096,0.48386855000093854,0.5196760483528184,0.5556461664956673,0.5860102115071482,0.6135977865193589,0.6453015723131359,0.6689092673681336,0.6982687092248789,0.7334070917199624,0.7636802756086736,0.7595494757156,0.737550411147565,0.72481894539703,0.7240638444133589,0.7114586587993261,0.6873184837185868,0.682623923770826,0.714471563520771,0.7513883090722029,0.7914908017747924,0.8306362308044908,0.8760607262186388,0.9215572578113949,0.9670172572568756,1.0,0.9712435951089637,0.9350358336061286,0.896450469601433,0.8595540081719268,0.828124743501367,0.7998936423787102,0.7804977994056999,0.769746004482144,0.7603813032027928,0.764906805148275,0.7706230614515865,0.7789340874432833,0.7875098700680385,0.7935385267158459,0.8026338263906947,0.8159800200238805,0.8273739277122085,0.8378847721253746,0.8375789059991594,0.8202226543104638,0.7971061347794226,0.7667671487304819,0.7494952000442896,0.7333814873372488,0.6977333683861091,0.6696316366654491,0.6518992726402781,0.6183495041549545,0.5810984309059912,0.5370128125414559,0.500558540162477,0.45672805708102127,0.41887359068141117,0.3819211063400314,0.347690548427142,0.3142764503934983,0.2868146976245116,0.26198060271460455,0.24874319415216561,0.24151309567268764,0.241363819677888,0.24139921241061568,0.24622875592872995,0.25277793952821304,0.25288722735150326,0.25738507330461147,0.2642330147964478,0.2643600844076297,0.26438119828286366,0.26843553120996466,0.2762228406891547,0.2850472046792527,0.2874628014950349,0.2937866692617257,0.3003036686311167,0.313204684514528,0.33399780492597086,0.3576295154966562,0.3755132219239894,0.35872542899568294,0.3359979145331189,0.313370151521295,0.29536758123419116,0.28749303967289985,0.28171430633511396,0.25430112389561765,0.23310449475838446,0.2474221824752172,0.2884545472907407,0.33378634290037756,0.37220934272372386,0.41345446904920324,0.4589265203072852,0.5042989093268129,0.5422510257090225,0.5498682777529489,0.5132578353788209,0.47301919809032245,0.43461592894753576,0.4006644476472192,0.37095991375873005,0.3469602558706293,0.32633583359399876,0.31455085730683496,0.3103746735226931,0.3103526138671173,0.31035831152275484,0.31277373506099226,0.32375835624106375,0.3336574755099342,0.34394844109378964,0.35534930871233894,0.3705221298436898,0.38318923821259143,0.3784663109484325,0.3552460815174685,0.325846334272629,0.29924910159020324,0.27639027046731757,0.25104750865025816,0.23250297116321073,0.21986616004634763,0.21317580667698244,0.1984528614350296,0.18085661007578024,0.16773927048410608,0.15298494521270123,0.13720102708806015,0.11316212771369871,0.09658086845320146,0.09783911065949669,0.1158943955721865,0.13670210789941994,0.15731897453370203,0.14345714716388147,0.12759372728589313,0.10843560299216848,0.0894589237556469,0.07179556930488529,0.05926186955849322,0.04418098209101884,0.028168443981556823,0.007488908598032973,0.0,PM
0.6870897899803969,0.7089048563680063,0.7092733773407067,0.717499474024681,0.7410113083106662,0.7222779403107165,0.7093477892279596,0.7092860973214457,0.7182165025201837,0.7412337250083834,0.7417970595744485,0.7613136429029046,0.7745750436134733,0.7988466904673368,0.8347211104280214,0.8510300800998243,0.9000915930148379,0.9507783999083887,0.9785604022432697,1.0,0.9771777612646941,0.9401198658837231,0.9089029187660937,0.8671469892656472,0.824378524038675,0.781874242526662,0.7456040187203472,0.7416392073496159,0.7416373665588729,0.7412266642998757,0.7181098495986156,0.7113121329511927,0.7380370539985917,0.7416373665588845,0.7416373665588889,0.7416327455393636,0.735097645928871,0.7102869396269789,0.7098539838776263,0.732355090761061,0.7416300541763556,0.7416375315953188,0.7431915095543449,0.7690209219266837,0.7679239670038402,0.7440512895555393,0.7680925706812207,0.77400765229185,0.7737814756138333,0.7533638908811131,0.7418079377799538,0.7601437783347551,0.8045798433814335,0.8126484050456879,0.8384577493548377,0.8597220381773596,0.871122470364539,0.8705774424041071,0.8413251410461067,0.786063219921628,0.7561932455824953,0.7174264859975059,0.7092701973456643,0.7092560614717716,0.6995336309466111,0.6769054934266228,0.6519311206269274,0.6567500358462421,0.6766818983560361,0.6769404948180204,0.6875705317793077,0.7290521002811445,0.7681546914578465,0.7826748990412913,0.7785412206533238,0.7160609205501878,0.6468397544898608,0.5791311762291294,0.4950943732741484,0.4349733513411076,0.357594728329925,0.27333873323482294,0.21210076167118608,0.1561703548037947,0.10934202184661856,0.04161583333342822,0.031206400311745597,0.06401604568880348,0.13248957607554424,0.19719690361911013,0.2508071139812049,0.2813935022896148,0.3410914520861619,0.39758958679288536,0.44053270748317885,0.49841900439211617,0.5569444590504089,0.5996907678666954,0.6386832149273154,0.6462637079981279,0.6724773617725637,0.6768900920758174,0.6768901936366891,0.6768901936366927,0.6768901936366944,0.676890193636698,0.6772026522188916,0.6980802641923125,0.7142598967844265,0.7343172533055347,0.7104910384183807,0.7232581183578208,0.7655515786239562,0.8077136761280101,0.838285849306021,0.8603240334026774,0.9025022420716144,0.9343078398079294,0.9355846273710489,0.9063863710394608,0.855426804576882,0.8275996775065266,0.7806090673592427,0.7284681727283706,0.7098884002290733,0.7316173435969011,0.7264808647937411,0.6793041166333635,0.6783393840595835,0.7039667360502122,0.7092645418044263,0.715736762119735,0.7332446413125417,0.710066377264285,0.7067587467061411,0.6735549434036265,0.6312064603880749,0.6122829977599258,0.6121330169688726,0.5998935839506929,0.5792971576167742,0.5487330077473969,0.5166289411009126,0.49616992985806174,0.48925323352927563,0.5144751702858672,0.5236523209305144,0.5469669616812887,0.5411190010545308,0.5174361843276012,0.5416691669654012,0.5491758276421042,0.575453462406383,0.5820896430925471,0.6092377578473656,0.617242962584549,0.6685607078032865,0.7051161649083788,0.6795534258611466,0.6453453498709063,0.6332748854569274,0.6118621260212844,0.571596066392436,0.5459204473438275,0.5192784471080651,0.5150242163777348,0.5150222994163407,0.516494714562425,0.5400757345386848,0.5185595905169516,0.5150239624755759,0.5153758567827307,0.5381281489674876,0.5810368464950981,0.6360758478565245,0.6710916022076985,0.6995104495487583,0.6537146129413092,0.576343441758393,0.5187733275751008,0.43630881855584747,0.35374952584506847,0.29583317266974785,0.2281815452730367,0.1633771010112257,0.10514272229957022,0.03691991325587196,0.0,0.017807447306184443,0.07383694039730049,0.13407857424445524,0.17670723658515985,0.21970021443918775,0.28181601916386256,0.33532611003770896,0.3633796281744779,0.41022066378546373,0.46288814109133014,0.5128171186788748,0.5469717549399142,0.5473989073133971,0.5547711075246653,0.5792622356442294,0.5797694342533948,0.5798388154058607,0.5914956538929834,0.6074051209378606,0.5814869567769003,0.5797726715060989,0.5864635169151322,0.6116108775122377,0.6209523374379939,0.6441608485179993,0.6556013791966029,0.7035742703483647,0.7556289894191952,0.7966310240431076,0.8064482725543121,0.8206665139360299,0.867717860899277,0.8455921986229145,0.8092547612361543,0.7669096242324862,0.718579205298937,0.6812865381681226,0.6528261494256933,0.6445151367713446,0.6296845354673035,0.6029402857998365,0.5803411098483284,0.5671281083055231,0.5475561768069408,0.5473958477922958,0.5451824481461074,0.5203774292100247,0.5437015823946858,0.5473962032553459,0.5490725254337869,0.5749238141914326,0.5594048319820608,0.554951222946718,0.579266858892014,0.5742573115665364,0.548771631683513,0.5499670166049802,0.5766257946997397,0.5563950554020005,0.5571907394281475,0.5551155581392626,0.5654281537390116,0.5498062669389867,0.5752246265445962,0.5909600885251685,0.6314961783710507,0.6445061464063535,PM
0.22362213624534055,0.1871902343690337,0.15493148093218378,0.10645595880819236,0.06594268966557237,0.046306179027417294,0.058709123022418375,0.08526768118758721,0.11201698505776836,0.13973071437381623,0.17261852459496518,0.19350456111423675,0.19676532275724412,0.21360464296092907,0.21187687888374995,0.195774806624764,0.18784015867569437,0.17985994433119457,0.2247610423380646,0.2967419697988736,0.36140785499704764,0.43679461155401844,0.5089000930823699,0.5765864497677846,0.6563326209248759,0.7217402208599895,0.7963918469044056,0.8768191909992162,0.954931952248613,0.9999999999999996,0.9858125601157197,0.9221276855126717,0.8528678435807548,0.7734134958728247,0.7096885324568061,0.6571970692207039,0.5949937215072958,0.5147884165991283,0.4410967203957039,0.3748181505430712,0.2947684596840152,0.21452295652295872,0.1480876340521582,0.13725717502257506,0.18803703798312066,0.23314163353814354,0.25405652508128407,0.26906841496409184,0.2952924244206514,0.3194510949906251,0.3290881056465702,0.35929323794228196,0.4107277539347556,0.4637357241895992,0.504318062534574,0.5121226936044483,0.48132493577287105,0.4326369032207307,0.39074039051736165,0.34543006287994205,0.3041083101326083,0.2719701280605076,0.2617802994088385,0.2788132755412094,0.2804525880136528,0.28035846739748127,0.2709580151239348,0.25820537623098616,0.23375393762861973,0.19204373035753752,0.14336934620535935,0.10849087293321391,0.07639691676796723,0.078118997743299,0.11566236219207227,0.15109192182158848,0.1833967487001762,0.19658082498644314,0.213511673982981,0.21641157546032952,0.21641366101797122,0.216259376506172,0.20293996245296064,0.17549819727255977,0.15996175710025273,0.1872524911183686,0.26517384007852085,0.3375198875076135,0.4049741118377326,0.47944257723320893,0.5449333488293457,0.623578711357963,0.6874068943464522,0.7643102137279114,0.8396445596425415,0.8988273555771831,0.9143094720527825,0.8680244220694076,0.7955315338572944,0.7310942328306962,0.6688909224976003,0.6164367910652091,0.5503789140919757,0.47780502386673174,0.39741055242186674,0.32121131355106325,0.2570156596086708,0.17742909933939588,0.11136295369871663,0.1510159863113425,0.20787199569858217,0.24114530414207813,0.26269933245166355,0.26931268988973933,0.25919151386117845,0.25957231480777,0.27600069651062187,0.3113271636568977,0.36416669748389774,0.4217307821687055,0.4661589893439939,0.46669496543979516,0.44036510578514987,0.39912553545066487,0.3504815337098006,0.3081134388818585,0.3028113099296843,0.32176352151484444,0.340015068677781,0.33979334200525946,0.3444630872233101,0.34030900518428675,0.3204101255357821,0.2830208163877552,0.2410002183469011,0.2084531099573641,0.171486361395095,0.12481076593578422,0.08560283084948095,0.08997474606807954,0.1332201355065954,0.17071157120247982,0.21255324284854815,0.24551194904835905,0.2717517038052848,0.28039330952369523,0.28050817940368455,0.28928981963296074,0.3016058512835986,0.30177406707944643,0.2937529269612802,0.26597535463673383,0.30230288842711106,0.3651211406763486,0.4416263523866779,0.5124204340576517,0.5813676056986061,0.6546849308766292,0.7206680479029255,0.783602873135361,0.8125085571653128,0.782942511754515,0.7135445208105593,0.6458629312365942,0.5657750499893495,0.49526176962829993,0.42601641182252736,0.345665571979517,0.2652179771388061,0.18477038229809706,0.10432300825015295,0.025128042479446666,0.0,0.05477530268035791,0.10324402694266999,0.13577098249920727,0.151846425576045,0.15236003083936467,0.14756508896552445,0.13410965726370794,0.1639762926681887,0.22206911617817449,0.27660503262121283,0.3209132550246294,0.33497156487619995,0.32059699628711336,0.2865949701943169,0.2386699457686836,0.20099542229581102,0.21955807012578887,0.2373123090255298,0.254480965336247,0.2797424242637825,0.2966346365732129,0.30178478577534795,0.30132832204152615,0.2827138811592973,0.24321701895931724,0.21038120347725542,0.17168179400085481,0.12255853877728562,0.07395462879209802,0.046963942155411775,0.05502204527357746,0.08362625862251472,0.12305370133815918,0.16174189758899615,0.18857258544062727,0.1950452986771385,0.1950670047386831,0.1950438627017368,0.18842511240280713,0.17413452030567855,0.1767281039458939,0.21423570438037132,0.2880838583373815,0.35164292961877663,0.4284789312683239,0.49256074173428255,0.5689306463938184,0.6449113052258348,0.7093734502618312,0.7888278747429136,0.8580939076711123,0.9265670182525381,0.9619162144397984,0.9330568841911222,0.855472478446401,0.7750264212289051,0.6951618662104946,0.6295406056994888,0.5550176212663005,0.474582633430801,0.3942552085978206,0.3239422595875987,0.25450217035609723,0.1741408236624129,0.0975630672943737,0.09150589105042739,0.14309000704543218,0.18381077417448966,0.1950209115788044,0.20401827873340528,0.21622460439156255,0.2187882293942729,0.2489271780867064,0.3035026184172036,0.35360548289582416,0.41251528764848855,0.45474269179079485,0.4692256431084365,0.439964575815015,0.3913676487454798,0.3493310876835669,0.3124201246940892,PM
0.0,3.9126484235207926e-05,0.010455399612086858,0.029317636453657592,0.04866665088063149,0.0763480453038281,0.09945101260291933,0.12343497694729244,0.1379249294066427,0.1378426943878459,0.12369009778703877,0.11196321012491328,0.0928603704345381,0.06714458642601029,0.05922213544753774,0.059199635420779106,0.059195549134854364,0.056110358595922616,0.04016076645060007,0.039466423613843116,0.03946642361384178,0.03946642361384001,0.03946642361383912,0.03946642361383779,0.0394664236138369,0.039364075516270525,0.03009077893362555,0.03319777712985594,0.0394551965241039,0.039466423613831125,0.03946642361383024,0.03945662468486111,0.03380390639370834,0.020556770604907015,0.03472598420201134,0.03945382374361861,0.0362837479332474,0.03370182215235973,0.03945495849729985,0.03946642361382091,0.03946642361381958,0.03946642361381825,0.039467037618801104,0.04249717158108046,0.06070901300887366,0.08544103117774826,0.1140801291643152,0.1438429630824447,0.18173897250643378,0.21990423665503345,0.25753069113986493,0.28985535262512974,0.3250382737174853,0.35961434354459154,0.38291573428805536,0.39369563446789035,0.378105964252347,0.3589489774988204,0.3379681901433145,0.30954279121501616,0.2808426520698033,0.25249434645222246,0.23176872333144072,0.21267513620522172,0.19815567686726032,0.21146112493444846,0.22348900661003945,0.2378407627529806,0.25953384413018377,0.2765964961762548,0.29305896262723996,0.2959855772336901,0.2907645332829869,0.27669617986666184,0.284097184204505,0.29807807569508293,0.3293826695921105,0.3731342728463285,0.43010663314962994,0.48729343042557316,0.5405443127244371,0.5826917666469571,0.6391240019210578,0.6963115287793937,0.7534808954735399,0.8037774513870559,0.848337919262808,0.9053287314082983,0.9617552038587585,0.9975630737445149,1.0,0.9673734007528774,0.912433349539068,0.8660251658994702,0.8176218599908842,0.7604638134380002,0.7032761917700716,0.6461141718497792,0.5960430788816113,0.5514998372324547,0.5111317639518322,0.47569998401356095,0.41948586283599987,0.37293300190523215,0.32468202567671556,0.27075982650101205,0.22943593117387895,0.18087811879889326,0.15709240660840473,0.13956720412829826,0.1381327282504312,0.13813248264843692,0.13856577703001127,0.15318414645831657,0.17406826343810922,0.19578645314462406,0.1972921997898709,0.18978853238148474,0.1707772678710615,0.1564348148412753,0.13406646497728092,0.1067092503260354,0.09868908969294354,0.0986660590345636,0.09866605903456271,0.09866601208123837,0.09825820777432481,0.08370044754883255,0.08329830998176124,0.09808767233049487,0.09849747986051627,0.08679445302891642,0.07895676227203774,0.07893284722762184,0.0788560812466983,0.07015616770954436,0.05924192673273465,0.058966730314045535,0.0451556290920454,0.03947742662204057,0.03946642361375163,0.03993127330309587,0.05439486499898294,0.0591917407060607,0.05944072929129662,0.07245324087205285,0.07666826559861706,0.06013449148000394,0.06340327131742862,0.07828886996822382,0.079457859408675,0.09433746637570106,0.10673430188465671,0.10821423343204595,0.10046397120545603,0.11625208004803023,0.10326330391176741,0.10320165691318994,0.117931806478067,0.1293465770710891,0.15720912416735677,0.18831911294528947,0.22413867420134892,0.2531705420102863,0.2900210993422849,0.32101756878802457,0.3540296987770155,0.3850712591724257,0.4114356161318118,0.40855078149540214,0.3897071544853641,0.3704793708954335,0.3410047515208583,0.3126282948568475,0.2870243701256263,0.2526980973382291,0.22749296676405129,0.19176538759117578,0.17150703339155005,0.1579630546941635,0.14473003728388711,0.12121858127692509,0.11829924685585524,0.10881910079294066,0.09870359362387893,0.0986660590345072,0.09866605903450543,0.098706777413605,0.11000776961776815,0.1448367955928247,0.17372835163697653,0.1956284978194831,0.24035714483662707,0.2973779841671691,0.34853241898917053,0.3922554606340731,0.44920882985522637,0.4991037713476838,0.5275685346856314,0.5813215762067983,0.6385048259566513,0.6956924476245816,0.7525758648063534,0.796327622789442,0.8400982615430395,0.8460320540764563,0.8131865993313054,0.7685832526133738,0.7115564022144691,0.6543689277271474,0.5983170653028798,0.5568072094329697,0.514553280560115,0.48325944965487944,0.4276301071731199,0.3704612305717703,0.3202256453795438,0.27562553984009597,0.21862202240077444,0.16672338592576352,0.12370106236987688,0.07835956347569262,0.058986557124438566,0.04501063703012376,0.05747423387574324,0.059200681736549576,0.06359170009773818,0.08238999386552326,0.1116021144298407,0.1402952768031831,0.15955298880824653,0.17635135683983272,0.17759494307770796,0.17463572854267495,0.15617284471685622,0.13706676089612468,0.11941884348095932,0.10568943453011537,0.11476770665884439,0.11825102018874789,0.107390673183267,0.09901651999011474,0.11251875429470459,0.11554430300815888,0.10469429684634557,0.11810951147509563,0.11839924014115466,0.11839927084140323,0.11839927084140234,0.11839927084140056,0.11839969342129963,0.1206003822546946,0.13664894628087332,0.1381322876114499,0.13813248264832634,PM
0.9492794229287336,0.9081421207401998,0.851921891239594,0.7956171725423165,0.7393324272314645,0.6926656483756064,0.6829501300946381,0.6656883226383883,0.6725522520657945,0.6610340952377989,0.6749558119296504,0.6564173028223435,0.677899199598416,0.7063783548067182,0.7342085878816116,0.751630962798437,0.7843760617063804,0.7344829945917333,0.650291701990974,0.5873196316744149,0.5455931628504569,0.5100055181719068,0.42956432141478995,0.34478364546990026,0.2599988121082095,0.17521397874651612,0.09049361818158008,0.01967049141289312,0.0024993342423451637,0.0,0.00018558857722350552,0.016020914259459396,0.034853325718606776,0.07181920224173144,0.12560221087674162,0.1923666863633704,0.24402968725669805,0.2913443480880815,0.36828905820324387,0.4162391547045443,0.4717440581110717,0.5145006805614827,0.5360111170282682,0.5456377640381929,0.544792623916587,0.5152190558990366,0.46895845605247555,0.41269495702683034,0.3562558176606174,0.3017897305869628,0.30026705922530184,0.3763530698765978,0.4263279895533847,0.48741440870079966,0.5358559387175932,0.5471408587153501,0.5926136776758195,0.6421129567963959,0.6703093229103789,0.6887930760307395,0.7119032766884974,0.7127474930059803,0.7127474930059812,0.7127476765660479,0.714623408898019,0.7383713631117166,0.7436162386716445,0.7660740610367789,0.752958563500532,0.7424851128519592,0.7367807346624344,0.7132866739677519,0.6900936290497564,0.6830594405719497,0.6830495087927568,0.6830495087927577,0.6830495087927577,0.6830495087927586,0.6830495087927595,0.6830495087927595,0.6830495087927604,0.6830495087927613,0.6830732862048592,0.6931225940470096,0.7212877955311283,0.7437492970544026,0.7756650997125059,0.8318797954982946,0.8880014152594029,0.9183575328045324,0.876633496018818,0.8203858666468715,0.7641138143791171,0.7198817884048214,0.6913454467934468,0.6631972022968924,0.6533669453374129,0.653351524579536,0.6533620857484728,0.6607522488423436,0.6824102147146709,0.6881524481457744,0.7281637066092763,0.7806600850282841,0.7522169017171088,0.6736309612583815,0.6162906562837893,0.5722932839753501,0.5792241335353898,0.6209106262890911,0.6547474717642761,0.6811815916392776,0.7039071725832615,0.7385551137125574,0.7424449041089982,0.7424454772192322,0.742445477219233,0.7424454772192339,0.7424574688194001,0.7506569408254222,0.7710190390146785,0.7503975042355409,0.7421728330781665,0.7230993084787176,0.7127811412897902,0.7069658009906163,0.6842400429307371,0.6899390052582701,0.7177202782432524,0.7416680377613485,0.7542158132112942,0.7720062438379287,0.7721434614324707,0.7721434614324707,0.7715971378353306,0.7507750290494446,0.7557352333270044,0.7721201149469241,0.7826555551496552,0.821643017228598,0.8515012497588383,0.8934473621064134,0.9357866719097556,0.9782262717834671,1.0,0.9472704784263852,0.8904433458313186,0.8336142186288038,0.7772742806990998,0.7338367551067204,0.7130173902754633,0.7127474930060158,0.7127474930060167,0.7127583402611988,0.7203103651375011,0.7418263287420874,0.7477168195659063,0.7879074383291549,0.8222220652072245,0.7534987295719073,0.6924191234098851,0.6178684754589785,0.5942985312914448,0.6091873305902986,0.6509417357776845,0.6928006770167414,0.7148921720524113,0.7395634817641463,0.7380984217735564,0.720612699124275,0.7416411525050775,0.7424454772192544,0.7424454772192544,0.7424577549056677,0.7507808287201803,0.7583486736314358,0.7426459381777315,0.742445248341367,0.7407804061468832,0.7158675135357822,0.7127505014980624,0.7127474930060274,0.7127553077469999,0.7185912480041301,0.7391722672084642,0.7152898735732958,0.7127486133288397,0.7118873890767974,0.688911435109838,0.6993772541329406,0.6910627159196112,0.6831411006828736,0.6949012399264012,0.7229987079638498,0.744626395769199,0.7893464089573214,0.8456046284149714,0.8914957277444104,0.9172582078936538,0.8729409284364502,0.8164591440179532,0.7601544253206747,0.7045310749204239,0.6701609717889419,0.6321818545761468,0.6236657036182613,0.6236535403663472,0.6236535403663481,0.6236535403663481,0.6236625566695553,0.6303325685946941,0.6668749650962962,0.660645707696232,0.5990193601232372,0.5327055486276828,0.5060748869230061,0.5244501896320717,0.5612213119556753,0.5938833667882459,0.6234228373635382,0.6463535581946669,0.6533429534183073,0.6533516916604434,0.6550560638408491,0.6785542608221169,0.6830531612961002,0.6869154095184822,0.711635070254153,0.7224357062274338,0.7268989639582033,0.7128978140391995,0.7127474930060469,0.7124235959734273,0.6930769168357669,0.682029280932797,0.6575216263725352,0.6617624050722011,0.6825270166133057,0.6830495087928208,0.6830495087928217,0.6830495087928217,0.6830495087928226,0.6821697353175491,0.6607814663515814,0.6791461934663987,0.6831789546599705,0.6968699797080982,0.7252759403541971,0.7669576903179847,0.8091723636290142,0.8579105995823717,0.8988516379258966,0.9411049254988635,0.8997271660422772,0.8450733378277828,PM
0.1821150279046555,0.19235299149615814,0.21104628252925917,0.2253347619041559,0.2568228306655982,0.2911143222656527,0.3237748431714995,0.3480126728998538,0.3528066450349736,0.34146574605777724,0.31047831269850423,0.2900250595999454,0.2590559016965317,0.2374144360263748,0.2310866804919134,0.2130818201262783,0.1974503581281839,0.18013374210093014,0.16594765169271497,0.1657939030412625,0.16539672749103618,0.14913675499772072,0.12023551502458485,0.07301085102641203,0.06595060538119224,0.13307030254599495,0.2085272797851787,0.28399845802606505,0.3594696362669523,0.4337694086719872,0.4904396446951096,0.5625012396719193,0.6379702053040988,0.7134413835449851,0.7887488916351839,0.8497202063109932,0.915900437809174,0.970246227404227,1.0000000000000004,0.9593018775886768,0.9031780396682847,0.8289877287363825,0.7557224857894025,0.6993467219955058,0.6259571745026773,0.5505078801962449,0.4815877715221375,0.4224657300043346,0.34753043296898856,0.28318941412792586,0.22156033935682684,0.16765147748335973,0.14270351702320117,0.14283569521191364,0.16261650047194776,0.2036168704001411,0.2494463190793179,0.2964652935742724,0.32716565605527004,0.3291493623857491,0.31187107275227577,0.27519224849662693,0.24861630450152994,0.23437233768980814,0.20856560637471633,0.18673591884625074,0.16755732022194447,0.18217073592961386,0.18915227280097824,0.18917804696756946,0.18917804696756546,0.18917804696756013,0.18917804696755613,0.18913584737635247,0.1803367818855972,0.16595402979924634,0.1655312884793223,0.1513285463451135,0.1265814746128595,0.11906081604109486,0.12783278683419264,0.14304816074285753,0.16146913220259007,0.1799450401161753,0.19728443869500545,0.2221979839914039,0.25233177831405484,0.29668058667405983,0.3341547375945235,0.36233749031671714,0.39378111069496624,0.39914667545049776,0.37917492878664705,0.3493947679341449,0.3242766579044689,0.29878143254542167,0.26632019923633266,0.24877950022745177,0.23450280145058278,0.21587074663335226,0.20425330309383138,0.18934636102701052,0.18422186874183533,0.16628383917426692,0.1506035360379081,0.14179563173646192,0.11210030801569904,0.05637523130055433,0.0,0.019848690414197456,0.09408252833341146,0.1695537065742987,0.24402134093465344,0.3012717752046097,0.37258563200212835,0.4480542756114443,0.5235201768325024,0.593933353031662,0.6517691293106949,0.7265116498458117,0.7923678096835869,0.841766520148092,0.8575642746508474,0.822191243030796,0.7615438475623901,0.6881142834894782,0.6314520615497616,0.5586475210045188,0.4831915268538398,0.4135300578218266,0.3549882145508563,0.28014695196736916,0.20468598696450968,0.1344754424452197,0.07878509700319203,0.050681706754074796,0.06934769294498855,0.07520870067119079,0.10514951838018849,0.1548430886003178,0.208645206424392,0.2512082400249409,0.27600886683144976,0.2757313480600767,0.2569572220533254,0.22656632170457058,0.1824531998143848,0.16397114023232717,0.14258076990477564,0.12059230885429661,0.11902561518817167,0.11985046730980997,0.137453580888947,0.14257807317411464,0.1574831454307528,0.1642851913669281,0.15036613017403688,0.16479249993334255,0.16579390304093744,0.16579390304093256,0.16579390304092811,0.16579390304092323,0.1657939030409188,0.16579390304091435,0.16579390304090902,0.1668732555464194,0.18535602453204358,0.1892039703193258,0.1987486430186447,0.23083779819664763,0.25635918874485375,0.29558072653217593,0.3352126745840156,0.35253272370330624,0.3528652261932246,0.3499903749885571,0.3196039152173409,0.2821109764078864,0.25803496715702456,0.23786724861509745,0.21859637895800343,0.20118546676163973,0.19330259088226454,0.21091170999619013,0.19583824359348512,0.18918660654270258,0.18915227280063274,0.1817798798782242,0.14736935671726492,0.1060082745732629,0.050588375358645354,0.0599971065784497,0.13268986277393813,0.2079529163657301,0.2679546132900179,0.33575072400213823,0.4111898604801989,0.4866610387210861,0.5621322169619698,0.637603395202857,0.7130745734437443,0.7883849162480119,0.849449920106808,0.9154939888937101,0.9584309523892762,0.9430055491906875,0.8865802274653807,0.8220005634627516,0.7590861722871209,0.6837297653792427,0.6087662232014446,0.550296812512435,0.4806933108556488,0.4055741541953215,0.34510173378499065,0.2777263484126866,0.21328042790752688,0.15033509963447322,0.0993021619714245,0.08638991398774998,0.05703145867213966,0.0796149557763024,0.11114393077826445,0.15997224910282926,0.21033071369947498,0.2545056433178887,0.29133242069057275,0.298299201233152,0.2823854224010476,0.2603220717182837,0.21875507687560214,0.18770187771866276,0.15947464060793548,0.138879857164798,0.12013204220239793,0.11999666965777989,0.13810511719383367,0.14240736991245528,0.14517075276927294,0.16393350614369684,0.16575177847015832,0.15704916185583073,0.14256142672843142,0.13701922335197425,0.12078903236867955,0.13975367846585973,0.16983509876800706,0.18875613041656214,0.18732728067657023,0.16857376788748946,0.16579415234871764,0.16579390304068964,0.1657939030406843,0.16689491515333277,0.18540105550532981,PM
0.3903875567356061,0.38423201555002917,0.3642639640063847,0.36376959060774317,0.3637695906077405,0.36376959060773784,0.36376959060773517,0.3637695906077316,0.36376959060772895,0.3637695906077263,0.36431083862672375,0.3846936371318139,0.3782911682312107,0.36383715825252994,0.36376959060771474,0.36606650062421364,0.38815634203564064,0.37277495511634884,0.3640607361849493,0.3816720880681719,0.3903534390291523,0.39073063413181464,0.40900037145795887,0.41682853391236874,0.4006787494664583,0.3904053087432149,0.39038683177445366,0.38311388630503584,0.3668514012479469,0.38850948184738376,0.3909072436032157,0.4111189321325397,0.4171464709678143,0.4327752950371173,0.44345063041060273,0.431116902237235,0.4338678942761862,0.4434506304105965,0.429861475369528,0.4170318313196586,0.41701378360417385,0.42007924655237217,0.4418933490914152,0.44363522191407023,0.4436468308304211,0.4525612557165277,0.48661939989528813,0.5100158628224238,0.5258612863093375,0.5457161001476432,0.5238420091434448,0.49494620245665155,0.4703579694529787,0.45103252148986384,0.4279719680195595,0.4171997351434764,0.4333888088342168,0.43673091223643423,0.4174514140412815,0.41783410082633443,0.43801394693703477,0.4206023227203839,0.4170137836041259,0.4175525645378406,0.4380058487150511,0.44542337622234607,0.46759981504851256,0.47025611650310717,0.4694842782733999,0.44720583342926856,0.4116292095200005,0.3755853123266051,0.3312360003911947,0.2837880650751736,0.23646177352358633,0.19214290553410995,0.1488362384169828,0.1068556306170021,0.07094268814099669,0.04498345094050027,0.04852272497420751,0.07252891673092288,0.11338501982781635,0.12464141449929622,0.1480243304469533,0.18369441821182475,0.2245554216704666,0.26856086137384283,0.2928886614564603,0.3327676242890898,0.3804207667490016,0.42577601113886,0.467688902766938,0.51527100351402,0.5632452939701031,0.6275149182012485,0.6773036442122771,0.7460337224754103,0.817859036565125,0.8896864969212142,0.9574852098061037,0.9956515535800139,1.0000000000000004,0.9583455631361466,0.9106880038720377,0.8630548144739154,0.8221519430577335,0.775837767107014,0.7281741315243209,0.6788196831773559,0.6244967806600354,0.5671284267695866,0.5170103740692693,0.4725048723081158,0.4650083931581457,0.441198355853881,0.4103632075202017,0.3910597128163773,0.4090886448192328,0.41699411999263036,0.4170137836040433,0.4192702434662414,0.4415992980438266,0.4436344587970056,0.4435597747811637,0.43290774138548604,0.4171578308925912,0.41734779645931797,0.435563619048398,0.4436127749231997,0.4473485455192798,0.46869454219882156,0.46076847689312794,0.43663252097073846,0.417419341932487,0.41701378360400687,0.4170137836040042,0.417335461032883,0.4354164967793044,0.4441801863978978,0.4650216427758447,0.47912873895528785,0.4966398319199512,0.48980824347455565,0.46980814121057035,0.449108127231296,0.4435017551070497,0.4288902021467993,0.41703015246220465,0.4170137836039731,0.41701378360397046,0.4170137836039678,0.41763151126671305,0.43755041020669116,0.42346513426052956,0.44166545952942515,0.4436346304982366,0.44363588010221333,0.4436065801013327,0.4352987989639989,0.4161417586708587,0.39499425591728743,0.3909984147966541,0.41219046049637376,0.42650289600942903,0.44345996931876774,0.4436499596096186,0.4541960386667854,0.47734578970344765,0.5119026828224107,0.5442501361084235,0.5381561363352074,0.5241701953075473,0.545141572691795,0.552357133626797,0.5746965319180632,0.5694082725017222,0.550519956082558,0.5501242660952061,0.5506457774319462,0.570818423497045,0.5649988813580378,0.5502115704222681,0.5488375142077406,0.5278201851010684,0.5214684078078515,0.49196723059855385,0.470926002310994,0.4875939924471475,0.47851458914793854,0.4702774360822093,0.4780285583389019,0.4964777511529781,0.5091096819042105,0.5233689342525358,0.5233276354405461,0.5064575212256686,0.4921139868141817,0.46834172999401646,0.4376416429745853,0.40163437414947767,0.36510436614854624,0.31746294572398304,0.2698004643556522,0.2221367715391902,0.17258290347677674,0.10868581592047688,0.07028088572426272,0.03464776304884731,0.0,0.0018082493024262902,0.026307671915093866,0.0860755341796593,0.12991532689454255,0.1621700704202964,0.17181686307790267,0.17734673920291,0.17287078669398648,0.14139733416854794,0.09972490268675971,0.09152128791710501,0.09888345645155949,0.1392239531926518,0.1699224098218397,0.17728288767678846,0.17743258127651051,0.19044248712854506,0.22568093509161224,0.2729830873732655,0.32411936910488715,0.375605677990245,0.4339841918170193,0.4818968164011932,0.5324123728770309,0.601477975675031,0.6512063791860458,0.7201422950804139,0.7898528583934392,0.8393413607853284,0.8909179910837417,0.8952474266218666,0.8642395050240501,0.8153531321658094,0.7601623041365397,0.7114883439346671,0.6632560153956777,0.6105308534327318,0.5599854755895941,0.5018300797233217,0.4541254265240853,0.4073838173069384,0.3904100400678048,0.3903916871055446,0.39039168710554284,0.3903916871055393,PM
0.10960355562914437,0.13929422892736554,0.17857378504003263,0.20972039566808265,0.2022844653918252,0.18279938368799797,0.14782010996117334,0.11748811435932494,0.10860410606110893,0.10579747233501635,0.11323092909804755,0.11329176878484137,0.11425049368557749,0.129637550109309,0.13310426867624336,0.1325052630539547,0.11390277238853974,0.08599847391803683,0.07385010238534884,0.0715547053004153,0.06291842651281154,0.07340440638243129,0.07096511625731905,0.05533059496352699,0.05383385902794391,0.05593557464949894,0.08177156071188207,0.10820811287723187,0.15248713360527377,0.21995561532944974,0.2804098814253404,0.35381750798280587,0.41613607222863047,0.48257241599627365,0.5566242493347717,0.6229613988777585,0.6853311830503124,0.7592947332324149,0.8320255869299515,0.8905747717682919,0.9589929387882901,0.9768557656131067,0.9304424919544001,0.8593030368330474,0.8010884938882001,0.7292149796025074,0.6572299951460101,0.5988808040848546,0.5265887845457606,0.45319787189170846,0.39365994119147585,0.3239579715530527,0.2507543756476456,0.19191398354586386,0.12332156049223952,0.06642947389390175,0.021879303527989613,0.019204255741493093,0.04776635234091264,0.07719753402681873,0.10435029180954203,0.1275681647277791,0.13127205280846033,0.11042062022271848,0.07429385455179105,0.043925267078118946,0.0323657072316057,0.02265283740461088,0.03363273328193905,0.034016339978113486,0.03721485025388249,0.05281163152210455,0.05893198687024004,0.07301778341519727,0.06913689469046869,0.05102591755657837,0.03426481469824072,0.01859878614355992,0.014216660804849734,0.02003379283735507,0.0334076842198372,0.023602072281718733,0.014256561033222148,0.014258916983474368,0.025725130551764508,0.06841113768609874,0.10805260058501132,0.15535952269194198,0.2199617705990593,0.2811364915096739,0.34870047349747857,0.4209109717844983,0.47169412139545486,0.5147908836706261,0.5846109429363064,0.6327047569520463,0.6855605137588907,0.748951046159283,0.8229443431668781,0.891949172555055,0.9461293572262743,0.9509035837149185,0.9003653803296201,0.8293218159742177,0.7698589224322485,0.700064258017624,0.6261034958696512,0.56367101570997,0.4973977816610038,0.4232941493914977,0.3500760091067612,0.29119798472666725,0.22067379058921022,0.1505867921516435,0.09235245196922692,0.03494013055214795,0.0,0.020539353428833174,0.05112717781477638,0.07308748393805153,0.09964872916444767,0.12956750997375366,0.1329450596077537,0.11953479201153971,0.08385934509835069,0.052590034059430746,0.04524773836568885,0.053723958995612,0.053832555860193754,0.05283472612126028,0.037696237671848376,0.049134890033090795,0.07065590710022418,0.07576494034545123,0.08895430916027491,0.06962678469823613,0.05426269561692498,0.05056296445461905,0.03511175047197623,0.03425818401095304,0.046288485170591365,0.0537671131140236,0.047318346951216395,0.02533211765127419,0.030967508496596796,0.05073667406854687,0.09222208105759444,0.13046494302958012,0.187612382744633,0.24571105654767145,0.3169294001371603,0.37547039042602615,0.44684572610798234,0.520935586348914,0.586186172493544,0.6496217884472588,0.7236194206313513,0.7960109319061095,0.8544059497950496,0.9253463828068833,0.9753623941758622,0.9635722302855934,0.9087798071377167,0.8390349579362111,0.7658409036461751,0.7070362021905412,0.6364095675198205,0.5623140973595442,0.49780845746010405,0.45788228796266095,0.3989285769820139,0.32513248572198394,0.25410413823784683,0.19546720415464103,0.12756370656033722,0.06890206398971266,0.015064946224683684,0.003932445827579567,0.022886096332561223,0.05671745918761273,0.08413666779620232,0.11172970431149043,0.13222869304806917,0.12469939761026749,0.09817419629605517,0.0644924313413564,0.06660036706126382,0.0702789226087468,0.06488590587406051,0.07143773055114133,0.06291842651243629,0.07340579701049732,0.07536100668163748,0.09945562973806155,0.11307260718479828,0.10540466783663982,0.08199542489204514,0.07173046044810949,0.05188846383915591,0.045649764073039556,0.05407940922487864,0.06662319833367425,0.0593504111948735,0.04657958594219336,0.05330771391784994,0.049091044469109946,0.04648480602850524,0.06620305079129096,0.10495492048047339,0.15707465297232526,0.21687342426359058,0.28298471897267063,0.3528994163323351,0.41221737825918625,0.48555085755309957,0.5596452759277555,0.6251515240484693,0.6883363560536759,0.762320336460685,0.8315603540379093,0.8914623455019157,0.9619090662967116,1.0,0.978872788172966,0.9194116018019374,0.8593413698860175,0.7856431667214618,0.7114944777864856,0.6373457888515084,0.5631970999165321,0.48921550632161015,0.4262814582649139,0.3605200292031103,0.2875947909962422,0.22912398845635717,0.16030853150817936,0.10240915069410761,0.05634433907588621,0.04183127875160331,0.052649254979731275,0.0941281746782372,0.1320750100520658,0.16673916521632481,0.18660013429632283,0.18798086767351174,0.16434241723074727,0.12916292822208142,0.09764217829099131,0.07908062402274485,0.07271354151460185,0.05735850213459415,0.053836447870333703,0.05384867825080475,0.05951289528146253,0.06829089827875601,PM
0.572270658997752,0.6640338645275872,0.7406153888347191,0.7887030117708811,0.8241874219945586,0.8244274423357947,0.81856243284488,0.753892107349893,0.6778309176558839,0.6006041377939049,0.5328811884386706,0.4776568323783632,0.4138767349360055,0.419380424470873,0.4647639890665385,0.44246258700730046,0.4073420956805336,0.4070490299492189,0.41673581396866766,0.46404376515836,0.4474440864909752,0.40797935137166164,0.4465206568045712,0.46422709488041924,0.4173383582234944,0.41563522748966797,0.48259203657040217,0.5253871974687918,0.5262980418074701,0.5262980418074648,0.5262980418074612,0.5262980418074541,0.5261509692438189,0.5014500965239499,0.46415616893921374,0.4198210958324129,0.4599159310533878,0.4666695046751599,0.46644285180149403,0.43257745212567933,0.4203523043247017,0.4726182575578868,0.5164449923920831,0.46778079518312765,0.41583512266055145,0.40704783129046973,0.41227524749081645,0.46203838574972345,0.492308491569478,0.5397545765441851,0.6130422754826927,0.6455259332484609,0.6773511855677619,0.7050035028034749,0.7051769107493833,0.7105353659143478,0.7601193692776036,0.7300617153515798,0.7046731811503406,0.6673524607823573,0.6455617158291798,0.6426333738555048,0.5944566512287857,0.5859232255493794,0.5750756112835518,0.5272587956276578,0.49123726301764314,0.46135327848333674,0.3970128026232729,0.3210649186768233,0.24365238956919377,0.1462926942383529,0.04624380533136474,0.019723174652744646,0.1440974422085084,0.25050521298249073,0.4009778005496081,0.5238658959620714,0.6433043979762427,0.7461579778324019,0.8201973377445864,0.7761695354378109,0.6664273754466024,0.5183052193067272,0.4158744125720162,0.2749067018433351,0.17525250463598674,0.15580009266193784,0.22136048288944288,0.29390865333703786,0.3476004968252422,0.3940196157505014,0.40704185940180615,0.4075727255138357,0.45037629728915896,0.5260092853176292,0.6261527367631903,0.689230587075377,0.8117206670012802,0.8784354097662082,0.8508100305056399,0.8368762508139849,0.8686074765512277,0.800874790239158,0.7496268993176294,0.6967243436133952,0.6058913871014635,0.5553580066906605,0.5070886553909641,0.4553285974263268,0.4206950765534181,0.464961560451675,0.465901940929216,0.4269326527658386,0.40705622190062307,0.40684571918427537,0.37659479736601753,0.38461485574931586,0.41317822850788843,0.4629961667461284,0.4527208275557264,0.40782109610375095,0.40704546251244444,0.4070454625124391,0.4070575347171683,0.429379149255821,0.46622475810801056,0.46654819333031305,0.44448360584646984,0.40740951055453856,0.40619143810469716,0.36666814664275016,0.3474295897793045,0.34741611200462685,0.3369003203592431,0.2889727900963148,0.25326588504160696,0.22816005142957252,0.21440176141766187,0.21134557188342917,0.23710451871155946,0.2853124673583949,0.3235702729913932,0.3931487154217379,0.40792300349006183,0.4548410490368173,0.4807052784641357,0.5247562764530471,0.5262980418070136,0.5262953091507345,0.5173010612616711,0.4794473854793164,0.5238795744875624,0.5060150279247786,0.4676056410184888,0.5072026300034445,0.5262102238534894,0.5262450241800742,0.5096436507266286,0.46722161798964734,0.4478902770518456,0.3750655460994743,0.32696174238581044,0.2880804137802091,0.25872852493501597,0.15578143208423612,0.032939912747821154,0.0,0.11690888420495504,0.25856957773667766,0.364262965843416,0.5144733689547891,0.639931995900362,0.7598723928430253,0.882123681497303,0.9835169216305033,1.0,0.9107643157036467,0.7778040361689751,0.6655046483576097,0.5135613145313638,0.374519833156171,0.26820033647002184,0.182254420959433,0.2684778782797643,0.32124254631558813,0.3472608137088411,0.34825867317932335,0.3942835098823867,0.4082400356036793,0.45636448759487536,0.5105736256315581,0.6083036662334447,0.7073216902836901,0.7736176613017705,0.8437211128333804,0.8833131915704389,0.8503797368157215,0.8240665509669451,0.7851527405930145,0.689869441575734,0.6059882970903772,0.5858679078959437,0.5682803373779546,0.5268749789261271,0.5262946384725211,0.5146556726344489,0.5073365073147382,0.512193246755082,0.4837138756296575,0.5222320240327747,0.47550832643783636,0.47670764997033466,0.5237748146461847,0.5065427020310977,0.4671351484375883,0.4666717521594439,0.4672451411274423,0.5085880741974886,0.526229975389997,0.5250229515135914,0.48272964355880355,0.4670586973514741,0.5045318841911204,0.5136801866771865,0.4675265010401688,0.47447494087466424,0.5222320240326983,0.4854943136183074,0.46668194075770764,0.4666686342199782,0.45578613877797025,0.388135483365069,0.34785936095432923,0.3421782030036358,0.2926343245314733,0.2806415633861601,0.24094222688964173,0.28509070669263537,0.29821188769553864,0.3510919239482284,0.44142781595926905,0.4733804877712,0.5372817235897767,0.5844374453456194,0.5859243314540077,0.5866325501708705,0.6303476477483141,0.6455182955605157,0.6455506211013269,0.6455470037208251,0.6324588008061909,0.5867460910119924,0.5865402982374022,0.6275958495973182,PM
0.1981825010535836,0.21920458000973397,0.2878534936303492,0.3608652266472383,0.44566147923517097,0.517728553202371,0.5900669783911461,0.6585814936848822,0.7103846325897356,0.7786623395361048,0.8530639466936174,0.9378207358951727,1.0,0.9925554579774811,0.9354709921121964,0.854561396405563,0.7905523212028926,0.7072898253532536,0.6223010425011859,0.5373119165820324,0.4526306669378908,0.38300635580391873,0.3079968494619054,0.22303337790864752,0.13804779933297784,0.058803841799868195,0.06493066616485432,0.11602155067810038,0.13247862599580262,0.14099909474182315,0.15789918046665186,0.1585415136922217,0.1765995638683302,0.2185034831062067,0.2682589754635325,0.3040260648563642,0.3353582149415155,0.3380251247039432,0.3277089877640895,0.2914538886965641,0.25935277327207107,0.2538711920717045,0.22061244932374802,0.17219783149257495,0.17913228273695214,0.17984283627119968,0.15957832073677292,0.15977822109585382,0.1805580638956119,0.18400941226504663,0.18401279627908007,0.18331901329708877,0.16412342354538545,0.15789230967922574,0.14080343672633155,0.13267183163445395,0.13266646363204782,0.13885909232946414,0.15769114600051193,0.15833248990404947,0.1555287414361226,0.13448064856609854,0.13265531784353524,0.13004864578028918,0.10890062459939731,0.09437210845739852,0.08267379611283321,0.10219938854120336,0.08731291774581607,0.08131989417145746,0.08764786887990361,0.10686694033765765,0.12567626035113566,0.14624087203829372,0.16884569334047939,0.2298797968986115,0.29983918103513396,0.3842709943472089,0.45191619345283396,0.5288874922156275,0.6138251080725574,0.6895762766490741,0.7585078760528949,0.8414370969159677,0.904842121202619,0.9496016533045708,0.9191933522771825,0.8479631656757931,0.7832010351444385,0.6994355641977341,0.6144465966400059,0.5294898356286115,0.4523638713222553,0.3848364778901274,0.3001680641826763,0.2151789320474684,0.130265350012718,0.059237052652568956,0.05472361149757354,0.0941190987082825,0.10673578514608018,0.0932282729056455,0.09485588870454187,0.11462477969688756,0.1361777893375038,0.1753099037266974,0.22621704884536165,0.2618264486218438,0.28508741379673186,0.30158369277163555,0.30702523566416584,0.2708023393390482,0.2374769952016873,0.2112212708012713,0.17104642491367983,0.15549165052985447,0.1368129686724755,0.15559542546407013,0.14223666703847737,0.13266804670732935,0.12702681899225876,0.12035126838244103,0.13254203821961763,0.1327398281528982,0.14458314852337484,0.1549839262631183,0.13425487173125283,0.13266669584011215,0.13883841108376682,0.1576913696929214,0.16251024023025096,0.18255950348054562,0.18617309354704226,0.2012574601219166,0.18431114879823518,0.16569376048533524,0.1529045663969617,0.13311819760810373,0.11492983827556191,0.10699341726462386,0.10697890541297195,0.10697455947568191,0.10247442239059801,0.08259168465619648,0.0948607905471972,0.1072930152619973,0.12505600200129852,0.1398242065115527,0.2028528664357223,0.26665871273889774,0.349008633155508,0.4339785071781366,0.5097622157095616,0.5786640493265427,0.6632846364857432,0.7454431225070941,0.8097446698219564,0.8864622154448369,0.9439964790836264,0.9709440384633474,0.9271755003925648,0.8456489936722607,0.7623448476671761,0.6976078685937948,0.6163585929614985,0.5313707269577277,0.4463815948225216,0.36139259736852214,0.2776922500840433,0.21260654703297455,0.13209941054345897,0.04892173096001606,0.03590764326765061,0.08322345909897866,0.12860238362453025,0.12666217129543522,0.1077705298098488,0.10699711804335532,0.1166642132400657,0.1387311400240252,0.18601032709667908,0.22613667459718556,0.23532752895021147,0.2352970322942518,0.222702209424682,0.18849278104247258,0.16678129477814618,0.1352791354941294,0.1064076470631603,0.0847526709461377,0.08130150251861323,0.08140033637987898,0.0937845305653866,0.10711428975265314,0.12418764664539683,0.13381578906107805,0.15391304727898092,0.1466037298017291,0.13280000606117426,0.13287474314125003,0.14897344001463075,0.16900739316254043,0.1837601466217711,0.18390053445754795,0.17173341945155318,0.1783575963797457,0.1832991741744543,0.16250025391391887,0.13671606208818687,0.13265921334234942,0.13265690149614873,0.13265412744679406,0.12961329072092198,0.11685404034006641,0.11827962392100222,0.10705597258401234,0.10697890541260069,0.10698630640391649,0.11274299793057363,0.15685851610290147,0.23468738737445793,0.2993335861628976,0.3825223815130947,0.4583381351875815,0.5272098655746866,0.61182846903524,0.6962710848919436,0.7631112785620058,0.8409250221835256,0.9074580033684976,0.9460889529094345,0.9348146069003649,0.8711687601117379,0.7864388213868674,0.7014496892516613,0.6164605571164525,0.5314714249812447,0.4464823801668212,0.36214443160875565,0.296041877562641,0.21718353953172098,0.1322037603887054,0.0474484077695978,0.0,0.047723679085628135,0.09641355041615984,0.10692399446308176,0.10697890541253408,0.10699704240864705,0.11737840522297205,0.1520203034646883,0.1749110440392485,0.21642730609894745,0.2540464554275319,0.2610295527016966,PM
0.07114712022887026,0.07114712022886938,0.07111324863301416,0.06264295294807454,0.04679340463325321,0.06823654224142395,0.07122947062164808,0.08361966936585397,0.11148495307000594,0.12390373596682913,0.15093663873010588,0.19587570304967805,0.24129391692098512,0.2950519854591773,0.3076979421247783,0.3022214966665553,0.2677454172752016,0.2464879699637672,0.20107111750615925,0.17210481317994475,0.13635388107202484,0.10165094241172223,0.08877284286591536,0.07132802343517142,0.05918117188852534,0.043265722788712324,0.02199360316507004,0.0009904756774083978,0.0,0.03637170781188814,0.0682154622507074,0.10262824320350816,0.16809548710372368,0.25239738412120705,0.3368365002348881,0.42116414293512694,0.4921182493792573,0.5639578370435023,0.6483007235234775,0.7290363811013831,0.7926728067609385,0.8739213247994488,0.9366233461055158,0.9878013852134062,0.9751573505864091,0.91600960113563,0.832338686095679,0.751667095137071,0.6884300677984792,0.6053095873655607,0.5208723704595997,0.43953527602287146,0.37673069740889886,0.293844591517896,0.21150955666760307,0.14818954291419129,0.07014367426310741,0.024978924495816734,0.029150467644330824,0.04581909764655734,0.08225775872513896,0.1279603838864558,0.1707210192539783,0.2237684257106256,0.26657210398128584,0.28128320217950975,0.2695948083595736,0.23436320788676746,0.21377318565711345,0.1833828356734788,0.1423444019682849,0.11956475903678854,0.09863060684687408,0.09744386798953553,0.10336876008062124,0.11974385635392171,0.09886626898723971,0.10148836659389815,0.13469464506899786,0.1407072233593798,0.12392426382270116,0.12372825480508798,0.12465178195462112,0.14445320102185022,0.15157992723913694,0.1732703584528963,0.19040130130156818,0.24733040015438945,0.27763209793898636,0.3040685055311849,0.30760551915051604,0.29245257867410057,0.2513971151273191,0.21146465901578182,0.17292707645084437,0.13789546358461813,0.1171611750272481,0.08215656011227424,0.07113223700414206,0.06053552166500609,0.0627357601175591,0.05446669416802585,0.02210525670856356,0.03325238228570537,0.02535722028652998,0.037660687115787184,0.07042750150530797,0.11899061682123602,0.17099398133267485,0.23757514814836522,0.31305836226875705,0.39745945539336525,0.4818985715070472,0.5663376876207273,0.6507768037344093,0.7351158701649423,0.8065790178103578,0.8779214917596887,0.9539173851689204,0.9983627341526322,1.0,0.9483930089962076,0.8821481512663745,0.7980043990174996,0.7151864897735463,0.6513928882396804,0.5709748818178841,0.48653808338141946,0.4033016829962932,0.339099424189226,0.25950904903122396,0.17801498801848492,0.11537644779759848,0.047393431785918594,0.03890431554563634,0.04498157202761721,0.06178932871287923,0.11352005150671918,0.15110444123960498,0.1875070403331529,0.23737145396792325,0.24503986025965308,0.2279422418588819,0.20158548685397548,0.17486343583012065,0.1522015316915848,0.12023552326178688,0.09760550998752304,0.09743768751689519,0.09864856632550367,0.11946865427117537,0.12371816454924378,0.11832588630084384,0.09937453920941941,0.1184055489967939,0.12055299874801051,0.09937453920941497,0.11562136380728294,0.11319084479898311,0.12254767002223943,0.12393108587084889,0.14115630866425555,0.1616056998060813,0.2026160347067698,0.2510706396554543,0.2782362349975074,0.28145167264445625,0.2745179949860894,0.23699927178811553,0.19531546915277342,0.164344490889186,0.12905497884886685,0.10667651652862098,0.07429420494752659,0.06117419488260456,0.04502926383814554,0.043202703785147456,0.022525754030466416,0.018568174569804086,0.020361348334179574,0.042653472131156,0.06483569510246756,0.11104108160154524,0.1921144300454536,0.2549471510549175,0.33621986223915723,0.4206570147651929,0.5049481015284956,0.5742732761285065,0.6477377324811702,0.7321229119317749,0.8165620280454569,0.9008416910784653,0.9676906104140839,0.9786507647499123,0.943172367958578,0.8724149806253356,0.806189862531216,0.7222252865997634,0.6379863524980287,0.5677066263586115,0.49512358807035994,0.41081401799513095,0.33745296272991165,0.2680259798896403,0.18408462813555104,0.1160491987156842,0.04497350954218682,0.0187913489499989,0.028939577714820253,0.050499812256568966,0.09756486593424185,0.13929860139152517,0.16796035989063451,0.19922534553671678,0.22720461492097055,0.21911443595123892,0.18253753486992874,0.15044760058266782,0.11798979226040096,0.08993971664914646,0.07812939006293274,0.0959360916912102,0.07651099168587372,0.07581215914243344,0.09613830033965964,0.09763588471061535,0.11449213137315617,0.10995452584871401,0.09765378010553327,0.11176282150402894,0.12366809105206045,0.1237308300018718,0.1278790001561978,0.1484616443862894,0.15173263322379693,0.19006701610540055,0.22456558648358715,0.2771428002983525,0.3063460529175046,0.3071789554914117,0.2867003284982568,0.24697392731552892,0.2195400199031008,0.1770454085553279,0.14842397028480114,0.11307062264310908,0.09134423806646108,0.07192526548070521,0.06823654224121789,0.046516418716429975,0.04485655294051405,0.044958887369719314,0.05928346184423283,0.09316505676953835,PM
0.09603986087377292,0.1044153676725732,0.11206716499468472,0.11213694560858167,0.11213444537849737,0.11003348266334445,0.09708234774156921,0.09617051778038288,0.1067991234939547,0.11211255902425954,0.11213694560857634,0.1120602572075664,0.10397876177028165,0.08963485651755843,0.06617747600197443,0.04718171532059712,0.02835291735118428,0.013235234658826034,0.0,0.007821178557700037,0.01508207296062869,0.023981728539648195,0.022753595638858037,0.01947924330624007,0.029438180432094896,0.017078852580812764,0.025993628069454378,0.017858938803140045,0.002823694231188778,0.028323214864021562,0.06898773127686164,0.11948497828226623,0.16497971108144194,0.2210832561308096,0.2666178570754014,0.3186506444508206,0.3753819524688722,0.4321248183237518,0.4888676841786319,0.5456105500335116,0.6023534158883916,0.6590694011379656,0.7086367453154869,0.7564884586252418,0.8131398336781634,0.8698808119565014,0.9234252402949248,0.9674429460718135,1.0,0.9812036252361191,0.938699151087564,0.8849246804779298,0.8298605517295479,0.786223259811702,0.7308811028283975,0.6741533718808697,0.6222598207479542,0.576591505898854,0.5200955149016444,0.4641575634857862,0.42001960426091633,0.36605051440178915,0.30972381731384724,0.26439079178024816,0.2120581757311082,0.16247247483454919,0.1169244851761162,0.09817713222403768,0.1146726223404042,0.14053613996943737,0.17647566765428602,0.2121188866074557,0.22510304675041182,0.2170120042951602,0.18992070690155582,0.16154952661973265,0.1351236907552722,0.12079413831865615,0.11223340832617001,0.11213694560855192,0.11213694560855103,0.11213694560855014,0.1121380014139155,0.11440931330889637,0.12722558917899374,0.12722595237603818,0.11559678795566652,0.1263091244593575,0.12831985547735902,0.12832199123829158,0.1283155729648393,0.12464313088841328,0.11265549463768476,0.11460263776568969,0.12733778280471553,0.12828748932821243,0.12250988653412653,0.11106124227116165,0.09205509526829037,0.07048575242545718,0.04347849485829025,0.023159501568834173,0.015089127256941115,0.015037291910615203,0.01934827877249523,0.030790632570671495,0.031211673115967287,0.0312117174597919,0.03121171745979101,0.030913660859937853,0.02054974642958607,0.03664681761699429,0.08207922990965688,0.13112754094541446,0.17522811905536662,0.22836179660028222,0.272481406227814,0.32645067802152594,0.38318749695410625,0.4369633869414642,0.4811827451719699,0.5372326009228869,0.5939752746211902,0.6498728271335144,0.693864646177099,0.7480231491319183,0.804760264962106,0.8583813834686529,0.9020196536560152,0.937541627963542,0.9627547180939828,0.958765504383364,0.9174145490306405,0.8625666974115931,0.8189456622321956,0.7636319849051372,0.7068905384279822,0.6518250498022877,0.6081877578844419,0.5528456009011382,0.49611797975736804,0.4451979426523329,0.41239138233770145,0.35864397345693266,0.31324942348978757,0.26093768732252043,0.20716917013296854,0.16297749029409125,0.11809054697851717,0.11232794970875304,0.12430968263486131,0.15587577420588294,0.20246302515508452,0.2320640064690047,0.24061970441161673,0.22607024153954658,0.20218024294410597,0.1723157112491558,0.13836865593295755,0.11852454061282414,0.11117479984699363,0.0986132427848152,0.10642107250317334,0.1121046644103556,0.11213694560851328,0.11213694560851195,0.1121369456085115,0.11213694560851062,0.11213694560850929,0.1121369456085084,0.11213694560850751,0.11213694560850662,0.11213694560850529,0.11215810491806932,0.11825024594524214,0.12811620585535177,0.12807919389964395,0.11739260493259529,0.09599202374442051,0.07443600762866032,0.054466806373433485,0.027549613248720295,0.013987181511923463,0.0011088285511795526,0.00983200088613323,0.01500524572588402,0.015026671830010496,0.015026671830009608,0.01502667183000872,0.015026671830007832,0.01474145018498696,0.005779211660527306,0.0280308232930504,0.07352709255400436,0.11704586926373839,0.1706641926104453,0.2143247361651932,0.2690766812870655,0.3147439537826844,0.3666375049156012,0.4233658524534629,0.479856388841569,0.5254355737573277,0.5774219490519119,0.6341522702432338,0.6908951360981135,0.7468069453314463,0.7908319065615865,0.8449431017261277,0.9013898986170887,0.9355171860617402,0.9279244827240363,0.8866572957644734,0.8371049051767208,0.7807484885600235,0.7351228417343529,0.6830746004466719,0.6263453658806437,0.5696025000257645,0.5128596341708844,0.456116964695803,0.40008948981189807,0.3559421920075456,0.3106268884558152,0.27783859286018453,0.23575524874774834,0.18079563523953457,0.13538224814408428,0.09037966669913011,0.08988532363281587,0.10464811090973436,0.13170686242421992,0.1678007634124592,0.20444509810635836,0.22401205903957289,0.21806213476507752,0.19779323051421294,0.16987531724303473,0.13707189728873104,0.11324792427741404,0.09663615050809105,0.09595189997873232,0.09597065032166796,0.10160485978329525,0.10995756668650003,0.09720280589850727,0.09973262921072079,0.11162974091686362,0.11213684213954833,0.11213694560847332,0.11213694560847243,0.1121372750197458,0.11329590681322621,0.12626329847344842,0.12831967324270854,PM
0.9492794229287336,0.9081421207401998,0.851921891239594,0.7956171725423165,0.7393324272314645,0.6926656483756064,0.6829501300946381,0.6656883226383883,0.6725522520657945,0.6610340952377989,0.6749558119296504,0.6564173028223435,0.677899199598416,0.7063783548067182,0.7342085878816116,0.751630962798437,0.7843760617063804,0.7344829945917333,0.650291701990974,0.5873196316744149,0.5455931628504569,0.5100055181719068,0.42956432141478995,0.34478364546990026,0.2599988121082095,0.17521397874651612,0.09049361818158008,0.01967049141289312,0.0024993342423451637,0.0,0.00018558857722350552,0.016020914259459396,0.034853325718606776,0.07181920224173144,0.12560221087674162,0.1923666863633704,0.24402968725669805,0.2913443480880815,0.36828905820324387,0.4162391547045443,0.4717440581110717,0.5145006805614827,0.5360111170282682,0.5456377640381929,0.544792623916587,0.5152190558990366,0.46895845605247555,0.41269495702683034,0.3562558176606174,0.3017897305869628,0.30026705922530184,0.3763530698765978,0.4263279895533847,0.48741440870079966,0.5358559387175932,0.5471408587153501,0.5926136776758195,0.6421129567963959,0.6703093229103789,0.6887930760307395,0.7119032766884974,0.7127474930059803,0.7127474930059812,0.7127476765660479,0.714623408898019,0.7383713631117166,0.7436162386716445,0.7660740610367789,0.752958563500532,0.7424851128519592,0.7367807346624344,0.7132866739677519,0.6900936290497564,0.6830594405719497,0.6830495087927568,0.6830495087927577,0.6830495087927577,0.6830495087927586,0.6830495087927595,0.6830495087927595,0.6830495087927604,0.6830495087927613,0.6830732862048592,0.6931225940470096,0.7212877955311283,0.7437492970544026,0.7756650997125059,0.8318797954982946,0.8880014152594029,0.9183575328045324,0.876633496018818,0.8203858666468715,0.7641138143791171,0.7198817884048214,0.6913454467934468,0.6631972022968924,0.6533669453374129,0.653351524579536,0.6533620857484728,0.6607522488423436,0.6824102147146709,0.6881524481457744,0.7281637066092763,0.7806600850282841,0.7522169017171088,0.6736309612583815,0.6162906562837893,0.5722932839753501,0.5792241335353898,0.6209106262890911,0.6547474717642761,0.6811815916392776,0.7039071725832615,0.7385551137125574,0.7424449041089982,0.7424454772192322,0.742445477219233,0.7424454772192339,0.7424574688194001,0.7506569408254222,0.7710190390146785,0.7503975042355409,0.7421728330781665,0.7230993084787176,0.7127811412897902,0.7069658009906163,0.6842400429307371,0.6899390052582701,0.7177202782432524,0.7416680377613485,0.7542158132112942,0.7720062438379287,0.7721434614324707,0.7721434614324707,0.7715971378353306,0.7507750290494446,0.7557352333270044,0.7721201149469241,0.7826555551496552,0.821643017228598,0.8515012497588383,0.8934473621064134,0.9357866719097556,0.9782262717834671,1.0,0.9472704784263852,0.8904433458313186,0.8336142186288038,0.7772742806990998,0.7338367551067204,0.7130173902754633,0.7127474930060158,0.7127474930060167,0.7127583402611988,0.7203103651375011,0.7418263287420874,0.7477168195659063,0.7879074383291549,0.8222220652072245,0.7534987295719073,0.6924191234098851,0.6178684754589785,0.5942985312914448,0.6091873305902986,0.6509417357776845,0.6928006770167414,0.7148921720524113,0.7395634817641463,0.7380984217735564,0.720612699124275,0.7416411525050775,0.7424454772192544,0.7424454772192544,0.7424577549056677,0.7507808287201803,0.7583486736314358,0.7426459381777315,0.742445248341367,0.7407804061468832,0.7158675135357822,0.7127505014980624,0.7127474930060274,0.7127553077469999,0.7185912480041301,0.7391722672084642,0.7152898735732958,0.7127486133288397,0.7118873890767974,0.688911435109838,0.6993772541329406,0.6910627159196112,0.6831411006828736,0.6949012399264012,0.7229987079638498,0.744626395769199,0.7893464089573214,0.8456046284149714,0.8914957277444104,0.9172582078936538,0.8729409284364502,0.8164591440179532,0.7601544253206747,0.7045310749204239,0.6701609717889419,0.6321818545761468,0.6236657036182613,0.6236535403663472,0.6236535403663481,0.6236535403663481,0.6236625566695553,0.6303325685946941,0.6668749650962962,0.660645707696232,0.5990193601232372,0.5327055486276828,0.5060748869230061,0.5244501896320717,0.5612213119556753,0.5938833667882459,0.6234228373635382,0.6463535581946669,0.6533429534183073,0.6533516916604434,0.6550560638408491,0.6785542608221169,0.6830531612961002,0.6869154095184822,0.711635070254153,0.7224357062274338,0.7268989639582033,0.7128978140391995,0.7127474930060469,0.7124235959734273,0.6930769168357669,0.682029280932797,0.6575216263725352,0.6617624050722011,0.6825270166133057,0.6830495087928208,0.6830495087928217,0.6830495087928217,0.6830495087928226,0.6821697353175491,0.6607814663515814,0.6791461934663987,0.6831789546599705,0.6968699797080982,0.7252759403541971,0.7669576903179847,0.8091723636290142,0.8579105995823717,0.8988516379258966,0.9411049254988635,0.8997271660422772,0.8450733378277828,PM
0.1035196975968442,0.08400395981383113,0.08187045730182119,0.08187023820087003,0.08187458237710477,0.08693673867450213,0.09786035890342326,0.08265892948108622,0.09889431481390165,0.09560204474809675,0.09608758646206095,0.08966239152479538,0.08521402893945629,0.10314862382495882,0.08658280405060514,0.08713042145452743,0.10476948415891263,0.10006377674692901,0.0996309085079572,0.09509866798518374,0.08195088414072993,0.09473474001641646,0.10403081214216758,0.08547441421595003,0.08204566045781148,0.09677586091075341,0.10367933106077487,0.0831248333108432,0.06450867639596769,0.08020687449883424,0.08186984630873351,0.080134254342759,0.05943725997239113,0.03715826674921274,0.015532265150270952,0.011192949574351907,0.011192520136495077,0.011693009327140125,0.029430483940693808,0.05132909107115058,0.05585659037512514,0.04094907771561429,0.05603059208126604,0.040949114962766764,0.05675587521013936,0.05831088710444243,0.05811570078751371,0.04369172881058647,0.05290660038512929,0.05823377125390117,0.04872970076287553,0.03485607758370346,0.035294695585168956,0.053018764235400084,0.06079063807862095,0.09713689446642748,0.14635243973396994,0.20789101854038972,0.25563189798091956,0.32060393815626,0.3866621230291414,0.45268875774789885,0.5062851695794373,0.5613817890406847,0.6273359211432141,0.6933941103981147,0.7587255672023363,0.805563401151645,0.8680133300427397,0.9315536887623401,0.9694393650364366,0.9748590029067166,0.9301824472550861,0.8702529690881673,0.8213429410321234,0.7557568729199944,0.6896986135527912,0.6238190757360402,0.5719879174361355,0.5150631417884166,0.44902481543871486,0.38296655607151253,0.3169155736478291,0.2570473958508228,0.20790712400514266,0.14229275795743446,0.0762349559138289,0.012171148379265695,0.0,0.028946636528204728,0.0347540558693793,0.04075307498799141,0.06263713473994237,0.08157369808590476,0.11016324976588132,0.15358527983016623,0.1820799579251191,0.19925940233466255,0.21159711345114163,0.21781227546515547,0.19620694647663361,0.1740845652130263,0.15356324551108225,0.13705639213592846,0.11436890155588753,0.08586520850900259,0.08187063258219895,0.08187023820049211,0.08187023820048633,0.08228583358439501,0.09889431481353128,0.09546950540493127,0.08265898206492839,0.1015219762615378,0.09157629530269729,0.0819042584199785,0.08879693377794107,0.10492526259633861,0.09012454255508606,0.10053956440460832,0.10542390661212542,0.10542947755515453,0.10542947755514742,0.10542947755514165,0.10542947755513499,0.10542947755512877,0.10542947755512166,0.10542947755511545,0.10542947755510879,0.10542947755510212,0.10542947755509591,0.10542947755509013,0.10542948631912097,0.10605730745583308,0.12433045520242914,0.11624786287272482,0.1054530974459702,0.10311024491957044,0.08336063601228982,0.0818703959529885,0.08187023820030204,0.08187023820029538,0.081848993475369,0.07412162933527311,0.05909974271000529,0.07631923399959462,0.08186381425699008,0.08187023820026074,0.08187023820025452,0.08187023820024786,0.0818701834250053,0.08110887504931386,0.0645084134743179,0.07915892827439208,0.07515344099922361,0.06184295530829864,0.08031184949141812,0.0722260941223909,0.07767068531846766,0.1216826406659881,0.18345649698885014,0.23282280648151543,0.2924327837534011,0.35848342497698793,0.4245416843441894,0.4905996983183347,0.5542487712652284,0.6009292037127119,0.6652159353998415,0.7312737418254645,0.7973317470355732,0.8608889253463654,0.90762509353157,0.9711734387175572,0.9999999999999996,0.9933004522057609,0.9395904748227566,0.8735530696932767,0.8074948103260744,0.7414365509588712,0.6753782915916697,0.6093237265669678,0.5467444432562165,0.500021731201723,0.4347044146012533,0.368646234110392,0.3025880229453919,0.23718294362923809,0.18877225814583065,0.1279667927499677,0.062059817466973755,0.010294889978265775,0.006749909243915386,0.0387899543206629,0.0578369085807382,0.05882559975670487,0.07633526980666305,0.0901356606773347,0.12177457351811372,0.15523944472944828,0.1987087751377432,0.22207928410346822,0.23145118614429938,0.24618390000545398,0.22771545359133327,0.2016523456629522,0.1860720649911105,0.1644327798014258,0.14237408005184093,0.11170412524136708,0.10543901801149325,0.10542971418384539,0.10774700596804676,0.12717934156000066,0.1270356688158807,0.10737972540091123,0.10875814494242597,0.1274942175189162,0.11885064870524742,0.10549134874396371,0.10601486055216514,0.12408400348259407,0.12807729621067132,0.11004459097147157,0.1054305740557342,0.10542947755474863,0.10542941182445897,0.10448753901286212,0.08656851114806274,0.09677630787590807,0.10367942089139026,0.0844637484987989,0.08455564313489283,0.10376576329128628,0.10541641153328163,0.0979394104149014,0.08217292229076234,0.08464723541166208,0.10314862382408041,0.08711146746022624,0.07425654344387667,0.05859925351900097,0.05831099884518354,0.05831988976678604,0.06430991877098702,0.08139745387703412,0.08187020095273656,0.08187044853679826,0.0839215968693563,0.10967223149851435,0.12067340068486798,0.10966118885242393,0.12783024565100165,0.12898863803299454,0.128988716909328,PM
0.07860689810006427,0.0786068981000616,0.07860689810005805,0.0786261773813548,0.08438115655492906,0.0990420002244945,0.1296737817348621,0.1629774949286671,0.20539279722589532,0.256167034622206,0.2996861162474076,0.3542153419653893,0.4086997347140131,0.4520186121787324,0.5035103982107589,0.5585089024751144,0.6135134110395302,0.668499303317935,0.7178859570213505,0.763035180199036,0.8178070622434612,0.8727931439490924,0.9222165657139931,0.9662332239989073,1.0,0.9890654899935885,0.9372114297059086,0.8873484095765853,0.8426931840683238,0.7878999023177422,0.7328953937533265,0.6778962323335342,0.6260514738674128,0.582980603151166,0.5286017425493927,0.473597233984977,0.41859435820836577,0.36542664553093296,0.3240637631784913,0.29037409875429,0.24923219095741045,0.21823816225095172,0.17881619620806477,0.12838628225771842,0.09581409089538528,0.09804766559702616,0.11954156115242753,0.12944825436854357,0.15333214895962577,0.18714602366801403,0.20921893572800832,0.21985696399724963,0.21695201751260162,0.19381623954553584,0.16703870016058753,0.14616022151642039,0.12408555040893043,0.110736902571829,0.11005566420746726,0.11005566420746415,0.11005566420746149,0.11005566420745838,0.11005566420745527,0.11005566420745305,0.1100556642074495,0.11005566420744728,0.11005566420744461,0.1100556642074415,0.11003879626987301,0.10521467021413544,0.09456148908485584,0.09433128115370248,0.09433128115369982,0.0943310795385166,0.09354896702743476,0.08226648636438094,0.09208209872291562,0.0943280197632772,0.0943314090390408,0.0952829822343717,0.10779082148603036,0.1099975398430244,0.10326668517692594,0.08971414982481685,0.07606373136828948,0.05890499464399612,0.04464560397025741,0.03212952371108235,0.02471529038486775,0.015832918014095476,0.015585284780761377,0.006645321019209671,8.808365993484557e-06,0.0,0.005248689684769214,0.030217611638618802,0.05316475333545023,0.08846010049914055,0.13922230058000684,0.18700215120580577,0.2336216569980265,0.2885428279290063,0.3435473364934212,0.3985518450578365,0.4535563536222522,0.5085608621866671,0.5635653707510828,0.6185555251420651,0.6687756261300186,0.7131759497961929,0.7678590219550148,0.8227155740966556,0.8680913023799275,0.9015590853576385,0.9046884786183917,0.8683459750986646,0.8141693615632057,0.7607133197784872,0.7184778990523357,0.6648790843683097,0.6098752204504891,0.5548708821823904,0.500475107643708,0.4575866779870279,0.40558024602459763,0.3505770606821397,0.29557289916663,0.24208084438154254,0.19985464965143906,0.14633001969134884,0.09761128926293638,0.052255760783361804,0.022055054066245194,0.031227974881382625,0.042173603451026054,0.0683506544953092,0.08922784926776606,0.11833463460594329,0.14532045838717655,0.15257473744732986,0.14170438311662137,0.1313980399468475,0.10479241308018983,0.08042155357970815,0.06204484166429225,0.048174251872056484,0.05634291654136003,0.058590423976988326,0.04746231913444454,0.04794910266279606,0.060270924986832064,0.06287456366653954,0.06056242853498839,0.054812734811111596,0.06276837217438525,0.06288251504612585,0.06288251504612274,0.0628831022747991,0.06423833830129011,0.07697839851881882,0.07860609389932671,0.07936682501938463,0.08934303567802981,0.08618343220423297,0.0919062980341776,0.0795356376933336,0.0786069998861314,0.07872954636617413,0.08759420683529084,0.09502215009214288,0.10729154097826843,0.1128112020665375,0.12936652782834468,0.1411196438173321,0.14150409755180338,0.14016504255307716,0.12697123775258445,0.11206212291477824,0.09600194688223951,0.08608389834293284,0.0764131842798319,0.06384478877260635,0.06064674055766828,0.04812820226276893,0.04715828075692574,0.04715864614365639,0.048472352054732326,0.06830401071969172,0.09576936473639197,0.1277442012973693,0.16868573711404178,0.2227588108131715,0.269110993588336,0.3172129798549599,0.3721595472263428,0.42705406160261994,0.4734352434375064,0.5169695213771708,0.5484040217491608,0.6000139451681492,0.6550134494516482,0.710017958016063,0.7650224665804788,0.8200269751448932,0.8748103144054529,0.9192966420023385,0.964965693266651,0.987266837207728,0.963746716267265,0.9190669651087058,0.8642405190445195,0.8104448234748749,0.7679961178094432,0.7149847613280507,0.6668604581283946,0.6343793788968006,0.5814583520040952,0.5342730813572527,0.487035095359599,0.43209719557230963,0.37709897702771,0.3257606572713758,0.28233395078558,0.22780614860334847,0.17488309922410128,0.13245507987842764,0.08137386072616781,0.07374354519220416,0.08701334915517078,0.09666174925238424,0.11327957961253254,0.13834290319271725,0.16858994372318836,0.18816933532041924,0.188606450531545,0.17980079265902704,0.15340656211023385,0.12590476879709867,0.10002250204907126,0.08235169390810482,0.07861358047053324,0.07860689809973431,0.07860689809973209,0.07869510888815379,0.08641143424810238,0.08287501731938152,0.09098864802763051,0.09432559114511907,0.0943510340028082,0.09997232982412152,0.09988911876728368,0.09490732393582046,0.10665993897107562,0.11004988848290642,0.11005566420715995,PM
0.36992778093144896,0.3699277809314454,0.36992778093144274,0.3688515682905251,0.3443723577024915,0.3383928048609022,0.3383896241332449,0.3382859490636587,0.32268085361598153,0.306908938321687,0.3068514673350471,0.3068514673350444,0.3071633911903957,0.3285301315809903,0.3167728799171261,0.30201225606043014,0.2821458932334995,0.30566614973272266,0.31347426054523364,0.3524823924556433,0.4017743814462893,0.4644478143081834,0.5306802151835601,0.6060701601634895,0.6592743256230102,0.7062615694560552,0.7424300646616828,0.7450862514256524,0.7091398840801508,0.6387998334681448,0.5577962522115865,0.4767864769064367,0.39590901633684794,0.33362687655141876,0.2814027887484585,0.2756670594948645,0.29816390664835346,0.30683293152754576,0.32176046179236906,0.38783214359032403,0.4408443077867643,0.4936528384151231,0.5429678408022376,0.5817286036482328,0.5889863511116786,0.5579430700109782,0.5283418087463163,0.508210215219961,0.4583315279295146,0.4253755479479091,0.3978904165086625,0.37004915362790847,0.34284609364279994,0.3578537384351552,0.36985795273974365,0.36992778093135215,0.3699277809313486,0.36992778093134593,0.36982410586175973,0.35421901041408255,0.3384547958288451,0.3514235808800832,0.36979798609841197,0.3686256576585718,0.34522220682979654,0.36560581888360044,0.3699263161225357,0.36992778093132106,0.3699277809313193,0.36992778093131573,0.36992778093131307,0.3699277809313104,0.3702984246794436,0.39312745083096523,0.40144557805184355,0.4014659377294887,0.40146593772948513,0.40146593772948247,0.40277321509875375,0.43294484678922274,0.4630150126031616,0.46995432958811545,0.4948159366232501,0.4965782364548481,0.5214740222429102,0.5149828835667618,0.4962455322474275,0.49608040812402354,0.49608040812402,0.495192454342976,0.47142626309798885,0.46454626908707386,0.46454225132582305,0.4645422513258195,0.46641867734159614,0.4922798804711235,0.4960790688702508,0.4960804081239969,0.49634339873536515,0.5173608418158295,0.5318468620888988,0.5670336632059101,0.6131221987922277,0.6787775137964269,0.7398821075381798,0.8073007258293154,0.8693631024327617,0.9246071117388679,0.9764855922220717,1.0000000000000009,0.9841600406964242,0.9333201337372374,0.8533891727905107,0.7723867391330206,0.6988354246084212,0.6414788033462466,0.5629370062690251,0.5513523799090807,0.564779506921818,0.5895095609162277,0.5972995147440097,0.6255391467627689,0.6755021597736475,0.7293545125768475,0.7842246499753172,0.8397435258000305,0.8704374143662754,0.9040191533524959,0.9048487060346364,0.8800441142372151,0.8647119317718328,0.8165220634177945,0.8017889807090341,0.7624725297450521,0.7214527919812017,0.6872539905652939,0.6559482732278967,0.6022818615501127,0.5487901856769071,0.5049078589246072,0.4786494075401233,0.437934311439367,0.39672354785646124,0.3319101590901763,0.27707165160039615,0.1985420005122016,0.1267100188682564,0.06775791661983632,0.0,0.016593660255249,0.023053773460002702,0.03856342390034939,0.06380905852482055,0.0764986474394238,0.05487771010223774,0.05501472318539058,0.0794912517895785,0.08612025855588623,0.10135467012159527,0.11751364426407296,0.11762252654564964,0.12006927305496262,0.14624054087032956,0.16219351009541683,0.18059724005269917,0.19568959756274396,0.21212551105262278,0.21223699694019693,0.21223699694019427,0.2122369969401916,0.21223699694018805,0.21225532133163316,0.22695323360907338,0.2522223337373486,0.2746512673873571,0.2775319288484539,0.30357455036405057,0.30684933289907423,0.30479630862248897,0.2783303775393957,0.27531331053654107,0.2753133105365375,0.2753127246130198,0.2735593660000806,0.24770473353085176,0.2437753211450584,0.24377515373833702,0.24377515373833347,0.2437751537383308,0.24377515373832814,0.2437751537383246,0.24377515373832281,0.24427144020123226,0.2832191492154452,0.3359628914574726,0.38966858482676425,0.46378056894176467,0.5189206452264123,0.5844986731002999,0.6398654796268559,0.6822958203691911,0.7146427453620099,0.6874716104707748,0.6231545692090856,0.5595352470258375,0.4794543128372011,0.42172694641418573,0.3481569625053025,0.27002510503249777,0.2592431189098807,0.2752044282549111,0.2753198393985148,0.2888400590331628,0.34090090982975507,0.38505830445928524,0.4378069858554081,0.4826878618229218,0.5273250199895889,0.5548304489494393,0.5543075078941202,0.5286913096399415,0.5092306649987224,0.46835921770834243,0.4164875414455951,0.3882572889978029,0.3615603079642451,0.33875048123217777,0.33838962413283635,0.3383933070806435,0.3447145499981925,0.3689645236060235,0.36992778093101286,0.3699277809310093,0.36992778093100664,0.369927780931004,0.3699277809310022,0.36992778093099865,0.3698527455273899,0.3572949873414313,0.34305464854225143,0.3683620952544109,0.36992740426586934,0.36992778093098444,0.3699277809309809,0.3699277809309782,0.369985251917611,0.385757167211902,0.40136226265957475,0.4014659377291556,0.40146593772915384,0.4014659377291503,0.4014659377291476,0.40242985095526773,0.428138768874895,0.45495485495027577,PM
0.059956806598671086,0.07816267614883099,0.10608729830067665,0.14214596380536015,0.18193583252413292,0.23022024839758082,0.27087112387698875,0.31530449477582945,0.36411309840458417,0.4129350536202496,0.45884045231973625,0.4982912217020723,0.5466221990701987,0.5954484430237077,0.6442744802843414,0.6920021103047076,0.7307183674957041,0.7779587589329622,0.8267837876428294,0.875556780068544,0.917582052865678,0.9397958558479234,0.9203899723508204,0.8838512067654816,0.838620023225396,0.789800241225413,0.7410714244357703,0.6989523406845088,0.6560722380328605,0.6072912068697178,0.5584649690620065,0.5101760058199281,0.4708708665294479,0.4247782178704167,0.37595586225059385,0.32712955198716553,0.2783032417237363,0.22947693146030756,0.1806506211968788,0.13182432904737906,0.08316387539140635,0.04257596470973857,0.012486941674199947,0.009235074265903975,0.009939787431106684,0.019892897486910588,0.02592345334779189,0.042396457844705804,0.06488358685779483,0.07304574947791398,0.06719260929157889,0.055136766681006755,0.04699953271888635,0.02971097368652309,0.022265821271489905,0.0303199318357823,0.03480580000097966,0.035164067352690065,0.04433794333803531,0.04142690279640959,0.046660860521661185,0.058310458867193216,0.0555270312802576,0.05764745037299379,0.06655224519816638,0.07570017325290168,0.08515306183116422,0.07759987899631682,0.0902358365014968,0.08920866963024965,0.07417449885758254,0.0728855453307995,0.06386895426983497,0.051868791150059046,0.05432248227988845,0.06025065581539879,0.05371968258678406,0.04662464049321846,0.040258159589794396,0.039144365830943606,0.034847448448489526,0.034855054489276505,0.04056117873937337,0.05547324433021661,0.04807218660794188,0.04750701641661648,0.04038078584703886,0.03479590300415847,0.02886164818871384,0.022085899269513654,0.022391188636297965,0.03875832227265619,0.06521335819755647,0.09181078946464716,0.12797540147531983,0.17169815811484046,0.21405051454953883,0.2566539730050885,0.30540109120181347,0.3541189105432436,0.39564929756842604,0.43912986697498546,0.4879101255575078,0.5367364358209366,0.5855627460843658,0.6343884313808643,0.6818588416525135,0.720463960089198,0.7680726860688178,0.8168980907034875,0.8657116450683224,0.9102397847647694,0.926766686470788,0.89881958152495,0.858703019453654,0.8101236458009469,0.7614587666942234,0.720702241082066,0.6764172678960096,0.6276145939782487,0.5787888458260881,0.5308435382818963,0.4922312688058095,0.44510381773876384,0.3962792493591243,0.3474529390956955,0.2986317003317396,0.25213129695991787,0.21319084607487815,0.16494378311790303,0.11611763135135744,0.06758596684521079,0.028497534504546618,0.009814458127101133,0.009231728391097871,0.00945405121954268,0.017922619747980928,0.03507742065378894,0.058186577245870286,0.07373202393911482,0.08394063557380926,0.07285035164119602,0.06132468407846092,0.04523425411137838,0.023979336743311208,0.022030101392744417,0.022962479600667773,0.03300163381258958,0.034921215368315384,0.042175152527962556,0.05421193077819453,0.05629474626616693,0.04786839691230549,0.04763688095567531,0.051723307574286004,0.060184656391243596,0.06356885328847861,0.07276813357575262,0.07320569018481704,0.07057791607192021,0.06088036518501072,0.060416547420024,0.06041645943807872,0.06041657976632253,0.060991372595725846,0.07072444922121912,0.0644812098297951,0.05008681250346392,0.04722769765781765,0.038193747725656646,0.03491088971018241,0.041928017928643424,0.04570912152683437,0.035736481840636714,0.03481642483122949,0.03203746060150836,0.022794860295330732,0.03185054488892103,0.03485586503003146,0.043026469534838796,0.07076241326295829,0.10809135318527119,0.13959604623353483,0.1806265151738895,0.21926451670615066,0.2665620635034296,0.3153871505464574,0.3641582878789187,0.40639616400055,0.4491436257465651,0.49789618490215126,0.5467224951655809,0.5955488054290088,0.644370297018809,0.6900588799756626,0.7296782736748857,0.7780578989784361,0.8268841500481319,0.8757052201598716,0.9211966978961512,0.9607374036626011,0.9973774443111001,1.0,0.9661022359216593,0.917678240341679,0.8730242945439151,0.8325720881410286,0.7839792217077002,0.7351529114442705,0.6863266742834866,0.6380421335809916,0.5987523237738648,0.552639964592776,0.5038175668251461,0.45499125656171824,0.4061649462982886,0.3573386360348607,0.3085123257714315,0.2596860155080032,0.2108597088026669,0.16216155567760993,0.12085412683623842,0.07714452201619748,0.028737419094700734,0.0,0.008771652738513769,0.018389963050434943,0.013062030577012607,0.029132852122961683,0.04348541287506125,0.05847976772852492,0.07042391009764604,0.07945429825732253,0.08220152621004351,0.07032902932683038,0.05794727705562064,0.03963087745933436,0.034844268892260555,0.03482404604197642,0.03482404604197464,0.03483881916432097,0.03881424101478004,0.04535058106623735,0.035625428174649976,0.034826901492190476,0.036959205859132815,0.04694861426299335,0.04898982344655778,0.05949330300805222,0.06899635816303729,0.06375568073705118,0.06833959117622124,0.07304686251324899,0.06521239215544528,0.060443599848691854,PM
0.23903208621591565,0.252923620951206,0.25639932844878643,0.2571827551781056,0.2634620159825971,0.2745234768796152,0.27801050817350204,0.26197589468046756,0.2429079119239672,0.21513691877350016,0.18787540621452115,0.16085095764309543,0.12221402096525358,0.08019617859365802,0.047397238370161965,0.023588017177677667,0.0,0.005405965497139231,0.03201593116317669,0.0534361483812531,0.07971018358836757,0.11132944310104298,0.13569450090048196,0.15767075050780432,0.18456883048589479,0.2040151912023691,0.20649294841865684,0.20649564466554127,0.20649564466553594,0.2064956446655306,0.20651070890206924,0.21392067435223217,0.2532622440276966,0.3044337675780948,0.3575817861224255,0.4061735444187504,0.4685175423612007,0.5321369067318451,0.5955879545853584,0.6475077805977683,0.7040845387841252,0.7676629045609458,0.831231308895648,0.8863732727216509,0.9395030341045505,0.9876304866773724,1.0,0.9687176508657571,0.9169163033278815,0.8593506965222852,0.8085453940861567,0.7451433787350581,0.681523860230258,0.618022096880745,0.5645427560700047,0.509560640055251,0.4459978624011538,0.3823783438963533,0.3187588253915532,0.2553283785446352,0.20318289874722772,0.18186843749653914,0.2003720837893055,0.2064682915269631,0.20651621399801012,0.21412602341573628,0.22542029754235493,0.24355118296504852,0.2853662432151953,0.3176056896492918,0.3368041802670865,0.3391551886632498,0.3367378038755442,0.31741550646027106,0.29054659041381603,0.2665289635916066,0.24552004405406302,0.24440001413598678,0.2443997970456202,0.24440003150320555,0.2455427432801458,0.26084211658169254,0.2618394049497992,0.24441205858117288,0.22883003674069613,0.24367213361664586,0.2649021861463048,0.2885699874177221,0.30098400171396644,0.306392714104339,0.31978693291643534,0.3242326215956859,0.33882334221683763,0.35231521883942873,0.35182972028593085,0.33131959570172853,0.3152343126510404,0.2889243905345982,0.2645827493747839,0.23266251906983504,0.19287674331102211,0.15140522906637344,0.11454591354542076,0.07737296926959836,0.05187685016828114,0.03074983207899251,0.0187246338458964,0.042337503591922676,0.07928881673277566,0.09854636404703765,0.111377929913266,0.11191415073197497,0.12425960543684944,0.14536135990601107,0.1647077810884663,0.15649642067685754,0.16676341090467472,0.15542545735972624,0.14965161882581812,0.14924289064706064,0.13754885891605895,0.15137624599423205,0.19755542157960004,0.26093641254465183,0.3244509615078499,0.3780629534261837,0.4329046137963073,0.49646241037375205,0.5600819288785535,0.6232089264716896,0.6731447652768963,0.7319980562077397,0.7956026541815331,0.8552374778781728,0.8988708590249845,0.9244051069929,0.9065476254826845,0.8596204451879941,0.8011310869721235,0.7451970954933369,0.7125505176292588,0.6662429682171886,0.6034858064085089,0.539866414126247,0.4766041962391796,0.4257456215699431,0.3679475253020956,0.3043435191721011,0.24339564356749355,0.19501163144604483,0.13515021041377207,0.12397936588591563,0.14262938128247882,0.1330299064113607,0.1368763593179847,0.15015682363205896,0.16537536143035947,0.1881456435444706,0.2300073132522784,0.260357094382885,0.27609393289098527,0.28227467352807833,0.2817327768323339,0.26712821351784566,0.24949725503753095,0.22389188681882688,0.20745525141744325,0.20649627732850506,0.20849402188409671,0.22379122488021075,0.22544683883236294,0.22550606932897654,0.2341891426222329,0.24428658118880398,0.24692369183539675,0.25624472654505936,0.24463887663308848,0.2443997427727238,0.2439755864884905,0.23230857396349158,0.24259620570515938,0.24439856683800354,0.24478308622334222,0.2581566608881567,0.2646239628002882,0.28229219278005147,0.2997383808957239,0.30263161585422615,0.3169447821962459,0.30419693883124443,0.3006895782800747,0.28506501777826765,0.26397704692230217,0.24218004445673014,0.20509215223749733,0.16462954979993727,0.13234276584498117,0.09715080106385754,0.07147178406724208,0.04080213301095181,0.021144646552846424,0.0380120737870322,0.06964264747931326,0.09542559914993598,0.12384487806305344,0.14826352381114605,0.16859418405885584,0.19265594874545489,0.20686042353243161,0.22279409949529327,0.24196082882671233,0.2443607263508092,0.23765922841541975,0.22563066011363064,0.22557715084618257,0.23765172426247227,0.2712348210039335,0.32801010587005885,0.3804957208318229,0.4364595656904098,0.5000294245880106,0.5619861617778219,0.6101554487196181,0.6719376245173243,0.735555857838349,0.7991670319078761,0.8580847646325571,0.9079407376859177,0.9673457151265028,0.9986454192895424,0.9837413189428026,0.9460719086845324,0.8855362736269101,0.8219178677712531,0.758298457501505,0.695341879923117,0.6461848631405145,0.5863872373971,0.5227723514373497,0.45915518099503494,0.3978521082785127,0.34960872906609586,0.2872866940756569,0.2306770860406684,0.18458104084939997,0.18320456342966462,0.1987362712041172,0.20518678249013345,0.19027363538793685,0.18920153712970134,0.21311701315264653,0.24470851952268724,0.2627002662641793,0.2538095848230242,0.2597909248082977,PM
0.11258129467748468,0.1514232499768231,0.18776773538854163,0.22322787593479188,0.2493283003451645,0.25377833987612863,0.22964597934509445,0.19819098034273175,0.16670312677213728,0.13522294888351682,0.1073986332206438,0.10677723951329154,0.11416532284213776,0.11304782070658748,0.10808136697149484,0.09271186091955386,0.0851392982651169,0.08510004003764893,0.08907003911346578,0.11980843818772335,0.16670554223360723,0.2274428676325173,0.2768903780894001,0.3375033459723036,0.39919812604874405,0.44862171981158383,0.5093085923461342,0.5722471786767502,0.6283929328296258,0.6812580120066607,0.7440884121357589,0.8070623086280873,0.8680549791479604,0.9172405840455435,0.9668439507505329,0.9586655373939377,0.9073683151263396,0.8462703890186574,0.7970250934281693,0.7356954043653272,0.6727208611316473,0.609995462192265,0.5578435511113993,0.5008877400068794,0.43793992791778846,0.37568992043796223,0.3257430407218549,0.2661311935002102,0.20390764006431406,0.15406862898897744,0.10005853194195913,0.08517651986714592,0.08508608542657292,0.08097603383879148,0.07394992553542057,0.10286711366978363,0.13659998374541615,0.15846515409322715,0.18265376651541843,0.17308322068252346,0.15440257785353717,0.1326850551626837,0.10176570454868639,0.08597583596793212,0.0958926922714407,0.08958682163539544,0.09809251446257505,0.09036033370865848,0.10878761391105041,0.10569089727540204,0.09216324112261809,0.10174409622889202,0.10217674373682595,0.09736663085924713,0.10067894978704794,0.10852931361619778,0.1194849234650377,0.13117900392905169,0.11542353088774249,0.10731384307575231,0.11682459061976758,0.10213387284160502,0.07929498578837979,0.04846169676301848,0.03695839363174658,0.0492207823363886,0.03427020850126361,0.009129428512968385,0.0,0.012879474238234323,0.03648580005677937,0.07283604702088198,0.11418663620961444,0.15103581832461765,0.17628814800511927,0.20538696675627266,0.22108066548760918,0.205898004298517,0.17418691455364188,0.14109026928378787,0.13248015745263197,0.10231091406543147,0.09310066969672137,0.09401240989692772,0.0851843525854119,0.08534608407105582,0.09622082973461232,0.09941260300922572,0.08394954542144006,0.07235580904129835,0.10147315075856822,0.15989184837966874,0.20929272988554048,0.270028893420144,0.3316410001567833,0.3810240716077238,0.44183466485989964,0.5048063146780559,0.5646194373919493,0.6144041582981647,0.675928031168822,0.718909494764636,0.7645464486323994,0.8000472426087946,0.8448669512142675,0.9051799661740998,0.9388970003062509,0.920096660885577,0.8672911384873347,0.8179837649998523,0.7573127893361566,0.6943392538157451,0.6313788326610319,0.5736548866823443,0.5222234162039991,0.45955813823586666,0.3965932447215903,0.3376979186588356,0.2873037893588126,0.22487703542180215,0.1703824682119346,0.11591143325466513,0.06162673605836,0.05179356099417509,0.06512967894762944,0.07226376119548261,0.09501260843718384,0.12887944996159018,0.14531291803072666,0.16406089510008615,0.18672213084719624,0.17440884197147621,0.14371750457291377,0.11989407984475564,0.10464413036425446,0.0972580815538393,0.08425183677395687,0.07190348477918951,0.08321112565249189,0.07774162684948926,0.08180536502836322,0.0850889648907982,0.08584052914553508,0.09884338109340396,0.09229174519875238,0.09252774470521885,0.11607111742553489,0.11933282313932825,0.1222332623704867,0.13482261155139286,0.12167866751305922,0.10587594192693128,0.0900716464889757,0.0746501284923009,0.0675988164093888,0.05268475087112012,0.03482031308449374,0.04512274784784065,0.03537053176265825,0.02785759141235644,0.04902101098954903,0.06437883942584222,0.10225766870824504,0.13992366164336545,0.18549092658536193,0.21827300959065266,0.22983773062164348,0.2350018525887796,0.20847224769736927,0.1733426153841604,0.1399010993319263,0.12067666606059779,0.10541016885662291,0.10221434616746361,0.09938937009370408,0.08601567176237479,0.08797983467332848,0.1012377093719059,0.09332389707786382,0.10717679390165147,0.13671876040145525,0.18346929473485218,0.24230914719803875,0.30325099776031195,0.35249366252826864,0.4141063616849361,0.47699615759215996,0.5310603939983927,0.5859993670353956,0.64888691888638,0.7118194433087495,0.7672304946450139,0.8208177332911446,0.883668034466258,0.946409474746162,0.9953264083391415,1.0,0.9590008933847822,0.8993753696117492,0.836403855158061,0.7754940323094535,0.7261433787080307,0.664596991402242,0.6016218615891971,0.5389983713267239,0.48748661208405997,0.4297960981629294,0.36684706554592816,0.30687663721423464,0.2571884307695993,0.1954338105794302,0.1441620693966037,0.09525694185202616,0.08630812357564643,0.10894975018157638,0.10411000447555141,0.09235957446967147,0.11269284346929664,0.1388127637104013,0.1728834832791084,0.21005412222805564,0.2376470449448682,0.22770821952304754,0.20249641006511832,0.17431394776240827,0.14489851894622863,0.13263192161907922,0.12477902837163812,0.1306928511945844,0.12237583818555597,0.13551669253741494,0.13096502707322255,0.11964663249308938,0.1245147938427027,0.13608379513659052,PM
0.17565815192983614,0.1518341930892948,0.16654958736226266,0.17843558853517472,0.16946208860784484,0.15048486863476462,0.15015863364772652,0.1640384610003931,0.17836824392932815,0.17675606992994197,0.15487903464608532,0.17120445685552976,0.16339677859454138,0.15015372521818726,0.1505532120787203,0.16979274853622606,0.1607435599509044,0.12268284984932709,0.10954259110426179,0.09329608166446501,0.09321739926069839,0.09319430044098542,0.08302398183245607,0.08156164930285659,0.09313950792787029,0.09909483234611471,0.12160661294784614,0.15022260190720704,0.1823410605032274,0.20640859610941487,0.2336206057093575,0.26054939463216265,0.23815564042017456,0.21138523791975583,0.19089007701940996,0.1540645424264131,0.1269328505368339,0.10742468840003827,0.06641116036962114,0.03948583532020766,0.06210274528488924,0.06149976470491492,0.03758358799826311,0.03633629458189436,0.03633619524525855,0.035996614919455716,0.016920170555109415,0.0,0.009574874256152555,0.0774407689604617,0.13955800103852667,0.217695841636945,0.2973588921791368,0.35886505635774846,0.42951676021126595,0.4969534609126791,0.5700470609059547,0.6365222153541836,0.710577138093222,0.7736856447789036,0.8227002405956858,0.8200643930182085,0.7672497144129284,0.6844473257024655,0.600463900950392,0.5164804761983186,0.4324975108781608,0.35097774548096883,0.2904297234568274,0.20898680801207092,0.12527855953801126,0.05880831998513081,0.016742756667651904,0.03479089222631693,0.036996610447274314,0.06141531997420735,0.1026405244281614,0.13219730995180878,0.15026125230323117,0.17257572682515931,0.20458061718142329,0.20278210873024527,0.17958316471768754,0.16648016631305307,0.12555204785171892,0.10150380945727022,0.12108894190853636,0.12173367652885148,0.13760656140869454,0.14999726547255765,0.1501625603910801,0.16454063660419305,0.17922321938251518,0.20172501721566327,0.2334984834787921,0.2746474334687923,0.29269709375092834,0.31180249676345895,0.2972107650870157,0.2923030536953295,0.2923016133141827,0.292195943828653,0.2796794692676716,0.2600147276414635,0.23657212123021765,0.23542040929881125,0.2354204092988068,0.23542040929880148,0.23542040929879615,0.23542219735814118,0.24129784238422491,0.26380803359986693,0.2879985650202448,0.3202173031495308,0.3525941018961518,0.3813946338448986,0.4305042639668848,0.4732651063985731,0.4911397021452668,0.4855221327983088,0.4583155663105858,0.43029900511143726,0.4021782203695663,0.36504369528206215,0.3270301143557157,0.3170412856751925,0.2822577284548524,0.2639465655114792,0.26386101130639883,0.2638605332488586,0.26130806859355005,0.2377567949171775,0.23310482707179325,0.20957335306608726,0.18701227347638572,0.15927859901711816,0.2132937387853957,0.27480444219231437,0.3531743434126762,0.414568671028654,0.4962030543601621,0.5603464909637159,0.6362822498837781,0.7202490247001023,0.8039145275375157,0.8693124300776454,0.9416996560665503,0.9738989813416641,0.942092672345491,0.8834181872861429,0.8008863224356881,0.7169234833074443,0.6422729818760944,0.5770315647339856,0.49339339927417125,0.4096845796144848,0.34294034767772796,0.2698475675426204,0.18766814570286083,0.1389171548160748,0.14836371806262338,0.1501337748642042,0.16093142495505663,0.18858698784045114,0.2164804527783053,0.235438409669678,0.25441551647148586,0.2631526284667096,0.24147761113207444,0.21384860315009835,0.19641076981664707,0.16852478122718662,0.15032084436866722,0.15009860327559732,0.15109995963020317,0.17360536504989277,0.17853315648175272,0.1843688156882779,0.22798346367289657,0.2354106021207194,0.23959562167357173,0.2621074839277844,0.2638607008792855,0.2638617811651365,0.2669466347959695,0.2890018143843909,0.26949618748571336,0.2512451639290916,0.23549168149437705,0.2320488962393732,0.2261685871616761,0.23539273492726664,0.23505050719715026,0.21522136460048902,0.22306878415250875,0.2363384282208676,0.26004453297201024,0.3016533766165086,0.3256466667436895,0.35265536403129705,0.38994002774476577,0.4318645725936898,0.465179632463224,0.4895429483372036,0.49004648259135575,0.4679209752833513,0.44408112450821413,0.40611433899330507,0.37909486343750665,0.33802697014248206,0.32019144205574523,0.29855418392062916,0.27050650486556904,0.2429655772848447,0.24192060623028144,0.26311370186606986,0.2614264011580456,0.23772465175182944,0.21674079996435847,0.18884870237851725,0.16118579233901809,0.15552533368560884,0.212245245175243,0.2735856103595875,0.3558750216937705,0.4398581484359507,0.5233596270077783,0.5878170029395244,0.6633850239169288,0.7449463426004641,0.8054170800744131,0.8850177725732769,0.9450194730649359,1.0,0.9924554662414087,0.9413563352171597,0.8594497203931164,0.7946451571326749,0.7195590711288107,0.6355964093122788,0.5516133446554887,0.46961995098938036,0.40845623531609565,0.3281023437795074,0.24432518573633466,0.17584144782811428,0.1307242610651258,0.1479266520074356,0.1365682431429338,0.15125119029632383,0.18068007585490609,0.2047633440550456,0.22753452554049058,0.2611086654389263,0.263860495997287,PM
0.3903875567356061,0.38423201555002917,0.3642639640063847,0.36376959060774317,0.3637695906077405,0.36376959060773784,0.36376959060773517,0.3637695906077316,0.36376959060772895,0.3637695906077263,0.36431083862672375,0.3846936371318139,0.3782911682312107,0.36383715825252994,0.36376959060771474,0.36606650062421364,0.38815634203564064,0.37277495511634884,0.3640607361849493,0.3816720880681719,0.3903534390291523,0.39073063413181464,0.40900037145795887,0.41682853391236874,0.4006787494664583,0.3904053087432149,0.39038683177445366,0.38311388630503584,0.3668514012479469,0.38850948184738376,0.3909072436032157,0.4111189321325397,0.4171464709678143,0.4327752950371173,0.44345063041060273,0.431116902237235,0.4338678942761862,0.4434506304105965,0.429861475369528,0.4170318313196586,0.41701378360417385,0.42007924655237217,0.4418933490914152,0.44363522191407023,0.4436468308304211,0.4525612557165277,0.48661939989528813,0.5100158628224238,0.5258612863093375,0.5457161001476432,0.5238420091434448,0.49494620245665155,0.4703579694529787,0.45103252148986384,0.4279719680195595,0.4171997351434764,0.4333888088342168,0.43673091223643423,0.4174514140412815,0.41783410082633443,0.43801394693703477,0.4206023227203839,0.4170137836041259,0.4175525645378406,0.4380058487150511,0.44542337622234607,0.46759981504851256,0.47025611650310717,0.4694842782733999,0.44720583342926856,0.4116292095200005,0.3755853123266051,0.3312360003911947,0.2837880650751736,0.23646177352358633,0.19214290553410995,0.1488362384169828,0.1068556306170021,0.07094268814099669,0.04498345094050027,0.04852272497420751,0.07252891673092288,0.11338501982781635,0.12464141449929622,0.1480243304469533,0.18369441821182475,0.2245554216704666,0.26856086137384283,0.2928886614564603,0.3327676242890898,0.3804207667490016,0.42577601113886,0.467688902766938,0.51527100351402,0.5632452939701031,0.6275149182012485,0.6773036442122771,0.7460337224754103,0.817859036565125,0.8896864969212142,0.9574852098061037,0.9956515535800139,1.0000000000000004,0.9583455631361466,0.9106880038720377,0.8630548144739154,0.8221519430577335,0.775837767107014,0.7281741315243209,0.6788196831773559,0.6244967806600354,0.5671284267695866,0.5170103740692693,0.4725048723081158,0.4650083931581457,0.441198355853881,0.4103632075202017,0.3910597128163773,0.4090886448192328,0.41699411999263036,0.4170137836040433,0.4192702434662414,0.4415992980438266,0.4436344587970056,0.4435597747811637,0.43290774138548604,0.4171578308925912,0.41734779645931797,0.435563619048398,0.4436127749231997,0.4473485455192798,0.46869454219882156,0.46076847689312794,0.43663252097073846,0.417419341932487,0.41701378360400687,0.4170137836040042,0.417335461032883,0.4354164967793044,0.4441801863978978,0.4650216427758447,0.47912873895528785,0.4966398319199512,0.48980824347455565,0.46980814121057035,0.449108127231296,0.4435017551070497,0.4288902021467993,0.41703015246220465,0.4170137836039731,0.41701378360397046,0.4170137836039678,0.41763151126671305,0.43755041020669116,0.42346513426052956,0.44166545952942515,0.4436346304982366,0.44363588010221333,0.4436065801013327,0.4352987989639989,0.4161417586708587,0.39499425591728743,0.3909984147966541,0.41219046049637376,0.42650289600942903,0.44345996931876774,0.4436499596096186,0.4541960386667854,0.47734578970344765,0.5119026828224107,0.5442501361084235,0.5381561363352074,0.5241701953075473,0.545141572691795,0.552357133626797,0.5746965319180632,0.5694082725017222,0.550519956082558,0.5501242660952061,0.5506457774319462,0.570818423497045,0.5649988813580378,0.5502115704222681,0.5488375142077406,0.5278201851010684,0.5214684078078515,0.49196723059855385,0.470926002310994,0.4875939924471475,0.47851458914793854,0.4702774360822093,0.4780285583389019,0.4964777511529781,0.5091096819042105,0.5233689342525358,0.5233276354405461,0.5064575212256686,0.4921139868141817,0.46834172999401646,0.4376416429745853,0.40163437414947767,0.36510436614854624,0.31746294572398304,0.2698004643556522,0.2221367715391902,0.17258290347677674,0.10868581592047688,0.07028088572426272,0.03464776304884731,0.0,0.0018082493024262902,0.026307671915093866,0.0860755341796593,0.12991532689454255,0.1621700704202964,0.17181686307790267,0.17734673920291,0.17287078669398648,0.14139733416854794,0.09972490268675971,0.09152128791710501,0.09888345645155949,0.1392239531926518,0.1699224098218397,0.17728288767678846,0.17743258127651051,0.19044248712854506,0.22568093509161224,0.2729830873732655,0.32411936910488715,0.375605677990245,0.4339841918170193,0.4818968164011932,0.5324123728770309,0.601477975675031,0.6512063791860458,0.7201422950804139,0.7898528583934392,0.8393413607853284,0.8909179910837417,0.8952474266218666,0.8642395050240501,0.8153531321658094,0.7601623041365397,0.7114883439346671,0.6632560153956777,0.6105308534327318,0.5599854755895941,0.5018300797233217,0.4541254265240853,0.4073838173069384,0.3904100400678048,0.3903916871055446,0.39039168710554284,0.3903916871055393,PM
0.14405536510895445,0.14405536510895445,0.14490821758014638,0.1602391419878093,0.16527863195719528,0.18141279818504286,0.18336012049843609,0.18336121271367922,0.18335889175628495,0.17943588306494318,0.15368692082504198,0.1441103214612598,0.14400831451903606,0.13517717443154886,0.12450211449329096,0.12257591371050358,0.10655992254073698,0.10401997230116145,0.08904789677973612,0.08510041645520872,0.08509659370185307,0.08668808561996455,0.11319730913443005,0.17020687899632891,0.23376518199502927,0.29718360036050884,0.34778504176781944,0.4048887058854138,0.46844421328208297,0.5320184643324839,0.5890753013838199,0.6398465285451946,0.7031232445691349,0.7655092398381371,0.8129492814225467,0.8714555969569378,0.9148145987104273,0.9273904327538469,0.8856911457202994,0.8318459130714868,0.7781844168886916,0.71468378798229,0.6511007992099351,0.5875313138031055,0.528922798142204,0.47949604525620426,0.4164217679228819,0.35283877915052875,0.2892776805497945,0.23157207581487738,0.18144050981609094,0.11815974786347505,0.0545999494678755,0.0032987411398091027,0.032767468919914666,0.05797633111655731,0.06540780171770155,0.06544858486808369,0.06999876048635523,0.09787652640926536,0.12273554372465423,0.14271962929585236,0.18248110752265623,0.21410227485594424,0.23534117863488513,0.23163945465692182,0.20894291022395928,0.18476468456220463,0.16787364486527157,0.14363223071507258,0.12505263191182392,0.12440244130657163,0.12597496878293812,0.1421069505802972,0.14405427289368955,0.14405536510893358,0.14405536510893358,0.14405754953942074,0.14729194329111506,0.16062880020014347,0.13820965229586601,0.12452890043630926,0.1197182307402831,0.10543682052925973,0.1159096909638917,0.124358186318684,0.12440244130656408,0.12440244130656364,0.1255306066034838,0.14101174457955734,0.12864493997404036,0.13403836588362994,0.159781184412783,0.16114811876246904,0.145114156091791,0.14259449831051896,0.12692647902353293,0.12440080298369383,0.12093329438305034,0.10537302519391378,0.09278780414898113,0.08512414654050016,0.08509659370182865,0.08509659370182865,0.08479032095341354,0.0719785593424338,0.0654524076214158,0.06526561042928236,0.05504177644706143,0.06733810598946954,0.1205217027380252,0.18405484531843452,0.247633465229812,0.30703164222511026,0.35575854610363233,0.41873387660548644,0.48231686537784135,0.5458938469663526,0.6045800296040622,0.6538473939191878,0.7169958966648942,0.7797260329660558,0.8279780973307469,0.8865024951650633,0.9224620249165536,0.9065760230713371,0.8587152387814943,0.8081596192219482,0.7447412008564682,0.6811582120841138,0.6175752233117593,0.5539944189698942,0.4938783926905592,0.4456263283258677,0.3828961920247056,0.319313203252352,0.25573812664145645,0.1965276703632326,0.1475707928857557,0.08504301533630132,0.03566257638471626,0.0,0.02974675869294119,0.04562482591703798,0.045800029926670316,0.0527132603052789,0.06848307007006893,0.09413069133220464,0.12151563270506971,0.15849733513282427,0.18462608790967527,0.20179622442128142,0.2025773295319615,0.1849975135160733,0.15439694380390323,0.1308476767863076,0.10683257606739138,0.10188790240206069,0.08608710258587404,0.08588061796657787,0.1005934039546239,0.09047284118321297,0.08554357633350351,0.09945777511650844,0.10469735035483918,0.09748684964398002,0.09807611245627212,0.10471924052645942,0.10474951750417727,0.10474951750417594,0.1047495175041755,0.1048136083610327,0.11398248929023103,0.12428331265436032,0.13016645008005412,0.14369780704919322,0.14405536510890027,0.14405536510889982,0.14539001502511484,0.16396996945465148,0.1902382291418725,0.20088697988264537,0.18493374018999287,0.18336121271362504,0.18333932254200347,0.17746193850456615,0.16401051573099812,0.16370037674980065,0.15932784425567004,0.1446714559830733,0.13724288179107802,0.12169626210673679,0.10574002638822222,0.10472203612847908,0.09824271147371944,0.08527044793824956,0.09206274532725933,0.11365054344730474,0.14510576759150817,0.1980031227886907,0.26151048618654693,0.32444710710700475,0.37340398458448254,0.4326144408627024,0.4961895174735993,0.5597725062459538,0.6232548661432618,0.6761637506656988,0.7309155993505669,0.7944488069948972,0.8545589783477832,0.902930810944437,0.960159727779339,1.0,0.9914752886797595,0.9443664273013868,0.8880735208454444,0.8245089504072123,0.7609259616348583,0.6973760454422564,0.6408743219419826,0.5896836177223812,0.5262469303478063,0.46266394157545143,0.3990828641797748,0.33835957913286263,0.2905773901766957,0.2279849102883973,0.16478512223139985,0.11509328810726283,0.05705041909277986,0.014798115370509901,0.044810772527583254,0.06483075854259956,0.06581472492560136,0.07950490815678535,0.08903480939392949,0.10906908701736784,0.13834449910559243,0.17012071547376673,0.2018185120738325,0.22646985617756954,0.24124708060848254,0.22277887957695075,0.20214971896216838,0.18353840762542184,0.1568352978163019,0.12895753189339043,0.12440735627511712,0.12440244130651745,0.12440244130651656,0.12440244130651612,0.12440244130651568,0.12440244130651523,0.12440244130651434,PM
0.17565815192983614,0.1518341930892948,0.16654958736226266,0.17843558853517472,0.16946208860784484,0.15048486863476462,0.15015863364772652,0.1640384610003931,0.17836824392932815,0.17675606992994197,0.15487903464608532,0.17120445685552976,0.16339677859454138,0.15015372521818726,0.1505532120787203,0.16979274853622606,0.1607435599509044,0.12268284984932709,0.10954259110426179,0.09329608166446501,0.09321739926069839,0.09319430044098542,0.08302398183245607,0.08156164930285659,0.09313950792787029,0.09909483234611471,0.12160661294784614,0.15022260190720704,0.1823410605032274,0.20640859610941487,0.2336206057093575,0.26054939463216265,0.23815564042017456,0.21138523791975583,0.19089007701940996,0.1540645424264131,0.1269328505368339,0.10742468840003827,0.06641116036962114,0.03948583532020766,0.06210274528488924,0.06149976470491492,0.03758358799826311,0.03633629458189436,0.03633619524525855,0.035996614919455716,0.016920170555109415,0.0,0.009574874256152555,0.0774407689604617,0.13955800103852667,0.217695841636945,0.2973588921791368,0.35886505635774846,0.42951676021126595,0.4969534609126791,0.5700470609059547,0.6365222153541836,0.710577138093222,0.7736856447789036,0.8227002405956858,0.8200643930182085,0.7672497144129284,0.6844473257024655,0.600463900950392,0.5164804761983186,0.4324975108781608,0.35097774548096883,0.2904297234568274,0.20898680801207092,0.12527855953801126,0.05880831998513081,0.016742756667651904,0.03479089222631693,0.036996610447274314,0.06141531997420735,0.1026405244281614,0.13219730995180878,0.15026125230323117,0.17257572682515931,0.20458061718142329,0.20278210873024527,0.17958316471768754,0.16648016631305307,0.12555204785171892,0.10150380945727022,0.12108894190853636,0.12173367652885148,0.13760656140869454,0.14999726547255765,0.1501625603910801,0.16454063660419305,0.17922321938251518,0.20172501721566327,0.2334984834787921,0.2746474334687923,0.29269709375092834,0.31180249676345895,0.2972107650870157,0.2923030536953295,0.2923016133141827,0.292195943828653,0.2796794692676716,0.2600147276414635,0.23657212123021765,0.23542040929881125,0.2354204092988068,0.23542040929880148,0.23542040929879615,0.23542219735814118,0.24129784238422491,0.26380803359986693,0.2879985650202448,0.3202173031495308,0.3525941018961518,0.3813946338448986,0.4305042639668848,0.4732651063985731,0.4911397021452668,0.4855221327983088,0.4583155663105858,0.43029900511143726,0.4021782203695663,0.36504369528206215,0.3270301143557157,0.3170412856751925,0.2822577284548524,0.2639465655114792,0.26386101130639883,0.2638605332488586,0.26130806859355005,0.2377567949171775,0.23310482707179325,0.20957335306608726,0.18701227347638572,0.15927859901711816,0.2132937387853957,0.27480444219231437,0.3531743434126762,0.414568671028654,0.4962030543601621,0.5603464909637159,0.6362822498837781,0.7202490247001023,0.8039145275375157,0.8693124300776454,0.9416996560665503,0.9738989813416641,0.942092672345491,0.8834181872861429,0.8008863224356881,0.7169234833074443,0.6422729818760944,0.5770315647339856,0.49339339927417125,0.4096845796144848,0.34294034767772796,0.2698475675426204,0.18766814570286083,0.1389171548160748,0.14836371806262338,0.1501337748642042,0.16093142495505663,0.18858698784045114,0.2164804527783053,0.235438409669678,0.25441551647148586,0.2631526284667096,0.24147761113207444,0.21384860315009835,0.19641076981664707,0.16852478122718662,0.15032084436866722,0.15009860327559732,0.15109995963020317,0.17360536504989277,0.17853315648175272,0.1843688156882779,0.22798346367289657,0.2354106021207194,0.23959562167357173,0.2621074839277844,0.2638607008792855,0.2638617811651365,0.2669466347959695,0.2890018143843909,0.26949618748571336,0.2512451639290916,0.23549168149437705,0.2320488962393732,0.2261685871616761,0.23539273492726664,0.23505050719715026,0.21522136460048902,0.22306878415250875,0.2363384282208676,0.26004453297201024,0.3016533766165086,0.3256466667436895,0.35265536403129705,0.38994002774476577,0.4318645725936898,0.465179632463224,0.4895429483372036,0.49004648259135575,0.4679209752833513,0.44408112450821413,0.40611433899330507,0.37909486343750665,0.33802697014248206,0.32019144205574523,0.29855418392062916,0.27050650486556904,0.2429655772848447,0.24192060623028144,0.26311370186606986,0.2614264011580456,0.23772465175182944,0.21674079996435847,0.18884870237851725,0.16118579233901809,0.15552533368560884,0.212245245175243,0.2735856103595875,0.3558750216937705,0.4398581484359507,0.5233596270077783,0.5878170029395244,0.6633850239169288,0.7449463426004641,0.8054170800744131,0.8850177725732769,0.9450194730649359,1.0,0.9924554662414087,0.9413563352171597,0.8594497203931164,0.7946451571326749,0.7195590711288107,0.6355964093122788,0.5516133446554887,0.46961995098938036,0.40845623531609565,0.3281023437795074,0.24432518573633466,0.17584144782811428,0.1307242610651258,0.1479266520074356,0.1365682431429338,0.15125119029632383,0.18068007585490609,0.2047633440550456,0.22753452554049058,0.2611086654389263,0.263860495997287,PM
0.931070515780736,0.979456560430235,1.0,0.9753750888030943,0.9223950916323238,0.8769480557119738,0.8218935061272754,0.7641369625504679,0.7063781972290402,0.648619431907612,0.5908606665861833,0.5331119375560802,0.4793340956556862,0.4410981106815983,0.4055504383422859,0.34965699117419113,0.3025096726888026,0.24963386058413128,0.199761812504462,0.15242095339680706,0.10763648558760286,0.07648262662115712,0.08896309950472325,0.11208488959221974,0.11755960434342372,0.11531911520420879,0.11618660689617633,0.1058864684524008,0.09927089781728382,0.09791212227187662,0.11189651722795046,0.12130790405968339,0.12143942842834887,0.12143942842834443,0.12143942842834088,0.12266427255195245,0.13787133115300554,0.15386149423500983,0.16730348982159615,0.16442082608075248,0.13968219266607518,0.120220757726484,0.11042324147118965,0.13858895071301225,0.15260496206718877,0.1529387747899449,0.15027093339428266,0.13744584393459958,0.12514302920832243,0.11533708568093726,0.1189071579805332,0.14226404264589654,0.17235793732134486,0.20252166021609197,0.23323067814293674,0.2765512451728571,0.33234927640242606,0.37760603201375886,0.4333375943182247,0.4908424958897055,0.5383011227673626,0.5908753044459392,0.6486194319074956,0.7063606241089717,0.7593289984127138,0.806382088390563,0.853239393571553,0.8905831784601408,0.9345792635622638,0.9513583676037771,0.9199558070763012,0.8644365374193881,0.8181385270622861,0.7641336299334225,0.7063781972289256,0.6486730319369673,0.5973374986408038,0.5551265933277088,0.5203195185210019,0.4656243194968752,0.42801741113101155,0.3886902803443717,0.3387771969389828,0.28309168876050883,0.2378400901538762,0.1839717886071024,0.1386057210312086,0.09521910961560476,0.09474594409841997,0.10657612526036697,0.11907785725238273,0.11049416886945629,0.1057046110059976,0.10568160316326303,0.1030170943845321,0.094513232381078,0.11139993375673862,0.11484904248163508,0.10962559467934607,0.12720048960562913,0.13438701848333023,0.12222844359685547,0.12005663220427065,0.10721118767054705,0.09649083035269923,0.10051963000625452,0.105718454152123,0.11348315683010535,0.12134797710144252,0.12309510258140355,0.1360620533421657,0.1477444325737296,0.1532860904833071,0.16475979580807287,0.16725016751005795,0.14800533194803522,0.1258540507396959,0.10267169007267363,0.07934673976976248,0.07410726772242748,0.06624355832339557,0.06328721713989438,0.07760592260634747,0.08934550167357491,0.0838323045963798,0.09016039404383669,0.11856928882786999,0.15259603242852737,0.20380073063883142,0.25009441714546155,0.3069611179956193,0.35326026041599423,0.40709281321816704,0.4648382096313384,0.5188431067602042,0.5651422279896132,0.6223654476703468,0.6801242129917742,0.7378654051932507,0.7908337794969933,0.837979431673912,0.8925267851780334,0.9191708030783121,0.8930623308187307,0.849641086401943,0.795639244171932,0.739911014484397,0.6946539811549846,0.6381178382125521,0.5803596283272792,0.523983103793646,0.47893825863726835,0.4228340565967361,0.36513000217708713,0.31377983102105267,0.26516227512226953,0.20893529294949031,0.16390508565298312,0.1129960589827812,0.07118624373002236,0.05201705880735874,0.04229147243724629,0.03147185658915541,0.04005358634156764,0.050721190534120275,0.06888503837691884,0.0714797049633078,0.05392709772611548,0.033586003767951844,0.010204479410342415,0.0,0.017728761137605797,0.040229194060524165,0.054487627289746765,0.05705460686393371,0.04900958963922175,0.048678906748520046,0.04902890400083937,0.06310630602821554,0.07384872179676938,0.07412865677197678,0.06772006260657992,0.05980425274370216,0.07487823123154369,0.09436407349784526,0.1209583813271835,0.1429493894514242,0.15446835929700242,0.16676822189869878,0.15242563634775896,0.12380244352608116,0.09704383260923599,0.08963264824383499,0.0782526646623416,0.06114384056917688,0.05449556147516077,0.04229643827085283,0.03085636677974124,0.043507641132610075,0.0670277273015798,0.08192394256179503,0.08840025416832509,0.06706231208879476,0.06070073043834201,0.10788047425998393,0.165546121946186,0.22305185667190175,0.270510483549558,0.32272814639756087,0.369012650958064,0.42284409288792535,0.4789382586371347,0.523983103793511,0.5795700577223575,0.6250387237886446,0.6789048035907981,0.7204889547800191,0.7328308637042191,0.7087033103330551,0.6654993663330391,0.6207097735169951,0.5646156077677875,0.5107841658379244,0.4644850234175477,0.4070827769266945,0.34932401160526627,0.2915652462838372,0.23389904316147936,0.1840039872390804,0.13412681110443447,0.08583607846821506,0.047912551245776314,0.04268080833387966,0.04267747571694436,0.0426785865892505,0.044333149870141586,0.05707888365816194,0.06473135236385552,0.07391920806400387,0.06476372142297748,0.06476372142297393,0.07404989927843086,0.07215422063013399,0.05932006450574079,0.04918716813374413,0.06485072580789542,0.07015289035551175,0.05878638508968104,0.05846167988207451,0.06473190779997173,0.07409678655862839,0.08201018936838045,0.095810591680626,0.09465714123846558,0.09721279376686409,PM
