0,1,2,3,4,5,6,7,8,9,10,11,12,13,14,15,16,17,18,19,20,21,22,23,24,25,26,27,28,29,30,31,32,33,34,35,36,37,38,39,40,41,42,43,44,45,46,47,48,49,50,51,52,53,54,55,56,57,58,59,60,61,62,63,64,65,66,67,68,69,70,71,72,73,74,75,76,77,78,79,80,81,82,83,84,85,86,87,88,89,90,91,92,93,94,95,96,97,98,99,100,101,102,103,104,105,106,107,108,109,110,111,112,113,114,115,116,117,118,119,120,121,122,123,124,125,126,127,128,129,130,131,132,133,134,135,136,137,138,139,140,141,142,143,144,145,146,147,148,149,150,151,152,153,154,155,156,157,158,159,160,161,162,163,164,165,166,167,168,169,170,171,172,173,174,175,176,177,178,179,180,181,182,183,184,185,186,187,188,189,190,191,192,193,194,195,196,197,198,199,200,201,202,203,204,205,206,207,208,209,210,211,212,213,214,215,216,217,218,219,220,221,222,223,224,225,226,227,228,229,230,231,232,233,234,235,236,237,238,239,240,241,242,243,244,245,246,247,248,249,250,251,252,253,254,Target
0.4257265623604951,0.4101861979769881,0.4056867829502444,0.37298201885111215,0.330592247172111,0.2652210368180823,0.23449326655675984,0.21484230382888514,0.1773079296189768,0.10457520702570644,0.05976391302637385,0.0,0.05271235983579592,0.170725065324989,0.24831922744776547,0.3291615577380398,0.32379640842248847,0.26602731238371113,0.2538082080850055,0.300921605661995,0.36240843795379396,0.4261139526070714,0.45859420425749464,0.5057281902732722,0.6050616242302262,0.6870414295901686,0.6853206497325943,0.6844403116751501,0.6042718952526194,0.5233838166182561,0.4776782025564752,0.4839794982433876,0.5169648228058894,0.53118571839472,0.49984043255146204,0.46685778044509396,0.4665170504795486,0.49436134520444464,0.5588819099798572,0.643384314133177,0.7103992839923672,0.6989913102681218,0.6104523376025566,0.5253103727450501,0.4641623721860513,0.45490705638166107,0.47967353875485985,0.5159805020883939,0.5646904501599086,0.5823400183377085,0.5663619057883684,0.5594180025540876,0.5712581518817101,0.5623061532112636,0.5517124841264689,0.55829426567949,0.5467533685661246,0.49627559547998557,0.4164339686147578,0.350036810179716,0.3324977311366015,0.3798780976375,0.4284767758540977,0.4494801660073504,0.48880361233815606,0.5834454221084862,0.6221079275790173,0.5499690631429419,0.514728054356258,0.4619228969943001,0.4190218476945309,0.40744258526180177,0.3956807701160394,0.36094350144817033,0.3195614019991755,0.2718544580880917,0.267441463072152,0.3179588169747194,0.3882500762670662,0.46407121916055827,0.5413361809837975,0.5580674066698172,0.5089105118583044,0.47661954627348857,0.457202899234995,0.42462085526106597,0.4083012102735166,0.4200804468288011,0.434216143614675,0.4362333441827069,0.42631168339248404,0.41529380922183723,0.4317294164589711,0.46036757676008166,0.5021813074664445,0.52404228056972,0.49979783139155565,0.45693495108078164,0.39339802787663647,0.35999377890669004,0.39270221654990145,0.4563607856704013,0.5134550074883242,0.5320225838299892,0.572733231172049,0.6693502428898417,0.6995468490785699,0.6072460807530433,0.5282319418406787,0.555571401179968,0.5437435917938642,0.5028014330976567,0.46253082225882913,0.4474242881324768,0.4410691927306254,0.4367173640459825,0.4039624189953006,0.3936010084166299,0.4392707045452622,0.5122204812340967,0.5995443212824161,0.667602030561349,0.614561182203095,0.5320830774709142,0.47035033443200636,0.4326474810919638,0.42035370874403544,0.4234701613847962,0.47107238374866656,0.47941502777597167,0.5109389807821239,0.5679448743297324,0.6501442683856986,0.7329572844181138,0.7757085499944525,0.7249278441455655,0.6351152353499692,0.5469218273885579,0.47400118307323913,0.46753950702077374,0.4960972150291001,0.5102283019355065,0.5042414837895235,0.5306687904134635,0.5750749969529503,0.6175580024018772,0.6691837185555234,0.7306759157438227,0.814359508629825,0.9218922965941019,1.0,0.959289431773068,0.8579988825980553,0.7453170387687109,0.6395501438434259,0.5823847055156546,0.5636583455684541,0.5087376039974019,0.45134118592394934,0.45022421300290993,0.5127482734297168,0.5534423892726492,0.577318228162806,0.5738485129023525,0.5383427879517386,0.4962769785300378,0.4783699487314039,0.48770184691990925,0.4905470156246574,0.49753051618731226,0.49053001578335476,0.46514609437129284,0.47935299724660885,0.5130515374720264,0.5292740926543522,0.5669705923998878,0.6291931552997307,0.6531248542623755,0.6003020913139534,0.524056965145018,0.4462568485128986,0.3694495001941198,0.3236074094719328,0.3557937447087993,0.4081184297800573,0.44059569749805405,0.4561004253593688,0.46208830897098174,0.5072560252496614,0.5809097967065422,0.6726150856893147,0.7211827815223693,0.77951553342871,0.8679398336405111,0.8567250836503275,0.7620991352239033,0.6544247809016741,0.5487529558330442,0.5077594172636588,0.48945833636232017,0.44745385716611574,0.4136223913765664,0.45666330681763734,0.5305479393905776,0.5898930440166823,0.6185827626228475,0.6123037856082663,0.6060778462031822,0.620316542482076,0.6212459025389148,0.6221072539819983,0.6421099498206169,0.6582771775161191,0.6181297566472019,0.5709129669457145,0.5290740020789415,0.5120565187858834,0.5675297407792339,0.6497541672688407,0.7337372384039003,0.8095025567759868,0.8053803135358577,0.7457922925973968,0.6644486692684706,0.5807677917351564,0.5346341084938722,0.5432371948610717,0.5699096530312229,0.6067698179767849,0.5959651370676107,0.5595336726813693,0.555578092337178,0.618686213270272,0.7010317041293064,0.7944807311868365,0.8856942267779262,0.8755882198616702,0.8818089480092013,0.9151969650433012,0.8352061867060407,0.7250570373440133,0.6150861620877341,0.5315377192780337,0.5001937090987623,0.45223231494346106,0.3946530341885448,0.33730842439706255,0.34992460977895057,0.40473600995661707,0.42216002876135494,0.43724653848467954,0.46958499523897856,0.4732602814807736,0.48527429450261517,0.4813193547889085,PM
0.1955220059012135,0.20369994532861768,0.20499665049239235,0.19671222983571734,0.18526966669682965,0.16953094099342847,0.14996198120951187,0.12221529808039344,0.10331205288546097,0.08095031299131161,0.0730583653286847,0.0764916442058563,0.09742387995940982,0.12324222097601978,0.1287249008251905,0.13920678295468258,0.17405513851147503,0.23701070104988298,0.30695555035245237,0.3778128820269777,0.4543964050478746,0.5259094826895219,0.6031981803503041,0.67484102918696,0.7509957655905415,0.7895357691514004,0.7372446571950235,0.6668508465831586,0.6058792417186265,0.5511796093785695,0.48848737837702694,0.42202168511306515,0.35414596368130447,0.2857543888328755,0.2146037708805406,0.1490064413589991,0.10601033753102107,0.08901901548067181,0.07766270599462843,0.0679376907591227,0.04852519795789645,0.045137505824688784,0.06336086163771704,0.09978861816230378,0.12798541283332554,0.15457580827704742,0.16982915374756136,0.1647944901222309,0.16138949470162167,0.16274253237818992,0.1719044774952312,0.18311654127843258,0.1928869990220199,0.18414717734770858,0.1751114490520116,0.15871144845057117,0.13972957249295792,0.13152580200215924,0.14049143838855982,0.14946934553418467,0.14864903068612634,0.15337043189000887,0.1913297820167308,0.2537732320393571,0.32348697814571414,0.3962335195461406,0.4676400409010577,0.5448124295908034,0.6166325160367039,0.6939680964261077,0.7697207217856856,0.8346836744378632,0.8216005143136804,0.7508975863554321,0.6816791731472838,0.6318311891840394,0.5741955554877294,0.5186549236705253,0.45197348564856266,0.3829203672528545,0.3138717672118001,0.24361361657103275,0.16956942749445947,0.11151904756790953,0.06753309230844762,0.03997886463988398,0.025107241831899385,0.008210095454143973,0.0,0.01662074989564233,0.048211373338442165,0.08624613587700458,0.11901607800182634,0.12979766828074224,0.14027291812576936,0.1524876763458738,0.15163357751609574,0.15975544202416425,0.17133297605869524,0.18880301881257933,0.2024166576293165,0.19208879038858706,0.1877382239236196,0.16649521948069324,0.15061630754974997,0.14449657973448793,0.15425829546910963,0.1512140175475527,0.13222979619815578,0.11304558277626198,0.12424100590096643,0.18405561731551567,0.25444182625883327,0.3252805839384387,0.3986906599362168,0.471794095101173,0.543875065909398,0.6204882658687569,0.6952664145120935,0.7332916585820828,0.6836002827840899,0.618028309702652,0.5864633924250648,0.6392384222159067,0.71156280090375,0.7824099243518414,0.853153263522987,0.9181800479106712,0.9183745139998669,0.8559231952605393,0.7818691940381395,0.710371778189314,0.633191635568165,0.5613844674736257,0.4839845316857596,0.4042972380335763,0.32883448118139413,0.2577758709097413,0.18962041320673761,0.15273701028254671,0.16831939764866144,0.18678713047774198,0.18745480887314891,0.1803054947349354,0.1849441981862423,0.2090163288610467,0.2213104919895026,0.23362520945329313,0.24097001197776713,0.22175553923730984,0.2019309005080996,0.1935620015702295,0.18364874245334772,0.1837608108779767,0.1742059910249132,0.16585720786263325,0.15215621471519403,0.11903404599731071,0.08279561562945559,0.04775012091409292,0.03681712877255161,0.05087474729807884,0.06340630822358762,0.09226452879428093,0.13567169786583388,0.19548842276187162,0.26251926785378354,0.3308202353189793,0.3941257537752352,0.4577800332232853,0.5275272638631578,0.5832885304429849,0.6422858253811528,0.7039574192118121,0.7730100437517888,0.8414470702070929,0.9099724906800628,0.9802872553300384,1.0000000000000002,0.9421563871287668,0.8710508472861995,0.7980299620007985,0.7378466103768149,0.6700487968530864,0.5966971975275837,0.5187664041347413,0.44730106704949235,0.3717774434472034,0.30172718810523147,0.23285036157728833,0.18977913168539717,0.1837046230325441,0.17941406860132636,0.1745480535418793,0.16741413692244156,0.18153460273206257,0.20178590370272786,0.21384015976130444,0.22071547383412438,0.2172571872213056,0.20847821840485303,0.1999733564320587,0.19893730515759622,0.19893574911747436,0.19837511287333576,0.18713105315626688,0.16310173263654937,0.1361325157006843,0.10217448362843573,0.0829374595528034,0.09896892764719789,0.10569831982942302,0.11171746057715892,0.1280474701675942,0.16293536085679827,0.22161187793518033,0.287577755061466,0.3572315093543359,0.43005124104061365,0.501307723720531,0.5643868771423632,0.6183126782463171,0.6772676558157895,0.7415705882106669,0.8101070701835205,0.8809801565023629,0.9552135908088857,0.983422025188087,0.9309720363819844,0.8564336191184434,0.7847885217629924,0.7074776387879063,0.6360083077956864,0.5594079796950437,0.48780368334137036,0.411359117483203,0.3398244002465789,0.267380825049635,0.19820639949291663,0.167780827651564,0.1642184590002933,0.15014694844630894,0.12362098182453818,0.10274202329497562,0.10320617809051869,0.125610769660909,0.1454258983632828,0.17096412584766219,0.19134427569969992,0.21268592479223059,0.22551005675271174,0.2323390011223332,0.23803697934118406,0.23709580867063096,0.23337538640389588,PM
0.11892188086422717,0.17177344458274235,0.15452910282182786,0.09671176552476246,0.04277234429915189,0.0,0.025937746441853315,0.06622136860459449,0.05708444810859725,0.0344125232183774,0.06003514797511911,0.08718590860451791,0.10959901576479236,0.1686919197298753,0.24879690485480244,0.3379374998031499,0.42792860689816403,0.5220968193249584,0.6135539135747246,0.6726303724652389,0.6308970781832435,0.5432511950309362,0.45345331167620184,0.36570245695945247,0.28012657622143444,0.19982060058906148,0.13099204902973982,0.09476407045064783,0.09079816616537917,0.11815723652139698,0.17442481356722728,0.24288751866682023,0.3010224899799838,0.2859890515610797,0.22994634944392334,0.18298785095173264,0.15905737160456956,0.1572246481891919,0.14396062543741883,0.14333474268720536,0.13494384974753726,0.15264693445727273,0.22365493582283724,0.30871057820607395,0.3971832665206392,0.48591806026090856,0.5776373984897061,0.6674810266940852,0.7487576005994434,0.735103681491843,0.6466011106898422,0.5580406116750163,0.4644829561601105,0.37276866097438344,0.29287831639223527,0.21601089385031336,0.13873445355677116,0.0814626410193755,0.05307129688265433,0.05088739434571399,0.08462875163281769,0.14361331801464883,0.2115636239257228,0.28149415326553884,0.2945450364688573,0.23891365719565272,0.19589128777638476,0.18191222354667214,0.1760546710338151,0.1749921601771851,0.1944862487453931,0.20813212716026608,0.27067334332507964,0.3582273593331433,0.44601594012711465,0.5357463775847533,0.6246622112493263,0.7164173937946983,0.8061752128962403,0.8820573485310823,0.85077587260064,0.763571090522559,0.6722448279446043,0.589186514328204,0.5237991814107743,0.4582123237126543,0.37789703763195104,0.29335943769891326,0.21004262787297634,0.14858875767235036,0.10944938358107015,0.08884569747239879,0.11030220169998617,0.16935098987033337,0.23589296812363925,0.29948552250903404,0.3031505089975257,0.24857282838511652,0.19841559624520522,0.16996971292035057,0.1630000040746602,0.150013557131641,0.1488798556488118,0.13463476935105811,0.15747578525659933,0.2329253906590394,0.31952720691100667,0.4083702938585705,0.4981647721303528,0.5923185424662236,0.6864727137842541,0.75860551101341,0.717114852687982,0.629802264165193,0.5379087547310533,0.44938496436297015,0.3597569320527654,0.2734083698134193,0.19018839971542523,0.11282976567830794,0.0573813655969484,0.05655574752048809,0.09187051289492021,0.1613458836889956,0.24628274465693423,0.33209554471685565,0.42017438165470056,0.5104587211115317,0.5988720122279114,0.6894506908509208,0.7787725300071477,0.869036782164081,0.9395735682868342,0.9129090585152579,0.8295953506961586,0.7397584443911678,0.6493544186561679,0.5591005902867558,0.46669975028938193,0.37868218058749425,0.2912596916373289,0.2075750176258011,0.1637362293450817,0.17331692899374107,0.17857803997122468,0.19012679315791847,0.1955737529654391,0.23068590471633565,0.2844140902078651,0.3421039563890498,0.3507438020724638,0.2946346354913889,0.2265003218285413,0.15850616368573944,0.11633283754009516,0.1259825853637837,0.164409337651358,0.22700620929905568,0.30651501976285833,0.39029108184470873,0.4818813192870346,0.5759795482726078,0.6656758107276617,0.7560818990567633,0.8445805417762415,0.9350997154079916,1.0,0.9673804706126212,0.8839621303309984,0.7961622450582222,0.7028487830117651,0.6085134207692919,0.5159457436717765,0.42773273243460386,0.34028137211524,0.26006840211818627,0.2196176407834196,0.2076871657971806,0.1977410774830659,0.2035938118678866,0.21923585722910577,0.26169497119393137,0.3224103140100094,0.3474542718965652,0.296472955270928,0.2270918311054373,0.16041624552828715,0.10100686211319321,0.08177813928588673,0.09751335079300794,0.1547142610934693,0.23329756321164985,0.3179343565328041,0.4042727342190935,0.4928615258051807,0.5836386956880131,0.6732942467420371,0.7633386755527003,0.8467897740571968,0.913513778727959,0.8923338881978977,0.8117182572063604,0.7315061182772058,0.6503042097506975,0.5588420298690331,0.47027979796686914,0.3793877241054777,0.29128504233104047,0.2065019244272961,0.1641372806958481,0.17178891353330705,0.17764076176455745,0.18743855928257114,0.19078308043878534,0.22373464325662495,0.27878303353222167,0.3330509540780926,0.3425025147234235,0.28683985660836164,0.21540574525264033,0.15385634663825765,0.1184912766060302,0.12261776738740249,0.16871146045196284,0.247425197627811,0.3325882396974327,0.41999952005583996,0.5083004534391067,0.5968108539803971,0.6859527301008836,0.7612136947824586,0.8360110072153233,0.870798996414877,0.805403442696367,0.7180350582416879,0.6291827565851751,0.5367770076628424,0.44837325217886526,0.35907027767101307,0.2707701692456488,0.1850451300418554,0.1258076977480509,0.10743290028891139,0.08006055728204275,0.07041695595845066,0.11887297320870305,0.17508510219675966,0.15256101633360708,0.08125514708217851,0.08403606013440279,0.10648281493169875,0.10869402075252932,0.1642433126816747,0.211279487439475,0.19309565662356976,PM
0.5144015599362959,0.509203243465012,0.5091189066371362,0.5131311677626444,0.5268628192226246,0.5307292068623168,0.5307595063316963,0.530759506331699,0.5307595063317019,0.5307785060527002,0.5337564159133472,0.5411725149220386,0.5415939147131119,0.5403638021970563,0.5257718076925184,0.5116256904206471,0.5258175201390236,0.5526881303722475,0.5669584432781858,0.5714287894629728,0.5547368040938117,0.5072713027659173,0.4433484319963483,0.3760627757742294,0.30875344430792406,0.24181363763033858,0.18176005826111807,0.11766862873369122,0.05439876534592547,0.01877609062787622,0.051527611829843334,0.11232097174418176,0.17934435991429254,0.24090643480330165,0.3033479428781838,0.3705811446131493,0.43789047607945486,0.5051988496595419,0.5715829523051574,0.6307660251846827,0.6890426473115157,0.6807674458304556,0.6349887046832281,0.5852251455839832,0.5460111835823951,0.5153559243373675,0.498016790244715,0.48693098968982373,0.4775350406385559,0.46387190370783293,0.43895666600991534,0.42431821483805177,0.4323031464806435,0.4630448732799781,0.49155101521414046,0.5112611614824489,0.5196367750601834,0.5199299514988656,0.5218782539386506,0.5302177023161196,0.5377908044357589,0.5442942952618113,0.5504837419024617,0.5427718949341449,0.5415969244357146,0.5415010367011681,0.5363627334007177,0.530954636512637,0.5356893279499904,0.5413802507835879,0.5369821267638435,0.5383643432006087,0.5387653735677156,0.5466888229847031,0.5425731300189889,0.5210702143423818,0.5144456809760045,0.5344156389086305,0.5536895350220086,0.5614402274902495,0.5512524497833182,0.5204890326755622,0.4573838753890147,0.3905625910124366,0.33076766325739193,0.2662866438319671,0.19976340426555939,0.14048856987393132,0.07542095855428332,0.016831980716083494,0.0,0.04586040323983198,0.11128124455923749,0.1761489116114361,0.2356882471397952,0.30237968730110065,0.3696887860521363,0.43699811751844053,0.5041663197616626,0.5657634313575666,0.6281168216356197,0.68205831070616,0.649864616286052,0.593019242524955,0.5485880492669963,0.5185497837800497,0.5000724970597683,0.4884139714588305,0.487144504908952,0.47870527205895397,0.457962048505796,0.43731455407903397,0.42627906055471665,0.4462820047313232,0.480862314002688,0.5171246502632465,0.538154385388818,0.537560486390426,0.541533882641636,0.5483456100083799,0.5638450578484151,0.5769679462253583,0.5775380559139582,0.5754571550114911,0.570032512567642,0.5630623649512934,0.5548868487374847,0.54432212926106,0.5428476507392144,0.5628946728852244,0.5708898189233653,0.577267351056977,0.5869269389018614,0.5963810015168107,0.600235330759032,0.6063278421942166,0.6107317766583227,0.6048291266684866,0.5919802016235134,0.5759068430883119,0.5679355261926546,0.5675394759272374,0.5612184693781745,0.5361635902462698,0.503669311137583,0.47238359000892394,0.4719583512832364,0.49323717738249084,0.5105527825333478,0.5223214409119463,0.5244999145377434,0.5327349698820909,0.557592500644382,0.593917266799391,0.6450882274957717,0.7026611463472301,0.7605100267287883,0.8213060613616181,0.8792888238687675,0.9284284063454351,0.9467562732625077,0.9012227287954853,0.8372639975128691,0.769975340605541,0.702681317657712,0.6381247343328453,0.5783789589290877,0.5115737725110958,0.44426517704897694,0.3792772423945361,0.37042783206542484,0.42489327787242726,0.489743618926878,0.5494988716907574,0.5812394309979063,0.5856138362359733,0.5892344866416677,0.5876966527552188,0.5660532291854754,0.5510163062832876,0.5657801879881554,0.5779988760700161,0.5732762459667529,0.5677232068057854,0.5676011669260459,0.5676011669260432,0.5676011669260403,0.56804761564395,0.5716141607618188,0.5679515731595413,0.5732570058109967,0.5783514800230758,0.5784362905484048,0.5776080987814751,0.5678348541601668,0.5576212483657934,0.5516631490381805,0.5460552662357083,0.5459101099892385,0.542680151336504,0.5250861658349999,0.49731271193676063,0.4639969462254676,0.45724632929284637,0.47925019783897027,0.501632264304354,0.5125006400688903,0.5186873513804584,0.5327906405412202,0.5591564695958926,0.5965927291608437,0.6431637638273111,0.6990574944109651,0.7577442278410209,0.8173038335021265,0.8811641034864472,0.9481648213972977,0.9999999999999998,0.9896664935832418,0.9336351596362069,0.8667325045882641,0.7994240712120015,0.7330195712396566,0.6738020394693296,0.6083266481999325,0.5410216297844541,0.47371229831815076,0.40640296685184474,0.3396504450609952,0.3083850341839305,0.3627481848543954,0.4235069117865895,0.4867463180300404,0.5510566904419685,0.5936871532966519,0.6000798502254112,0.5999289222667432,0.5914614428239107,0.5652400423741171,0.5487856892937482,0.5616970805816206,0.5675464422214542,0.5676011669259591,0.5676011669259564,0.5674720903188837,0.5618824989226112,0.5568523875857672,0.5567653843982259,0.556765384398223,0.5567613370171176,0.55506687114362,0.5424305828619342,0.5352648955477497,0.5370205983937502,0.5495927483346181,PM
0.3307657047907264,0.3781554645836871,0.3965311876358064,0.42071922695150743,0.5055298121810341,0.6161698135476348,0.7248836803821064,0.7541873980181228,0.658993875764398,0.549000366706669,0.4355705358380124,0.3279896880184714,0.2253199543851625,0.12799382390885938,0.06174998185155234,0.02160935428483257,0.02067714622361705,0.0650942777769723,0.1412462815177864,0.23925624867325168,0.33701172596667384,0.4332127557218084,0.5285777723446592,0.5909609159185947,0.5441444310216776,0.4717165630432527,0.40271536119444074,0.35048688536718364,0.342717973231474,0.3397089866267322,0.3265068338906012,0.36700108114715846,0.40122157776974854,0.40015833899389674,0.4395604240177753,0.5363981342908022,0.6494949389971865,0.746347227079466,0.7096278059132666,0.6027059119415257,0.49097386430659284,0.38147294353611727,0.275244336809112,0.17437749845937978,0.09815208911127726,0.05198213521960793,0.021688501232754565,0.03222432219179727,0.09783282149635553,0.18767813934610134,0.28544859778216614,0.38271032618489365,0.47781522820014466,0.5572358927331429,0.5426191062387873,0.4722083390833576,0.4063071243683072,0.35621932024220193,0.34819137519499854,0.373577447027833,0.3563872205591938,0.33427905477310205,0.3744690203370342,0.4151058205859459,0.4302127395500617,0.48605126125434195,0.5851028799259654,0.6984287322840861,0.7889321766535238,0.7471169285336074,0.6388546131861563,0.5262224846052268,0.41757242442391274,0.31217870637305967,0.216878947721185,0.13653775316037686,0.0839465501299601,0.05154991596483938,0.06038778079853846,0.11879423115288779,0.2033746617345884,0.29553473936770613,0.39483083289975607,0.4986112931861819,0.5888070145548969,0.6143169493605809,0.540818186701316,0.46062781071701675,0.3910745142129288,0.3424259220708168,0.33679556552569867,0.3325627438357206,0.3149301753501019,0.35170239172938844,0.38822785539850857,0.4100067593087635,0.47405842990313163,0.5854025249497079,0.7017837002059837,0.7446080437567257,0.6570055869006759,0.5478364133729965,0.4535830551632416,0.3484325537905797,0.24396388172604877,0.15001128548037412,0.07058352479830554,0.021447080186094425,0.0,0.02718735392347993,0.09760241139906256,0.18766243218273493,0.28782219999798664,0.3897260823812698,0.48432480662888633,0.5631254442627371,0.5403738066839034,0.46682995718596443,0.4045708318034782,0.35997674097402443,0.3622851699098022,0.39356977166239693,0.4192540829832039,0.3967961109445657,0.40662951911555245,0.46553387408041136,0.5344328701893306,0.6051930173695115,0.6174659365327213,0.544503275915726,0.4454170200854044,0.3465489694803179,0.24937153525946254,0.1568747669484465,0.075860387534882,0.043896389621538745,0.07407141151534913,0.13438122097334348,0.22565487805663453,0.3324105047310977,0.44111976962289745,0.5535406294116973,0.6638651516255907,0.7770940787224099,0.8708343223324162,0.9550734668210388,0.9451368029662608,0.8420352492537329,0.7304844862424766,0.6367230475197894,0.5280136203767136,0.449274181397441,0.42539512398884183,0.4005624154548624,0.3581796803126749,0.3749064723596409,0.3763874151490634,0.38868188365223766,0.450827767600003,0.5245127350736567,0.6035162570705013,0.6721018882938266,0.6508682138121431,0.5609022392707383,0.46284172223377196,0.36627715907380765,0.2717330202615291,0.18016091099668352,0.10746870748412207,0.10532504655858932,0.1439726279031115,0.2132908507881992,0.3098855257802091,0.4143622072091935,0.5244079098361287,0.6191269303539055,0.726098426593961,0.8356490332548616,0.9310715236767066,1.0,0.9650961642868889,0.8557996752525754,0.7450215988496685,0.6328215892633566,0.5431239880379222,0.4795000384598067,0.4623665607483307,0.41763362441100593,0.38159478059136687,0.4103264048838464,0.4144619880627376,0.39121526921751437,0.4106138723108046,0.46998915769242,0.5431840325587514,0.6149801617863933,0.627401043820369,0.5527259777702351,0.46169632886396306,0.3614717517758326,0.2597148818331301,0.16820285888246644,0.09177769014303183,0.07243850935747131,0.10518135990679123,0.16756488449242668,0.256415612348341,0.3588715797311637,0.4708572289769517,0.589391992650417,0.7006249050388291,0.8106175942794245,0.898441677043905,0.9787558824823877,0.9471314364097196,0.8355882872698337,0.7164258143323861,0.6028928664705417,0.49929339994775424,0.44601106880938035,0.42996952655882703,0.38128085610817,0.37524530895044705,0.3858410550448026,0.39407219093586754,0.44886474706502755,0.5212537837370799,0.595217232009468,0.6477144485108375,0.6074075709687499,0.5196261688501234,0.4201474375135672,0.3168742336066097,0.22147154666776636,0.13478306822325403,0.07529523354268797,0.07999698276054334,0.12623294719580658,0.20393051974594467,0.30079605744738824,0.4094706089789666,0.5275489509526583,0.6388422487765308,0.752330834851517,0.8575353226439764,0.9434261295764741,0.9960507737028261,0.9209887547087674,0.802740496395999,0.6870595043090826,0.576915462572928,0.4825541434162619,0.44508595801990314,0.43358302784602465,0.38353258451637373,PM
0.6041544649563285,0.6030227751059708,0.6100761797687888,0.612728769661557,0.6056122606818505,0.5944547235547359,0.6098275521309396,0.62154536438172,0.5848828051859749,0.528814718797476,0.4785062366455073,0.42060484605976023,0.36058475569442994,0.3031958813377993,0.24244246838883288,0.18396495455611822,0.12528760867857264,0.06653821581087677,0.040587360517452375,0.08326011268562405,0.14368888092230642,0.20265695185047944,0.2608785219008801,0.3220297216515333,0.38330749274803644,0.4445751574773945,0.5045549238789202,0.5619952523424545,0.622880048943524,0.684157237408287,0.7452176310485236,0.7870577865106804,0.7525593768603146,0.6981678976301386,0.6479214055503763,0.6128708043908258,0.6014700397760107,0.6023976553602222,0.6228170172917779,0.6592839583143223,0.6654094227269174,0.6327197729557615,0.6214858113227649,0.628297957191636,0.6216957166706027,0.619272767747267,0.6227008557776303,0.6222701453069668,0.6127655367563063,0.6044810296053063,0.6200084488412329,0.6223672744750014,0.5766516676894226,0.5174041849451979,0.4601212443440764,0.3998549127247576,0.34080862205189866,0.2826603922219465,0.22172771416362302,0.1638791733985553,0.10448773788460192,0.04471441236150747,0.006605520657136821,0.03856730405530473,0.09810538011288228,0.15876560189608757,0.21604151912777392,0.2763961378224362,0.3376695639732701,0.3989473350697732,0.4602081953337861,0.519901060791108,0.577527401860197,0.6385195606755116,0.6997970797300234,0.7609653996613402,0.8080235181554224,0.7804370432677724,0.7254537116590299,0.6721351334582277,0.6301026355746419,0.6133033412350405,0.6106220956106536,0.620214687199455,0.6537130551608317,0.6853035264534083,0.664418349770893,0.6310206251712055,0.621589473364671,0.618037403910199,0.6043317045848366,0.6025418009992084,0.6077825127183373,0.6096140845852008,0.5957713309565338,0.5915990168806863,0.6119137008691935,0.6093186900595849,0.5675467839526173,0.5115552858200939,0.452036464484344,0.3945476468900523,0.33363045987599493,0.27296166889258944,0.21567832243441032,0.15533247493202623,0.09470632124782202,0.0378844565980449,0.0,0.033641173957889015,0.0919868865400782,0.1532063125902972,0.2143667758670207,0.2726348138563993,0.33155202115399185,0.39277828615404475,0.45405605725054754,0.5153338283470501,0.5766093121959959,0.6371917984498373,0.6944555216649915,0.7549080803951963,0.8143359909059288,0.8286208284146385,0.7779075412571547,0.7209472435491681,0.6667890666567162,0.6221130251508065,0.5999583049909203,0.5924704797547609,0.595261819153287,0.6230972463395859,0.6489715775207693,0.6263582828627489,0.6086962820825939,0.6172432602410549,0.6259316423851307,0.6310364600604954,0.6619170814955642,0.6758857996781896,0.6466026353986941,0.6134896490468905,0.6076073090232633,0.616232522651089,0.6444126191244852,0.6933017209106411,0.7523663224450242,0.8089010099988095,0.8587434354044733,0.9141213617651268,0.964992176746967,0.9601321921514351,0.906695181077852,0.8476177834895474,0.7864161212238182,0.7272087702974207,0.6691995956558958,0.6080867667983366,0.546809011019447,0.48553541927872734,0.42753997884249517,0.4241837617534988,0.4777132399040822,0.5361122092794457,0.592265586794334,0.6330551241463774,0.6322372005292339,0.6129988469536766,0.6149638498812278,0.6261262322750251,0.6242110749675144,0.6192155198167929,0.6188731021981494,0.6335435058790198,0.6402732070136995,0.6484546365672874,0.6834507718628392,0.7114886225381751,0.6907373109828442,0.6505744814682376,0.6270107841165056,0.6273137539329355,0.647245564607406,0.6902800696262271,0.7376698521373067,0.793817719980422,0.853123876342398,0.9105119555115019,0.9665115858659806,1.0,0.9664958715941246,0.9078828939133511,0.8503806345983073,0.7894433873082222,0.7281660159413087,0.6669035181726071,0.6071534159940352,0.5495675960799431,0.48859374110636744,0.42731627128105487,0.36616505858645754,0.3203913612557546,0.3515924089318381,0.41228465258081815,0.4734220344368959,0.5315476224413221,0.5895860498177116,0.6395477856822221,0.6516902061805879,0.6340471957351717,0.621429213639709,0.6350368201366168,0.6372882332620189,0.6361072410445845,0.6334408198218257,0.6384103238167465,0.6448298053314114,0.6415611031523989,0.6648221793486413,0.6946428744774499,0.6793960375207748,0.6401233106114298,0.6168600181777546,0.6179055860382666,0.6364937949706546,0.6780635376140219,0.734689762285278,0.7918529812238738,0.8491307413776342,0.9069559420863303,0.9608188518791351,0.9752422208230106,0.9330554230774869,0.8781266850524657,0.8194405095319067,0.7582292684040587,0.6969516981380868,0.6359399901390261,0.578281090593661,0.5186395446372489,0.45738417024086964,0.3995138979391206,0.39697978873976414,0.45386854618718464,0.5133836004280475,0.5707025458221233,0.6236820872441207,0.6424947379324824,0.6290605363900805,0.6117361675798563,0.6231741796497451,0.6302530153365903,0.6262698892449059,0.6192594335874998,0.6217282658038646,PM
0.9999999999999464,0.986228980296365,0.9716395596848496,0.9570501390733349,0.94248246721804,0.9310174630556468,0.9188767576339315,0.9043037722470885,0.8897143516355736,0.8751249310240584,0.8605355104125433,0.8459460898010284,0.8313566691895132,0.8167672485779981,0.8021778279664832,0.7875884073549685,0.7729989867434534,0.758510395832593,0.7484159996102969,0.7348416448246998,0.7202743686734269,0.7091479364863663,0.7019127878775216,0.6877067914702776,0.6732159429522447,0.6634306042393593,0.6549203605784938,0.6405719381158556,0.6267130399625015,0.6166936852261485,0.6024148929751186,0.5878255712896089,0.5732361506780937,0.5586467300665788,0.5440573094550639,0.529467888843549,0.5149199872243625,0.5039341747197389,0.49129982093569347,0.47672152201730256,0.46213210140578764,0.4475426807942725,0.43295326018275737,0.41836383957124224,0.40377481466374954,0.3901254183922084,0.3799670823197009,0.3656174727449958,0.3510280521334809,0.33643863152196596,0.3218492109104507,0.3072597902989359,0.29267036968742055,0.2780809490759055,0.2634919241684127,0.24984252789687167,0.2396841918243645,0.22533458224965897,0.21080645086658167,0.20011817282675604,0.18811224791734804,0.17848113628678675,0.16999207866529698,0.16345314130237576,0.15850445815944747,0.15365353236353496,0.14429232091756528,0.13109451286277496,0.12350370947390332,0.11623702135580427,0.10799591612745674,0.09834996405332797,0.08869830274362889,0.07871085549303158,0.06872340824243417,0.05895981828576902,0.048940979743039126,0.038194978275225,0.025561811603246554,0.012653353852718041,0.005135049529616409,0.0,0.00014183249936161602,0.00642286342230225,0.016374500916141455,0.027527293901960737,0.037513778188969504,0.04941760951485419,0.06040342201947857,0.07495122471265891,0.08923001696368926,0.09908047691291288,0.10864677723338678,0.12075479572631842,0.13104756076389767,0.1416914686481886,0.15361773102214404,0.1636838778446057,0.17472002161633515,0.18470826027497766,0.19452781455512624,0.20416855202371287,0.212219035272306,0.2180960224501941,0.22106625284636938,0.22450169335999903,0.23010857381729954,0.235334615294707,0.23676732089215924,0.24065408353008977,0.23519308285439466,0.22954232627997873,0.22344166651193742,0.21612170572150524,0.21136176141457164,0.20653593075972254,0.2020068676832667,0.20176755127648516,0.20309972395129916,0.20799586533478087,0.21267896059959535,0.2129896878860862,0.21298968788608674,0.2129896878860873,0.21298978681209346,0.21330081087660113,0.21888594257768157,0.2241114894250612,0.2242123191257167,0.22421231912571737,0.2242340678819379,0.2271764314340674,0.22982165622542106,0.22982244763346626,0.22817435522182428,0.2243320464193893,0.22717662928608118,0.23020329976159448,0.23493076071769547,0.2379001007798207,0.24102451722894302,0.24104626598516388,0.24104626598516454,0.24031574352700413,0.23574528194781985,0.23449462924736186,0.23006344578234927,0.22982363474554013,0.22982363474554068,0.22949115870283077,0.22178645520966112,0.2215810564089079,0.22306002297578598,0.21876989829304483,0.21860681166749218,0.2202506787336479,0.2251664914272331,0.2297228050448894,0.22982363474554524,0.2298236347455459,0.22982363474554635,0.229823634745547,0.22982363474554768,0.22982363474554834,0.2298236347455489,0.22974257528100295,0.22502406478023518,0.21898314167212174,0.2186012013579347,0.21860100350592393,0.21860139920994703,0.21961646503586518,0.22413855171285224,0.22767539332796616,0.22992003046691334,0.23380741959787843,0.23856597894073472,0.24435546245524886,0.24248545066265348,0.24261448604434488,0.24097101468221227,0.23624669601986859,0.23020577291175537,0.22909331013940726,0.2245230464122342,0.22421241805174996,0.22421231912574513,0.22410951090497921,0.21617626292574288,0.20178880540271193,0.19032380124031922,0.17818388722664802,0.16486323628235855,0.16251589885562223,0.16575543588035568,0.1793004411150415,0.19094710247040547,0.2028912982905675,0.2174787403819719,0.23206816099348637,0.24665758160500073,0.26124680436450576,0.27545477929186035,0.28533515269205934,0.2994039484312483,0.31399336904276276,0.3285827896542787,0.34317221026579314,0.35776163087730917,0.3723510514888234,0.3869404721003379,0.4015298927118539,0.4161193133233684,0.4307084371568676,0.44459960201334325,0.4545869868245903,0.4688656801496155,0.4834551007611304,0.4980445213726462,0.5126339419841607,0.5272233625956751,0.5418127832071907,0.5564017091886776,0.569597964674959,0.5760887527903643,0.5889536425751992,0.6035372550251391,0.6181266756366536,0.6327157994701528,0.6466069643266287,0.6565943491378757,0.6708730424629011,0.6854624630744158,0.7000518836859316,0.7146413042974461,0.7292307249089606,0.7438201455204764,0.7584095661319908,0.7729989867435066,0.7875884073550213,0.8021778279665356,0.8167561268849274,0.8293904806689724,0.8403762931735975,0.8549241947927834,0.8695136154042978,0.8841030360158139,0.8986924566273279,0.9132818772388441,0.9278712978503586,0.9424607184618733,0.9570501390733887,0.9716395596849031,0.9862289802964194,1.0,PM
0.637998609473373,0.6661866270965064,0.6462780122328924,0.6275291973616133,0.6237747097933402,0.6185789574408627,0.5881561485183775,0.5855180985833834,0.6231954617888886,0.6158985374945913,0.5495781547761676,0.4695617246456085,0.3851462038027549,0.3029849125043311,0.21880548018091517,0.13645122288110811,0.05646856611633899,0.015515462352315379,0.07471838902761141,0.162372916615533,0.25014242899407746,0.33220754718064516,0.4141089543559682,0.4892883102037533,0.5759630576694013,0.6620363826981672,0.74362937917661,0.8054350826963907,0.7612347461184996,0.6865218442894805,0.6279988063783857,0.594249283363075,0.5882006081882569,0.608064468690191,0.6379396976182674,0.6157277598723212,0.5966566583186916,0.595170228640016,0.6022755078153634,0.5810820546048225,0.5693594528529144,0.6093835554182792,0.6379002679801846,0.6071427714511941,0.5322033847669585,0.44956552454977317,0.36450576453105943,0.2822639101519011,0.19905530302017982,0.11800532173723699,0.049794698987760455,0.07269984015614117,0.151295992885071,0.23838968817356032,0.3266098849050938,0.4127660393294068,0.49455177600591105,0.5821424158750512,0.6703601560111863,0.7542369916384211,0.7771057572891482,0.7137400145327626,0.6558356796841318,0.6264003335230273,0.6195015818189007,0.6420978773496628,0.6778378445081585,0.6687267817430786,0.6410580139774407,0.6265343943561836,0.6275098543748443,0.6211717965908761,0.5848923978241747,0.594991423984963,0.6320523793962074,0.6184387246251846,0.5512793398280116,0.4677824547981879,0.38554106521297915,0.30058137275544494,0.21846941147289667,0.1365570247407364,0.05584968492804987,0.0,0.042852033909758336,0.12866061562027453,0.21299256548056178,0.296194829064401,0.3842471605890052,0.47238500739787503,0.5564266085306346,0.6399162087101935,0.727887846416623,0.7978549198055589,0.7630340109950398,0.689718202782106,0.6298440435563586,0.5991130775505558,0.585362799981956,0.5983841798261693,0.6305806602680646,0.6208490538809956,0.599774520812274,0.6023247254838511,0.5983646478792797,0.5926949175147946,0.5880978864131243,0.6267347699758121,0.6436568371599718,0.5930269802762813,0.5128490375444508,0.4284434892477924,0.3457438987059218,0.2625186749274657,0.18099934456381184,0.09392262700293863,0.022710409380603758,0.04156045665232766,0.1185496352997304,0.20475560234076884,0.2927507449867537,0.3756813130800063,0.46031927360443636,0.5484980671267539,0.636452264703276,0.7191220878584847,0.8033637674852168,0.8512106308569329,0.7939110970485743,0.7176665660329469,0.6572634922667846,0.6240983167890544,0.615433953664821,0.6318325083380916,0.6580954242253885,0.6353625190370986,0.6161468630608247,0.6152054629700408,0.6311294214158176,0.64539990148119,0.6477235516219515,0.6716467160554698,0.6928336769876593,0.6674146841143842,0.6422376387650199,0.6520276590048981,0.6894792131932994,0.7537927902055435,0.829583929860215,0.9116987800566752,0.9893214995723125,1.0,0.9292953415522764,0.8425287216795017,0.7609108022900681,0.6744088792445149,0.5861802698054921,0.49812657713433883,0.42675522914670827,0.4541050740139385,0.5397584613026942,0.6229784692693983,0.671643856578773,0.6697437894694818,0.6413519457345749,0.6232844870385539,0.6294440596749729,0.627787572271113,0.6276190991512396,0.6344729972691685,0.6666294542674784,0.6622703619007637,0.6274884211583966,0.6185165175436409,0.6369620178634925,0.6835517039238115,0.7572717714986827,0.8413338802625758,0.9186829066027036,0.9776313689232079,0.9481821575919394,0.8690787282364698,0.7838580930349535,0.6957588367874279,0.6123485059555258,0.5400906227288795,0.47472177760960377,0.5058368890446634,0.584344679135057,0.6463611705405483,0.6666324212758923,0.646352845791262,0.6254346105166735,0.6525750316735537,0.6578033105055561,0.6567490913601157,0.6765344367536228,0.7062958895757716,0.7052513336743282,0.6671919192347902,0.6476891214728917,0.6640952700444405,0.7176206247948171,0.7931983791779491,0.8704071816219678,0.9465313307471497,0.9894793063231344,0.9385541495104572,0.8539978176819705,0.7725046130442978,0.6855915565831019,0.5973587097798945,0.5091643083353412,0.43218560422342867,0.45249138136072653,0.5341814288695872,0.6111845353326655,0.663476043116983,0.6623684330871702,0.6276931709940481,0.6034713932057931,0.6238687708535016,0.6255975888403884,0.6207346990842688,0.6408682826825529,0.6734578483914948,0.6553434839348489,0.6202811260840844,0.6145197938796871,0.6442217653393989,0.7048057775906804,0.7796575685212659,0.8582283096825525,0.933568334033275,0.9583284488596484,0.888616281505819,0.8025770040647042,0.7208305132229511,0.633273066465337,0.545071469296972,0.459973174415649,0.3985321974557976,0.43903317439236367,0.5224083507077688,0.6000469998652296,0.6541756011115296,0.6577882587749151,0.6309613196574289,0.6273585869542897,0.6451001501796212,0.65094573225542,0.6571648959751166,0.6846135546291112,0.7018370213100735,0.6715273048549026,PM
0.13043337573912295,0.13142113671049183,0.13190091239716462,0.12270408711245029,0.10839246303751293,0.08431935811309454,0.07317983200960831,0.06457245156240499,0.05766600202808114,0.032919194489754555,0.019813399502622175,0.0,0.01111890668479465,0.04799989157589668,0.07354716005832362,0.10118767750833213,0.12376934162945141,0.13377957200355617,0.146095396142901,0.1497879309576069,0.16145732290862091,0.19180219136414456,0.2268082806088325,0.2628007495129947,0.2975178353083776,0.3336979162883249,0.3681782796658295,0.4064289384480948,0.44089364553778343,0.4788395122643774,0.517971069355772,0.5570412625848831,0.5930193758592772,0.6291027580272737,0.6681799127829766,0.7073151644346998,0.7464504160864227,0.7855298400659616,0.8145860174721082,0.7924208303928013,0.7549744510191052,0.7203564591643847,0.6815394412161999,0.6424042838397754,0.6032705278822394,0.5649494057210553,0.530619666074291,0.4921944716493818,0.4531061471291271,0.41683510059536943,0.3810410705164655,0.34283995420692204,0.3085221494667414,0.271956864079707,0.24497661552472105,0.2108392468284852,0.1758061147051566,0.14263783937450092,0.11426128251236034,0.09000028320958753,0.0720067369245958,0.057886140384378115,0.04621508505562022,0.0352211160046606,0.029415417248732756,0.031054522882658864,0.04563620300015947,0.06586667581385452,0.08998287072472344,0.11469604031903846,0.1422779547845896,0.1683475146787381,0.18392147641480916,0.1724955618244457,0.1518495235307027,0.13226850195796658,0.11334609104284188,0.10146773884829308,0.09981002824737317,0.1056491766159301,0.11215819154362039,0.11732820798396837,0.11776566089475693,0.11777706478811811,0.11952487204640028,0.12384446909336944,0.12211499695554684,0.11088927094318934,0.09710617360774909,0.09794692349561795,0.10962750399858978,0.11733058471496005,0.12367254223514168,0.12755890503792733,0.1495008245699454,0.18521422867029846,0.21886838249937268,0.2528481705198711,0.2844741508470243,0.31328152543316334,0.35097759458322764,0.38902044763565136,0.423409926876696,0.4620497526014842,0.501175978038882,0.5387219292624157,0.5734241859911866,0.612258269503418,0.6513934723538106,0.6905286953902074,0.7293829036556969,0.7533905215507504,0.7280765882792002,0.6895729689097705,0.6551755978805953,0.6171467559370449,0.5780148755068315,0.5390630080951191,0.5040087812689578,0.466925716184885,0.42780613944255763,0.3890065596239223,0.35436811751268404,0.3167253010040969,0.277597188652426,0.23850148256187098,0.20213598745654804,0.16772234092091742,0.13412700901922525,0.10311234457546659,0.07892377215793323,0.06026960404104631,0.04859535329889619,0.03880672157944243,0.030560003391716162,0.02912185091010211,0.030010846352888865,0.04230538141041573,0.06554185094200271,0.08940270559695618,0.11363205578328828,0.13799997987445534,0.16344020388431035,0.17519280737038034,0.16267293550067707,0.1434965103169239,0.12308868096876291,0.11038020988287134,0.11012187434679521,0.11306737349971319,0.12147756911099916,0.12960647429893335,0.13513831812434018,0.13681997598491225,0.1399414442859901,0.14095977742213672,0.14247644958356442,0.1389072031514207,0.1318548317419861,0.12265506603571108,0.12299977289195607,0.13195580006056584,0.14202397166608982,0.14784609670819093,0.1549989961439946,0.18065858891925402,0.21582315049237377,0.2503979967876877,0.28560694267367714,0.3214837248362319,0.3557807035522771,0.3939993532526378,0.42975217271364374,0.4660657092924805,0.5051577509218288,0.5441058246174013,0.5758528346810405,0.6039279046551802,0.6347572686748029,0.6609264989718646,0.687009191830015,0.7136092706281427,0.7469040086431098,0.7642140161345519,0.7345784713921164,0.6954951264995326,0.6563633193314824,0.6183937424774602,0.5839408735462517,0.5452858799274745,0.5061794836189419,0.4695564963954384,0.43409812120856484,0.39508274581056835,0.3572896776829553,0.32274686374463,0.28422080712365183,0.24935575774164986,0.21394980738277702,0.17975762806798024,0.14723610341962878,0.12013637416042822,0.0963989279380697,0.08194514521885621,0.07098238274931068,0.06318963227068808,0.058520905080215124,0.055269184022593176,0.06455464405188238,0.0829402505152893,0.10424913339776976,0.12981929240642343,0.15662296425821665,0.1818563842282328,0.20064403456898683,0.19380135422109968,0.20318289244431953,0.22264394943351307,0.22165980319652978,0.20323672571604212,0.17750374304417105,0.15299477276581186,0.12762568693542975,0.10379856780316232,0.08364134375389531,0.0783752137799908,0.07669992219690747,0.08278971898608645,0.0929360084400278,0.10612357896123936,0.12421499030626637,0.1524122560486565,0.18595322965331773,0.22025514116365685,0.2569112112397369,0.29185945241822897,0.3290350338543808,0.3669771076224706,0.4014366888676433,0.44007333224096734,0.476836298876248,0.5121642320289848,0.5511714700275734,0.5903012765823794,0.6280811724169757,0.6626306986692652,0.7013804572077842,0.7405155651064987,0.7796506685796347,0.8184262003693996,0.8530201656259955,0.8907304943029517,0.9298591107148508,0.9683960315594486,1.0,PM
0.8629205530579119,0.8663787889145297,0.8500766548953164,0.841397358501636,0.841605933790199,0.8449454304648997,0.8466263234621257,0.8407512667763538,0.8243765138141829,0.7993989346481768,0.7806973956594722,0.8017550672013926,0.8238172789651775,0.8284472777177644,0.8139071781193726,0.7548591393547771,0.6934533035342084,0.6313736611634678,0.5659724067684196,0.5005179392875487,0.43717404673680005,0.37682214623308374,0.3117122009899266,0.2462421785345702,0.18153585111817427,0.12164868614524127,0.05750045945451837,0.0,0.0034357766833062464,0.06289022097173702,0.12459849131523326,0.18636370617831055,0.251744028826292,0.31721575158617477,0.38264235085817433,0.44517716849705924,0.5061900924608639,0.571475740248471,0.6369474630083537,0.7024191857682366,0.7678909085281195,0.8332574090867669,0.890495267997179,0.8946319468134093,0.8765443559997234,0.8693816033984129,0.8605032224444308,0.8500849199058446,0.8405407602305482,0.8440871627018552,0.843999684611472,0.840502495894449,0.8389059623435463,0.8390732441018834,0.8361825152152741,0.8336795121800938,0.8268058484715312,0.8037374901613697,0.7932835831223611,0.8141781744002364,0.8369802173950286,0.8409676328063808,0.815898683443942,0.7543831749074176,0.6892671917004597,0.6288442136074798,0.5655929447059446,0.5001417709555583,0.4346701832495875,0.3695187893591777,0.30905653607430794,0.24586009469966985,0.18041005953338107,0.11499904467637911,0.05399726247170694,0.030143619827587176,0.0750179472850166,0.1395812448083229,0.20389226110782155,0.2637456725225472,0.32837390632599717,0.39384305066376424,0.45876611031429004,0.5188190011156966,0.5826410376832873,0.6481036770739478,0.7135753998338307,0.7790471225937131,0.8445151987074832,0.9069356871308455,0.919075917712156,0.8914967145589517,0.8793135820640806,0.8714657993704292,0.8619438167141517,0.8507312251106222,0.8537170284227936,0.8560589310689223,0.8451648653902378,0.8414536567584067,0.8415072321266838,0.8444180556755495,0.841653553904805,0.8301787073233836,0.8089575955549219,0.802255770948011,0.8252097730503584,0.8463113218939512,0.8441490986412191,0.8004784660430969,0.7356188914592262,0.6705825516804805,0.6103667121275157,0.5468165459094181,0.4813587583229604,0.4161824498825438,0.3556583949194555,0.2925469362115092,0.2270994925961668,0.16223998178909538,0.10340594636116407,0.07464203185415597,0.11938756438091802,0.18441674597222668,0.2491773301158864,0.3090893941227092,0.3732119641079502,0.43867791062143435,0.5039811337656986,0.5651236162770441,0.6275174964271176,0.6929217907522082,0.7563786919779331,0.8166566593496095,0.8810299122038546,0.9155583543210563,0.894035332119221,0.8788118192493278,0.8700266109632947,0.8608080574414402,0.848111278877527,0.8487725838038528,0.8636449610368525,0.8573786845677255,0.8441954454003596,0.8459478547608791,0.8669592236502658,0.8690222685563865,0.8778951786711081,0.892675097237091,0.8837881093106771,0.8714485386368916,0.8814796852460364,0.8896072547100592,0.8969045782043793,0.9129438945184226,0.9481903307985081,0.9889447589867112,0.97807427737482,0.9211081506900106,0.856446922222062,0.7962474198920101,0.7326739336503271,0.6672542615601048,0.6103049817017724,0.625135636513232,0.6806963991250051,0.7328709521761091,0.7968105926797279,0.8605998530314668,0.9071102894313375,0.892671440961832,0.8732408529795631,0.8608849434435965,0.8354125149081636,0.8318927735943541,0.850658829860277,0.8621034562644604,0.8670673830420176,0.8668412593755751,0.8618216543173273,0.8661315177597141,0.8799163242738922,0.8832940155729719,0.871278405510543,0.8791730446479685,0.8905041736253937,0.8987840188797552,0.9095852130649386,0.9402412478080958,0.9850021853754075,0.9969697387532493,0.9479200659452954,0.8845123841136439,0.823369316717602,0.7609894809562668,0.6955707925058482,0.6306974442737002,0.5726620963958854,0.5604982012488915,0.6190401040549239,0.6811153706504226,0.7425361717596198,0.8074958102878292,0.8671544025038916,0.9018565628308081,0.8764516221707855,0.8630993244439221,0.8525420677120975,0.8275906283782214,0.8252208537476947,0.8457857382796709,0.8519801753676483,0.8540473636230054,0.8592693941365134,0.8596827140572553,0.8600646298627465,0.8681357948615028,0.8679092641417264,0.8680101838775175,0.8777652502396228,0.8884607451288679,0.8918990913226229,0.907776766977935,0.9515143384864541,0.9999999999999999,0.9975960614118303,0.9426399080298827,0.8808353219015027,0.8154668108450104,0.7521853868036809,0.691784010066239,0.6266584558566254,0.5614581735221341,0.5195346569057302,0.5617806412050685,0.6269876257863126,0.6924348663223926,0.7555288666925833,0.8160084128677122,0.8742929218248082,0.8808013060061036,0.8563885221245972,0.847402594255891,0.8269769520401967,0.8172254078130105,0.8406330141703492,0.8600946893126326,0.8683343945569438,0.8697979770024943,0.8674236297003216,0.8696424216533182,0.8781683770040388,0.8955213937434955,0.8882146049743415,PM
0.5354241256394281,0.5226997122243668,0.5383123786494752,0.585686157500767,0.6219890677913082,0.6013183557737105,0.591145236204083,0.5968850307894789,0.5949626336282394,0.5902048501884818,0.5903072246761232,0.5840356898189549,0.5728026768628056,0.5381413062165321,0.5137021384527141,0.5236671419381809,0.5491155928915448,0.5891691642685624,0.5983310884991697,0.5501917921356574,0.46055452598619473,0.3621948894372893,0.2737863096848514,0.17707921773830826,0.08806647375998411,0.08626190898153996,0.16378604817735987,0.25948449258205164,0.3517330282480833,0.44379200205417524,0.5432754150057701,0.640048867452915,0.71439545182497,0.6923783406949187,0.6395467661650547,0.6092967717366959,0.5843110990455118,0.5614441564661701,0.530860519936458,0.5130415363140743,0.528179923108755,0.5725031539996448,0.617614725035585,0.6233270690879529,0.5977207077241533,0.5833120186690453,0.5743230895926916,0.5665684278204677,0.566401566027583,0.5675119389654069,0.5835888335581751,0.5761158532146746,0.5461364646744826,0.5434837716011987,0.5608803766470625,0.597125600656486,0.6140818211869497,0.5780456267569343,0.492838727352674,0.3966715651270647,0.29934497029957674,0.21118524395498373,0.1172276553584859,0.05075637976093095,0.08138469676044435,0.1702608199788469,0.2626028497904449,0.3582533751170347,0.4472246570862488,0.5461642875920716,0.6454131990621539,0.7085457267602888,0.6651759088643332,0.6194932928855259,0.58476731063659,0.5582495518484287,0.5318554471610342,0.5060679249772506,0.4927613256026788,0.5119767200565528,0.5577623436886019,0.5999106817600324,0.588104178870879,0.5654618404482568,0.5523007517817695,0.5427937817012496,0.5489534112670427,0.5511055390521657,0.551089079823968,0.5465986447974149,0.5202952479285554,0.496502504007605,0.5031777076284816,0.5303514783484551,0.5701611802415427,0.581902022554154,0.5298362909844148,0.4347879107445678,0.34656621174072244,0.24839794382651004,0.1558955144120837,0.06571472754875529,0.0,0.030862970764157005,0.11971201679920895,0.2101109908648633,0.30393208727791654,0.40246446060135943,0.4909443834711231,0.5874839813019155,0.6705874020069977,0.652108783708365,0.6109200092337868,0.581709020996199,0.557828334260595,0.5289328572994432,0.5028109436541599,0.4975983646486237,0.5278489542991553,0.5708608249897078,0.6135230770783502,0.6015509898717895,0.5849829761945462,0.5817087403447903,0.5831476118103223,0.588102562662637,0.5956343948159111,0.5969794638777244,0.5984585982586839,0.6227503497798978,0.633589323123152,0.6336764241513468,0.6336764241513393,0.6336284171786661,0.6285847963225821,0.624481059205642,0.6447052843824106,0.6610350481046683,0.6341222068261492,0.5907026604547019,0.5528755953085662,0.5522022435052123,0.579221166806942,0.6048374127615528,0.6300358985676779,0.6668340904387282,0.7237832458723541,0.801344048759975,0.883921982092525,0.9380676941810813,0.8885638523361115,0.7996445836489472,0.700323311824965,0.6015740177645528,0.5129393828979727,0.41663641763669057,0.31781704023966606,0.26917097876640517,0.34834843151902994,0.43968432599268725,0.5325190927438652,0.6252474510381849,0.6822671956002968,0.651324006006623,0.618795079365754,0.5885845759729369,0.5531688864711346,0.5476320008361832,0.5739238393556003,0.5874201211550316,0.5878065443762819,0.5878065820294629,0.5878093008729772,0.5895516241320178,0.6023657407481533,0.6207779622390523,0.6537771492828095,0.6509411538265519,0.6061427246269173,0.5582184376949821,0.5370317309220249,0.5596507181536863,0.5830983156479776,0.6120490631739344,0.638393857606347,0.6797695557124781,0.7461479812676686,0.8306740475135777,0.9176514062660992,0.9747773894770511,0.9322829365859482,0.8350521918668923,0.7353995446210839,0.6357495507911355,0.5387020176386921,0.4957032389241509,0.5641285812900256,0.6531388416668498,0.7130901415719961,0.6870765943207489,0.652056418251123,0.6270463174648446,0.5989724949583248,0.593429382684227,0.62190856717059,0.6316127259748048,0.6126218219272657,0.6038863104363417,0.6131657108481519,0.6139889315038127,0.6254347755909015,0.637934562730397,0.6627595308599172,0.6757058471104029,0.6501927085883814,0.6020948942920534,0.5654988933766183,0.5795024140997445,0.6060867449301903,0.6294145416008949,0.6565349417140256,0.6900638512388761,0.7525601162274613,0.846052869834681,0.9328498850075526,1.0,0.9739932620141216,0.8862440144131951,0.7876639236958032,0.6988337536090037,0.6028089703180193,0.5036853994132526,0.44415740309567964,0.5141437588439715,0.6077022530764862,0.6908737345820852,0.7045815042720771,0.6585636433430904,0.6309426041269601,0.5914220872299145,0.5666253252626197,0.5730952209319007,0.6057306071537689,0.6191530044639588,0.6306568202640208,0.6357103217678448,0.645341762149727,0.635499136425925,0.6353661497696663,0.6542687006002059,0.6627047646821103,0.6335630805525025,0.5837978273051343,0.5669373416204269,0.5893248582683324,PM
0.25527535032972803,0.17113623179897974,0.06332314751618884,0.0,0.05336645901111381,0.15566754279865003,0.24299273810271593,0.28937031365687393,0.3600197244551451,0.445899735674097,0.5504267240795517,0.6532324144559252,0.7517377714203515,0.7704543237899841,0.6938121441982168,0.6265171790854183,0.5980048990045326,0.58563935823318,0.5959869941872777,0.6318661730067889,0.6881739853754798,0.7508877444553228,0.7664259434811229,0.7051764418548943,0.6477693806325862,0.6186188477112191,0.622970620817596,0.6120372148827538,0.5995820502929425,0.6056717055407366,0.6203928740743598,0.6244683618256959,0.6103467189579317,0.5663934521646241,0.5390205544868532,0.5791576653401158,0.6158301433696645,0.5634575314913306,0.46040185720124915,0.35880595226326495,0.25480458690387287,0.15094803346457608,0.06151107856940752,0.05561241896411029,0.1460328818755543,0.24925362593114775,0.3513160503730286,0.4555220278226697,0.5568063876808265,0.6617408031014596,0.7617242385261229,0.8472225705717511,0.8203019692492801,0.7364789304169022,0.6663110543947783,0.6401030264164196,0.6392640585026048,0.6520560143283154,0.6943464742150072,0.7526444244851103,0.8121056216348967,0.796121548850719,0.7290959045854812,0.6659270913066071,0.6402873500172457,0.6334766873369682,0.6145881319854136,0.6106238022603239,0.6105985948352219,0.6093264132864671,0.6002246389980659,0.6079512498663382,0.5971539280963616,0.5567758425707985,0.5337841502366523,0.5743500898244078,0.6152237753242602,0.5560662152144387,0.45491295605746407,0.3521520256016384,0.24376151601383844,0.14446925296319346,0.04624851924203388,0.025751319091551705,0.11212543197934699,0.21176465326676608,0.3177926873858592,0.41059218916769824,0.511319554168896,0.6110460801436055,0.714576810703734,0.8075520479131502,0.8252684380495072,0.7392526675000628,0.667985992231344,0.637934650705025,0.625906318328262,0.6300631102731757,0.6630306471661656,0.7246151603920601,0.7803759614026489,0.779318053863284,0.7126094090064177,0.6559739999663163,0.6393860465068886,0.634472277752272,0.6253175712304642,0.6248190915767315,0.6247790457605915,0.6204319774938116,0.6099769978403295,0.5896406592053327,0.551437594319538,0.5229460838809894,0.5513558482222018,0.5982465812377851,0.5621132563264242,0.4673046140421402,0.36439744463170776,0.25806410386559087,0.15834829339834466,0.057507384055407895,0.04058921429575735,0.12665876098584516,0.2271812888435556,0.3271826148909942,0.4223876867675238,0.5267222820595925,0.6258569026860354,0.7276709712719538,0.8070315328765023,0.7669019164231723,0.6765946780948835,0.6234947311790546,0.6245637397650969,0.6604019480971237,0.7248842584960578,0.810260123454916,0.8998403901410472,0.9435667370926382,0.8802019416027305,0.7871410166379582,0.6874159258133918,0.5879399870265098,0.4909892232938047,0.41445618470300083,0.4166642014222903,0.5116902271156274,0.6101309804765958,0.6792928456514775,0.6638717192786943,0.6281252359623948,0.5866524969542048,0.6065417286259236,0.6377123969078236,0.6555752927896639,0.6589258961895688,0.6589436222591658,0.6589603576668583,0.6620759644744751,0.6722308650253854,0.6769134844880789,0.7151647079133565,0.7775509845596638,0.8325479977423478,0.824701503546593,0.7698082808736424,0.7091044899213639,0.668637082806327,0.6640355544587488,0.6823212804973124,0.7352097660610508,0.8185864596718337,0.9085183951237181,0.9706773497572505,0.9232557117239923,0.8336119164835094,0.7385014698560552,0.6367788356427839,0.5348608732895155,0.43868322034109575,0.4474698820360423,0.5432475360203277,0.6387582311926514,0.6893531975193818,0.6605378584662267,0.6174746690847326,0.5894688466828755,0.6266088581734479,0.644119017797784,0.6447249306602787,0.6447250336144297,0.6447250336144288,0.644850267537961,0.6520679124173157,0.6695171446644719,0.6752965322186126,0.7052606782851392,0.7716042100788094,0.8418727593504349,0.8762151632179709,0.8421533553713654,0.7781970784236627,0.7197280653955684,0.6803210791397576,0.67375451655038,0.6937644203990483,0.7640572089677642,0.8523032580436096,0.9408318358557919,1.0,0.9599454110035799,0.8846238661518604,0.7856087553469107,0.6863859228762403,0.5798059719020241,0.4811645411875518,0.3981548009068341,0.4344897338165401,0.5337241435369768,0.6340426065217497,0.6993213064772017,0.6741273747685734,0.6408876095578258,0.6039142092849867,0.6332351786564319,0.6568025240128401,0.6589387826152358,0.6585311919019206,0.6497300330646985,0.647063110606612,0.6575353831669157,0.661437330728472,0.6953816932866359,0.7599429749031437,0.8210653003530641,0.8214840669325572,0.7695294141515094,0.7039439177168343,0.6508808134060424,0.6266360058266396,0.6359999777799357,0.6624152998023511,0.7325633819846336,0.8215272286354791,0.9110218173303388,0.970891637489272,0.9303761303655085,0.8525335916238195,0.7569125319812686,0.6582819792272558,0.5582947167899084,0.5392023264345456,0.6137461334375143,0.6792247524176358,PM
0.3307657047907264,0.3781554645836871,0.3965311876358064,0.42071922695150743,0.5055298121810341,0.6161698135476348,0.7248836803821064,0.7541873980181228,0.658993875764398,0.549000366706669,0.4355705358380124,0.3279896880184714,0.2253199543851625,0.12799382390885938,0.06174998185155234,0.02160935428483257,0.02067714622361705,0.0650942777769723,0.1412462815177864,0.23925624867325168,0.33701172596667384,0.4332127557218084,0.5285777723446592,0.5909609159185947,0.5441444310216776,0.4717165630432527,0.40271536119444074,0.35048688536718364,0.342717973231474,0.3397089866267322,0.3265068338906012,0.36700108114715846,0.40122157776974854,0.40015833899389674,0.4395604240177753,0.5363981342908022,0.6494949389971865,0.746347227079466,0.7096278059132666,0.6027059119415257,0.49097386430659284,0.38147294353611727,0.275244336809112,0.17437749845937978,0.09815208911127726,0.05198213521960793,0.021688501232754565,0.03222432219179727,0.09783282149635553,0.18767813934610134,0.28544859778216614,0.38271032618489365,0.47781522820014466,0.5572358927331429,0.5426191062387873,0.4722083390833576,0.4063071243683072,0.35621932024220193,0.34819137519499854,0.373577447027833,0.3563872205591938,0.33427905477310205,0.3744690203370342,0.4151058205859459,0.4302127395500617,0.48605126125434195,0.5851028799259654,0.6984287322840861,0.7889321766535238,0.7471169285336074,0.6388546131861563,0.5262224846052268,0.41757242442391274,0.31217870637305967,0.216878947721185,0.13653775316037686,0.0839465501299601,0.05154991596483938,0.06038778079853846,0.11879423115288779,0.2033746617345884,0.29553473936770613,0.39483083289975607,0.4986112931861819,0.5888070145548969,0.6143169493605809,0.540818186701316,0.46062781071701675,0.3910745142129288,0.3424259220708168,0.33679556552569867,0.3325627438357206,0.3149301753501019,0.35170239172938844,0.38822785539850857,0.4100067593087635,0.47405842990313163,0.5854025249497079,0.7017837002059837,0.7446080437567257,0.6570055869006759,0.5478364133729965,0.4535830551632416,0.3484325537905797,0.24396388172604877,0.15001128548037412,0.07058352479830554,0.021447080186094425,0.0,0.02718735392347993,0.09760241139906256,0.18766243218273493,0.28782219999798664,0.3897260823812698,0.48432480662888633,0.5631254442627371,0.5403738066839034,0.46682995718596443,0.4045708318034782,0.35997674097402443,0.3622851699098022,0.39356977166239693,0.4192540829832039,0.3967961109445657,0.40662951911555245,0.46553387408041136,0.5344328701893306,0.6051930173695115,0.6174659365327213,0.544503275915726,0.4454170200854044,0.3465489694803179,0.24937153525946254,0.1568747669484465,0.075860387534882,0.043896389621538745,0.07407141151534913,0.13438122097334348,0.22565487805663453,0.3324105047310977,0.44111976962289745,0.5535406294116973,0.6638651516255907,0.7770940787224099,0.8708343223324162,0.9550734668210388,0.9451368029662608,0.8420352492537329,0.7304844862424766,0.6367230475197894,0.5280136203767136,0.449274181397441,0.42539512398884183,0.4005624154548624,0.3581796803126749,0.3749064723596409,0.3763874151490634,0.38868188365223766,0.450827767600003,0.5245127350736567,0.6035162570705013,0.6721018882938266,0.6508682138121431,0.5609022392707383,0.46284172223377196,0.36627715907380765,0.2717330202615291,0.18016091099668352,0.10746870748412207,0.10532504655858932,0.1439726279031115,0.2132908507881992,0.3098855257802091,0.4143622072091935,0.5244079098361287,0.6191269303539055,0.726098426593961,0.8356490332548616,0.9310715236767066,1.0,0.9650961642868889,0.8557996752525754,0.7450215988496685,0.6328215892633566,0.5431239880379222,0.4795000384598067,0.4623665607483307,0.41763362441100593,0.38159478059136687,0.4103264048838464,0.4144619880627376,0.39121526921751437,0.4106138723108046,0.46998915769242,0.5431840325587514,0.6149801617863933,0.627401043820369,0.5527259777702351,0.46169632886396306,0.3614717517758326,0.2597148818331301,0.16820285888246644,0.09177769014303183,0.07243850935747131,0.10518135990679123,0.16756488449242668,0.256415612348341,0.3588715797311637,0.4708572289769517,0.589391992650417,0.7006249050388291,0.8106175942794245,0.898441677043905,0.9787558824823877,0.9471314364097196,0.8355882872698337,0.7164258143323861,0.6028928664705417,0.49929339994775424,0.44601106880938035,0.42996952655882703,0.38128085610817,0.37524530895044705,0.3858410550448026,0.39407219093586754,0.44886474706502755,0.5212537837370799,0.595217232009468,0.6477144485108375,0.6074075709687499,0.5196261688501234,0.4201474375135672,0.3168742336066097,0.22147154666776636,0.13478306822325403,0.07529523354268797,0.07999698276054334,0.12623294719580658,0.20393051974594467,0.30079605744738824,0.4094706089789666,0.5275489509526583,0.6388422487765308,0.752330834851517,0.8575353226439764,0.9434261295764741,0.9960507737028261,0.9209887547087674,0.802740496395999,0.6870595043090826,0.576915462572928,0.4825541434162619,0.44508595801990314,0.43358302784602465,0.38353258451637373,PM
0.8841679161499731,0.8357683686392738,0.7813977404937462,0.7344517842092153,0.7021991786313277,0.6838813571629538,0.6864494484196471,0.6942130564573956,0.7040159322568686,0.7064902183531871,0.7069172151978635,0.713768188102254,0.7166979916535707,0.7162177319587191,0.7044594832328193,0.6820889558938128,0.6789184024345942,0.6916722149949939,0.7167213779686268,0.7282905688473842,0.7379791134593976,0.6909797538287443,0.6256290923182133,0.5538836914277896,0.4851157620479414,0.4172430079304903,0.3446409177595904,0.2784857016194706,0.2076615146863554,0.13476479165527055,0.06828866993939298,0.005400709004138804,0.0,0.06409639998481209,0.13736659485534375,0.210679625057127,0.2839926552589098,0.35727689208906055,0.4274004021636155,0.49406153033603295,0.567029025955958,0.640339151782108,0.7104645806036924,0.726049988736392,0.6993008048093452,0.6839015457048996,0.6730253449324599,0.666000453687041,0.666311813158073,0.6744582964512615,0.6919947554167034,0.7292041839339916,0.7808824087655055,0.8340000592707173,0.8853138474157884,0.9172063988544124,0.8817833468647498,0.8295318143874102,0.7806080786577794,0.7349385120209864,0.7008043160391364,0.6821180318381466,0.6844508354473331,0.6924206882992026,0.6986025880004565,0.7043053394285603,0.706494681706826,0.7079161811326731,0.7155059586470756,0.7129770992865441,0.7074307275457765,0.6897131173554565,0.6789052783917775,0.6802969808703128,0.6996329228215297,0.7236774570128064,0.7293582046826366,0.6977544900886006,0.6284484559300612,0.5605515257124836,0.49182980162407564,0.41882490310597675,0.35149832608951903,0.2821366750643475,0.20902473144253197,0.14118003665760837,0.07324340129664808,0.018643252471796656,0.03578488704153393,0.10374926104790672,0.1770266135576899,0.24940353741438015,0.3151489585939675,0.3867566563395104,0.46006411303864203,0.5333771432404264,0.6066901734422088,0.6799101348876373,0.7381901056842908,0.7235718559838666,0.6968422382489685,0.6829249425456094,0.6787697184176662,0.6759318920622637,0.6769793485772975,0.6862537805533078,0.7084224999009814,0.7489587471468566,0.7990321764106203,0.8543271448946954,0.9058873675894894,0.9457831251557609,0.9199581821372926,0.8771272096260865,0.833210836701495,0.7845958529155781,0.7402085413436232,0.7129247625506818,0.7066113494048263,0.7065471907340801,0.7100886256286401,0.7122529742190948,0.7159173769026097,0.7167188448437394,0.7166468589936597,0.7098244046423765,0.6877655859844252,0.6777123303519912,0.6882022889327395,0.7107657613277589,0.7271691461531959,0.750475884595674,0.8028354462510403,0.7866710008615199,0.7546111807624059,0.7413117134856115,0.7178482924543912,0.7089863997267638,0.7203340155624405,0.7366047340173394,0.7411874190813881,0.7412376116568158,0.7412376116568142,0.741235400951372,0.7400827522884144,0.7334473073583696,0.7366800722550098,0.7410082977470838,0.7705183037265222,0.8205620447690745,0.8710525707423571,0.922832472647305,0.9708281858968661,1.0,0.9750196819546286,0.9249585939280227,0.8735117251829188,0.8150161022012343,0.7644717020141496,0.727436772844948,0.7088092825129377,0.7066839026393268,0.705410799967024,0.7115541542725223,0.7234145448580667,0.7467003880841505,0.7974238085662304,0.861257539757063,0.925650735976471,0.9565375679643087,0.9113153081553649,0.8449874545151872,0.775502707363513,0.7022374832953449,0.6289244530935636,0.5556115577565015,0.48393022054595214,0.4649396399880019,0.529680799143178,0.5980034307679702,0.6662350806484694,0.7352583574526947,0.8018773037824518,0.8520918448917711,0.8314885060710435,0.7787522128620838,0.7568039379717253,0.7447347149927643,0.7195308695770635,0.7148662762549522,0.7305461421586974,0.7406895665482371,0.7412374427103252,0.7412318250829097,0.739695041031011,0.7361790770882932,0.7310809279123494,0.7228834646267221,0.7173402685685824,0.7135605065056072,0.7358230331138513,0.7779692215814442,0.8266093083346675,0.8754845524629089,0.9241327498352263,0.9575234061271272,0.9409012464356221,0.8951026057542311,0.8399786362504991,0.7860780187825256,0.7407107979403493,0.709144073229723,0.6966581162576968,0.6954545408897581,0.7008768374539862,0.7096512043392333,0.7272129712753674,0.7618780829375331,0.8204593823857975,0.8838141571342357,0.9237145431681639,0.8880317651260954,0.8181955591081302,0.7449032631668353,0.6716004239725268,0.6004372391299011,0.535826459724722,0.5105844190850746,0.5690326841438389,0.6418989246048437,0.7090977754268009,0.778450865853066,0.8428028170025981,0.8596228430102253,0.8087120809250894,0.7645303149095364,0.7493410234515954,0.7284308603307605,0.7162334663301908,0.7206615780987811,0.7375456196419772,0.7412140127374554,0.7412376116567361,0.7411441256459479,0.7363335628698404,0.7311485006207901,0.730690201823974,0.7238091358573515,0.7144197347120949,0.722984325777855,0.7531836913859293,0.7971832440651787,0.8467944067245834,0.9031879009126584,0.9480006866154949,PM
0.06944539908516179,0.05719007923217134,0.0873902827671591,0.12739163040748513,0.157516095196923,0.16897452137836932,0.23102121155189126,0.20661327050443523,0.14490982194715052,0.1926480758014546,0.2964658866703047,0.40800105243059637,0.5278029438516207,0.6342687601315449,0.6006705048346541,0.4916751790417715,0.39230608353263374,0.3014625255260843,0.2239040569266746,0.1778945426469063,0.15316765813826327,0.15238586051287673,0.16428112199132006,0.1739402367102052,0.1950639849687792,0.24979773497411495,0.32026773114647744,0.37193271363982205,0.3829421178819157,0.3174115609902963,0.2570929166224434,0.20717953189799498,0.17409008022303052,0.15308516487215362,0.12709276382732515,0.10249123949875116,0.08617363073788908,0.09287823146772256,0.09062799088767237,0.08983663166247924,0.10447917941429719,0.09388434173233673,0.09316433184629558,0.0931641843409281,0.09294457268876899,0.07958555540104095,0.0362223343682877,0.0,0.010123470682997127,0.04619672949069509,0.07956889478772222,0.1020177797690125,0.1339019858319066,0.10587989341039528,0.14489682617709665,0.22710207201284094,0.33543338597290884,0.43973672329567215,0.4033297417295505,0.3023762035991857,0.20804443940299278,0.13292965640214183,0.07541744485480395,0.05156905657404742,0.03621773837687137,0.03435127676697336,0.03583541528471512,0.060830773350921685,0.09803558263920076,0.1515188997660033,0.21659383563027212,0.2576408902906113,0.21575722315556023,0.1674923136763451,0.1408538146574676,0.1361370362742682,0.14357577482304995,0.14874875309694247,0.1251502890483387,0.133549781418842,0.13709227889751086,0.14146414495017812,0.14457135875981386,0.1479802305595519,0.15195906924996372,0.14998254503828878,0.14149242873839762,0.13421967333653395,0.14672359173244987,0.14527488889279594,0.10854976588125886,0.08444326836012195,0.09601880180754874,0.11854830100857194,0.1086227579636625,0.13350507075004003,0.1987000165502173,0.16396721393923253,0.10950968846413156,0.17389053823247824,0.2803843242405941,0.39512889739437895,0.49936226727215605,0.5450971994782328,0.4547891853041408,0.3532248140946286,0.2690119457766107,0.20558021669915982,0.16316931817598102,0.13484258743035005,0.1456317749635634,0.1519386685496098,0.1553026213238038,0.18275312916155295,0.237002896653709,0.29675567686746396,0.33764036931322305,0.30095929941178756,0.23111398803512895,0.17428852297315034,0.13744053949675905,0.13786233994490882,0.1735775699949591,0.19680960706742434,0.24321401321346325,0.30907605274335737,0.3718733674750525,0.40964586308470086,0.3898284862619632,0.3324526388811604,0.2698954517446466,0.22111129528019324,0.20347318568471273,0.21028959305732364,0.19996490157623636,0.21501844148586802,0.2538474806298803,0.3292383116810216,0.42039960300771284,0.5264842216453061,0.6329372361338215,0.7437913489734544,0.8485958436418919,0.9516884809932855,0.9876873409093809,0.9072043172222588,0.788460501207584,0.6685226849698118,0.5495001885624973,0.4434494779234548,0.3334878239905743,0.3058518467427769,0.3150994510998957,0.24152675079684505,0.19385644239272715,0.19074369699996963,0.16363049244751116,0.16455888639761262,0.2049751526418988,0.22028435646126443,0.22813552079757526,0.21781930660889115,0.2122821085540494,0.21650417524495635,0.2162011863777371,0.20982515437055138,0.1992775523211665,0.19903286996615588,0.19903286996615144,0.19903286996614655,0.19903286996614256,0.19910142325408442,0.20678330992461236,0.23783964398991575,0.28364363802617065,0.31395766566653904,0.2933826808268134,0.22533446978427296,0.1663755597348704,0.12424255683957508,0.09880642934273576,0.09240811433645213,0.08451373152082287,0.09998196562211392,0.12772707470300215,0.19007096004146096,0.27459610889624253,0.37337671433399056,0.48186083786960987,0.5872876022128168,0.6983040473907107,0.7964951205127173,0.8238834392599745,0.7377196078916062,0.6289689996833916,0.5184251725481728,0.39895628341335154,0.29138763549506086,0.2418355917731998,0.2335113875225039,0.1630038638849176,0.13769724544622797,0.10577738985163965,0.07440869171412068,0.06658116983370466,0.10867383836396005,0.150664055605501,0.15398952691255596,0.14593817059403902,0.15896994547064303,0.1598220287407801,0.15981582364449354,0.15702187400195777,0.14222864525987555,0.14029175967700436,0.14812766905477837,0.17360395919412097,0.1985261153566813,0.22615688543980061,0.24780874781793116,0.29672763369974886,0.36253878311772114,0.4228213232298348,0.450663330683001,0.42417778897230907,0.36447430208444054,0.29350375664200445,0.24415567031307583,0.23154254397012775,0.22643228029256335,0.21959211778114573,0.22628078478777258,0.26648009800377404,0.3469767701081179,0.4381804893287957,0.5437543929471436,0.6525423241290982,0.76327511483729,0.8706210272070747,0.9689789766861274,1.0,0.9168575103030974,0.8022875737631616,0.6863502699001636,0.5807705786011046,0.462254623458088,0.36653131673063255,0.3638308427317445,0.3142656783377542,0.2439731214515719,0.21954331217972056,0.177477730737996,0.13261953787402314,0.12638311094137133,0.16599215810561807,PM
0.6505640011470071,0.7034024117754893,0.6843954182674197,0.612547912777309,0.5417620688667522,0.474127707340243,0.41166072492190553,0.3880644607984589,0.3873731857827427,0.3873731121534387,0.3873731121534476,0.3873933126535811,0.39181159749171135,0.4055457581730182,0.4066023460657986,0.4059898898522989,0.38704348079248296,0.3452546394312539,0.32296996092898445,0.3362726234903759,0.38906416811034594,0.4238887943797316,0.44599972626864526,0.4882480375736562,0.5589779826741661,0.6646914213012609,0.7257955328820889,0.6522548826720622,0.553353871604902,0.46305389711019806,0.3866969027447995,0.33400120932915156,0.30626146248419506,0.29198948471590525,0.2992798103878771,0.3284390778232784,0.3749364743911592,0.41764778900081145,0.47814706296819987,0.5543577165715208,0.6290473533132532,0.7099315747973156,0.7339585187398527,0.6743315563532555,0.5975463976046878,0.5214240285745935,0.45978645253009187,0.41385668147266497,0.3773104797298714,0.37160129363550753,0.38592540491148464,0.3872507724813601,0.37885083934068176,0.36868239454110885,0.3786896133398425,0.3872446512420096,0.38915414035481,0.39596574076079083,0.3795008154758208,0.3716178796152718,0.40517525090483186,0.45155978290636956,0.4495366723639487,0.48470568309584205,0.5182871785796945,0.5893104189319036,0.6896939969386215,0.7798112758207618,0.7269856678413196,0.6263066780353173,0.5255418651666393,0.4416774450424339,0.3816771369862697,0.3297850175158059,0.29774414843421493,0.2770511608685515,0.2898577928913273,0.3219426554620113,0.35903566896349837,0.418336896795962,0.4880893121100427,0.5629981010523086,0.6471985365418029,0.7240828800994685,0.7893747707530006,0.7658301622064783,0.6900283457880505,0.6181422698142005,0.556524029181229,0.5285327791254848,0.5170462311353186,0.49528605803947956,0.46495521059630107,0.4232825355885885,0.39792793241356517,0.38321931390683384,0.36956215575384865,0.37987778447733955,0.38557533689011425,0.3688360313705106,0.33319166560945446,0.292097947658732,0.26311224987178283,0.2730009318837241,0.3303737391960051,0.3514345072601932,0.369009368656962,0.3635542486927368,0.43589130092267636,0.5417593827466316,0.6510700860235232,0.7338699352283649,0.6737677661638082,0.560043712070347,0.4582061727358302,0.3607730909771525,0.2760326081368194,0.19578968147099962,0.1318551295926702,0.06675608249272269,0.025505995597905784,0.00042657683411118086,0.0,0.012817390472445567,0.04619822611156277,0.05769727383356926,0.07021593628256761,0.10300733960353314,0.15595602431332134,0.22683864216041982,0.3090948486203402,0.3960859269831838,0.49295722427323385,0.5959386246200844,0.7001812911302681,0.8037183264415413,0.8838759245382564,0.8737096640354154,0.7879351560880852,0.6865314647916616,0.5826080965897056,0.556022852104388,0.5076043333966758,0.41974872070057634,0.3939768997726305,0.35780256513667785,0.32449306308569215,0.35914574983734715,0.408315239617945,0.4322920594094892,0.4335210848579414,0.4315538218100774,0.42511335578659226,0.4392979870498288,0.4614125058573526,0.4867544836982436,0.5257051374133299,0.5500813114470819,0.567572465963615,0.5838355321176523,0.633251274957598,0.6993612518896617,0.7703637463581336,0.8423507439350768,0.8699440179584021,0.8271423297345151,0.7506014566685519,0.66949748030245,0.5956209299432649,0.5191258072737637,0.44771133849924194,0.38731468284275206,0.36142859872889277,0.3407716293798959,0.35628866534954984,0.39715550551286727,0.45632653003096646,0.5220914518556543,0.6133809947049094,0.7147292591244296,0.8222055504878867,0.9354281898584378,0.9999999999999996,0.9580055638657528,0.8668729126241366,0.7563705909690528,0.6843662438303637,0.641867818845212,0.5529799754491549,0.5235876540575739,0.5077340967269226,0.460024205870067,0.4366545452272539,0.44962959233061506,0.44547300803491163,0.4350993719850762,0.44528810188315715,0.42679603058051097,0.4252800746497396,0.43340150570491387,0.43352300727252047,0.43207366778135015,0.42330062695928516,0.45379785569037345,0.5036192978247094,0.5626760557805541,0.6279968459806895,0.7078785804622627,0.7804123243005008,0.813292913758346,0.7767743390219919,0.70389803634502,0.6295838558621965,0.5550290145531154,0.4818748691907184,0.43246768985541806,0.39021989405784785,0.3576680515481021,0.3473575474434605,0.36589485271650046,0.4051362955169253,0.4656114862610239,0.558529371160811,0.6630825121961612,0.7675173746719666,0.8687801595944413,0.9497073245197316,0.9437632480401139,0.8645321393111436,0.7834505175058468,0.6881408511958593,0.6280162351319456,0.5454434764378919,0.47951296263388965,0.4614278386381905,0.41225774895099176,0.3831051357664772,0.41702888668130367,0.4504180108269247,0.4527515541769649,0.4527539632120585,0.45265900269730786,0.4450512258105963,0.4338737145462379,0.4336113589418762,0.4411777578514515,0.4430148306397914,0.43619282640177515,0.47112733311319,0.5337613484939525,0.610010639013066,0.6845533091225517,0.7533409482703295,0.7917899686416807,0.7606819731963759,PM
0.0,0.029796341901324495,0.06304737739489955,0.09631002511938729,0.12888181758037323,0.15834976508477855,0.19106537034510973,0.22432877963438327,0.2575930688462767,0.29085735805817026,0.3241216472700637,0.35738593648195727,0.39065022569385066,0.4239145149057442,0.4571788041176377,0.490387261076892,0.5211190973095774,0.5519745672260782,0.5848626117302372,0.6118056114420993,0.6394025322749902,0.6652195927508807,0.6916938699220364,0.7213242838700867,0.753558076191406,0.7780363246742328,0.7962475669788419,0.8114262258513675,0.8154057467830768,0.8134420068429211,0.8180688637223211,0.8257114184682619,0.8418847004799521,0.8618668169852285,0.8836304354824099,0.9079672473571334,0.9311220748391666,0.9482609173275118,0.9339969786272168,0.9095078898058226,0.8845196376551973,0.8585117515405646,0.8315314797714859,0.8091660734652019,0.7936043661656389,0.7951297673582554,0.8066375615842489,0.8230372068569802,0.8460132968077574,0.8705973028175111,0.8986020166415346,0.925127565180147,0.949539737838687,0.9696967423906196,0.9707746745672529,0.9520567621142922,0.9305360270550679,0.9068643063770478,0.8829637240289554,0.8602236708627229,0.8434074636118746,0.8326335070239621,0.8274116810118998,0.8316944124177053,0.8331763274007467,0.8292069340501792,0.8463174506745588,0.8597243393919853,0.8362418442509183,0.8066951518459711,0.7746946417413956,0.7414372755647283,0.7081729863528345,0.6749086971409414,0.6416444079290475,0.6083870417523798,0.5763898407339696,0.5466533342709627,0.513627192578626,0.4803630056895638,0.4470987164776703,0.41383442726577657,0.38057013805388357,0.34730584884199006,0.31404155963009633,0.28078107874219943,0.25033034943223875,0.25554799574673254,0.2878337235683998,0.32109762097807293,0.35436082222883275,0.38700156049818013,0.4164576046015984,0.44911601627028264,0.4823790232175564,0.51564331242945,0.5489074993185115,0.5819336410108487,0.6116701474738555,0.6436673484922657,0.6769245100232705,0.70985625843752,0.7394553012329862,0.7716502432353604,0.8027435131770434,0.8287279352111401,0.8387587568180832,0.8401875749157857,0.837069052641091,0.8262209974241578,0.8226093761367521,0.8281503745431424,0.8324940166996863,0.8304426566038683,0.8283836107417666,0.8249498739301971,0.8211275990187404,0.8163820084867902,0.8078852625900634,0.8035074065143298,0.8039303981824261,0.8066434414325501,0.8135439889340903,0.8263479036710151,0.8492752533060705,0.8746422511713657,0.9005149815120965,0.9268609596256442,0.9519770294564968,0.9761297905101162,0.9972243517240666,1.0,0.983319822549455,0.96039320792709,0.9347447503214332,0.909419223719455,0.8864353989316166,0.8649609285237718,0.8479542066519266,0.8383962456903945,0.8383083703444161,0.8403969399255602,0.8416723315597864,0.8429492673459481,0.8637958832334337,0.8585611251901015,0.8309881281813213,0.7988889555601579,0.7656294859006324,0.7323651966887389,0.6991009074768453,0.6658765703038161,0.6348769124030108,0.6042794224003836,0.5710837944492551,0.5378195052373614,0.5045552160254684,0.47129092681357426,0.43802663760168126,0.4049775388474519,0.3873786667218348,0.41286748665048584,0.4460907077136548,0.47935499692554784,0.5126192861374408,0.5458461053603929,0.5768379569140392,0.6074358823126651,0.6406363991650313,0.6738937653416986,0.7058942754462747,0.7356410381268276,0.7686382391777342,0.8001397033497222,0.8280072942330061,0.8448132040385431,0.8474414829693953,0.8435059680037973,0.8340587735700606,0.8233176015260654,0.819236582863256,0.8262979244683819,0.8317789561025444,0.8319705132169086,0.8343545837814983,0.8306337649174164,0.826759057801885,0.8189574371624804,0.8149299971103756,0.8108762614313759,0.8063310653057132,0.8091268849506675,0.8119574727195688,0.8257517637887378,0.8474725327124195,0.872104232420063,0.8975271847263897,0.9234406294138395,0.9503509901275249,0.9734105772950472,0.9830418645001209,0.9700886106571703,0.9470970056505505,0.9237163692295085,0.8999872248265866,0.8776709617280999,0.8564573739827109,0.8384951600745143,0.8271469263482067,0.8244213028675748,0.8205919454151914,0.8193658739989585,0.8323394981140363,0.8433788643733823,0.8221957205591186,0.789819695526345,0.7565574070246437,0.723295477745728,0.690896923700138,0.6613773421647217,0.6285398301514603,0.5952760047851599,0.5620117155732669,0.5287474263613726,0.49548313714947967,0.46221884793758544,0.4289545587256924,0.39569026951379943,0.3624467260587453,0.3333591529005653,0.3403036930563363,0.3725066236693174,0.4057703571537645,0.4390346463656587,0.47229893557755176,0.5054689055124292,0.5358190002438856,0.5670758312183367,0.6003160486051423,0.6335783371068436,0.6660698380662537,0.695560840361374,0.7283289058994118,0.7604318047554273,0.7898002982169443,0.816422390818695,0.8283666111724824,0.8300924198136698,0.8295266855714746,0.8208069406966074,0.8097043179890208,0.8170318161109535,0.8286725327799865,0.832700439265839,0.8302359533892418,PM
0.0,0.046157106076490484,0.08178056012205037,0.09089834627361892,0.0758819919296625,0.05862741374317515,0.026261676283936386,0.006262579538898305,0.050117747002817015,0.08979717948106358,0.09349649547456207,0.08825897469150368,0.07196803626285109,0.07833427104601387,0.09813383385656327,0.10820083441803785,0.14669699230933064,0.20799793431880986,0.2768056779291823,0.34961017608420697,0.4198644220411476,0.49295342465349723,0.5632202781399624,0.6343177533733433,0.6481893239464676,0.5862347499931067,0.512223675451315,0.4372963501115146,0.36290097445267344,0.2925295362108178,0.22075855591105764,0.15254198059715884,0.09050863511900997,0.048900554587050116,0.03948231623181453,0.05546411859610745,0.09056364239534764,0.13810792023686047,0.1946707899659028,0.25549067308711004,0.312316772896289,0.3384620287934328,0.29486297448214294,0.2407947594509945,0.1877003718991732,0.14564808793711648,0.12344270819920067,0.12240554587610353,0.12318967507893097,0.11517824327575266,0.09470080874968856,0.07512049530216858,0.08773420339534566,0.10368097852695601,0.12030427525655729,0.17430304274645292,0.24234453480980722,0.312827934774363,0.3874255978242831,0.46235657437314437,0.5369351467023498,0.607583248034588,0.6802696249907869,0.7269268954491117,0.682035661933897,0.6108376745294715,0.536794657879264,0.4665271363911292,0.39289781453298267,0.3220989377313701,0.2500604082801987,0.180415222524009,0.11348698413591074,0.057242869518124295,0.031244311232906385,0.02765749812009788,0.05219162481352335,0.09599409785685142,0.15066164360326972,0.20697238711998933,0.26458372349958315,0.3119134308532643,0.29015161618935004,0.23517221028334712,0.17937281940417193,0.13421240192515227,0.10369612668339478,0.09927323737185578,0.10830621636285187,0.10252038038763256,0.09287472160973909,0.06725138746151582,0.06696128390029166,0.084676580158356,0.09211456027368659,0.10832523867430943,0.1647717227769423,0.22769219161350662,0.2923334752250031,0.3621680003605914,0.4360103026983022,0.5089432856005973,0.5797204926355612,0.6501782236012745,0.6596746390298409,0.5957534196998913,0.5217040800070116,0.4513734949696393,0.3783308673708452,0.30803326947263376,0.23427083104540314,0.16057160333598164,0.09463689165519007,0.04168843226100305,0.01880956441270576,0.020566100084230765,0.048649686860789076,0.09470379344315483,0.1484805801504312,0.20836120225571508,0.2559310018190888,0.22550260462682226,0.16818848558059285,0.11284808005487901,0.06366212076407973,0.039657193838835925,0.04906536314231125,0.09126348543246854,0.15637295924620864,0.2257829869367045,0.2957720878871877,0.3661873795924233,0.43893863425730006,0.5100550673804465,0.5715612770577609,0.6443778073971109,0.7193014094827523,0.7939518864192225,0.8646987713068379,0.9294990852723417,0.9317681547240517,0.8684145439487281,0.7984044214856585,0.7259205402458297,0.6555140531726595,0.5822516221378555,0.5119514967985803,0.43860902035245974,0.36834981787657695,0.2942643395966513,0.2196635676935157,0.15161181219922382,0.11376015054984001,0.10777942554794895,0.0900272967084722,0.09517460342232276,0.11574182247776954,0.12441543788121989,0.12805655576722574,0.12055038213245362,0.1302261915132068,0.1681529474581802,0.21797501079581738,0.2749693244388942,0.3287019290258759,0.3470161854298375,0.3050365615674102,0.2484168754223275,0.1906518615898769,0.1321791906152201,0.08295599470793313,0.051154849048847595,0.052857438681609414,0.08441726935956007,0.1462857546963907,0.21909221472641138,0.2837307337848691,0.3491914990538896,0.4196339414151913,0.4930013554572328,0.5633370553021511,0.6376561883248335,0.711399609465841,0.7817143555192771,0.8557682056521665,0.9266784622094917,0.9927599904166007,1.0,0.9351387253008172,0.8603786774772308,0.7883564347836007,0.7167810990567587,0.6429955101122169,0.5727292355345288,0.4993751446357464,0.4291174019126942,0.35559901129855764,0.2851449184526915,0.21397297581719932,0.15137935652757673,0.12489847967400203,0.11385776448423335,0.10273528332390203,0.11933796489380133,0.13447266058451657,0.14273845269036434,0.14265674562717257,0.14345744462135568,0.1673578223141039,0.21352643230405222,0.2681872447025595,0.32248064034113777,0.3684416650271185,0.3621483249572619,0.3097847155594462,0.2480322305695999,0.19012509731790717,0.13648371683904736,0.09044558538592484,0.063696177101352,0.06712211914456567,0.11020338202709645,0.17402411493778147,0.24353155334457255,0.3144609947418022,0.3847770356978095,0.45735153927559336,0.5280151272710238,0.6025493446634365,0.6748788180766341,0.7461655579129021,0.8198114895453765,0.8898916565978163,0.9465490700827313,0.9197139317609948,0.8503105045873165,0.7791080031277189,0.7074967624732542,0.6356950050424255,0.5627996302587874,0.4921220643183406,0.420406430132805,0.34895893761074404,0.27762547059583587,0.20797690667753144,0.1447105981645116,0.11974306401533341,0.10405428421205865,0.0955549076297173,0.11103337252963885,0.11413300427465134,0.11687795554788405,0.11312509141230365,0.1173994077849212,0.1441074155610227,PM
0.6518490234354686,0.6656159628245573,0.6840786017039677,0.7128330564178267,0.7544938342997414,0.8020896605903025,0.8473892798618017,0.8951002323034445,0.9419709398572327,0.9695872826554,0.9376471316740678,0.8919795942039976,0.8450913530334381,0.8003046663260347,0.757055513547485,0.7169716337941288,0.6881488244900951,0.6645271848874823,0.6471370221345685,0.6355980432362072,0.6311129625094156,0.6356344623693737,0.6421717718031117,0.6477725339906908,0.6418516306225395,0.6228096949756026,0.618731080165217,0.6375276693798566,0.6363405346753757,0.602404394069405,0.5480702823922954,0.49435299866531873,0.4367666690244791,0.38115109229874716,0.326562553473475,0.2686218344545927,0.21136362958806493,0.1577928104248022,0.10051219108556853,0.04267949791093961,0.0,0.022514563767497164,0.06979489330509403,0.11946503830697303,0.1771586140414479,0.2352443859810513,0.29332997330099314,0.351019101354582,0.40482721964563767,0.46144548183305684,0.5195184612443942,0.5767718190578333,0.6298753798577015,0.6636587870305235,0.6552915169979887,0.6616759535628065,0.6758393270979746,0.6937830750781575,0.7224768072626355,0.7635659848146188,0.8083785418886889,0.8545941699295871,0.9017499844544534,0.9493451829360815,0.9536928562280882,0.9092499571292101,0.8629691173197336,0.8167000425351132,0.7732684301262964,0.7353747886457975,0.7069232563443879,0.6779176239445441,0.6537831678680999,0.6369929319921628,0.6323940564410706,0.6330495755038794,0.6307488248265756,0.626217907187147,0.6299536857837618,0.6372666163913698,0.636588934750524,0.6170216283053434,0.6169772890385152,0.6369864679653614,0.6464021794254033,0.6498930042568332,0.617521313187841,0.5646349023968928,0.5068996718428809,0.44881391948122057,0.3907347729362635,0.3338978687852992,0.2802053704433098,0.22265946782788731,0.16693497287834597,0.11259579833014444,0.06498729624317762,0.07472480841616502,0.12638336391077226,0.18427732520318202,0.24231195667111344,0.29778588135665823,0.3525024690011829,0.4104679320539036,0.46853207120779,0.5246574194469071,0.578804110838615,0.6346492819460723,0.6646917605607441,0.6580605886124671,0.6640507927539614,0.6720695818766942,0.6849089124736276,0.7154908805740072,0.7532491715540048,0.7956328559026811,0.845647484832369,0.8948320873221005,0.9350636678723501,0.9277979002235743,0.8843694947497887,0.837281687019908,0.7936426503061074,0.7551546256097281,0.7187940006650737,0.6898818270462479,0.6612721753297184,0.6372212847340823,0.6268641387369438,0.628075994836119,0.6323347850142922,0.63843747273047,0.6383284595482701,0.6322026643516252,0.6220052814156254,0.6358275596002236,0.6576465630480572,0.6665746492246465,0.6660635328996078,0.6610532927024184,0.660796204234454,0.6555138649826517,0.6536413247591115,0.6681659632763763,0.6948331827858496,0.7223343828065611,0.7557817719742037,0.7944812439354232,0.8376315306811104,0.8811049686799288,0.9266875799579226,0.968306644798937,0.968085954494379,0.9276470288677909,0.8805097746166344,0.8324750066490805,0.7857624921220971,0.7473295878176547,0.71438945808293,0.6987476483212336,0.6848746685262095,0.6852652850133301,0.7108402961928875,0.731940961125723,0.7008381080940365,0.648910896077568,0.5919065169667375,0.538164603048952,0.48143254870667457,0.42343901187467664,0.3778627771942688,0.40421063421092535,0.46154921513264574,0.51743618685802,0.5716870742896201,0.6260109109700107,0.665237291778698,0.6717984360051046,0.6686803474740186,0.6512467060944067,0.6530631945867065,0.6674731438876906,0.6698329171994846,0.6635638488477646,0.6641076156549437,0.6656216500716916,0.6629185020000694,0.664182227912967,0.6732640093570248,0.6901192881702214,0.7163677810638718,0.7429045299750827,0.779161891408088,0.820447897233975,0.8655468313417733,0.9142512662922879,0.9620628768030772,0.996037151464175,0.9852480537158319,0.9425370246699476,0.8959528465982116,0.8491278454455291,0.8028047618624528,0.7575591011762,0.7228730111327941,0.7015492683705384,0.6888654820520979,0.6845573125540707,0.7106490431255637,0.7218918511774179,0.6802396376714182,0.6265085020538914,0.5716401385024319,0.5140400432248275,0.460207044701422,0.40362857182080886,0.3474789058248668,0.33686825110728896,0.3884646931456924,0.4420592418705958,0.4952191111592042,0.5453456263947878,0.6023736012302032,0.6531786598009466,0.6710051890369666,0.6665735499409231,0.6592373466730728,0.6455261718357537,0.6569123870592963,0.6676198709309893,0.6727208713864559,0.6674176382742985,0.6634294842699016,0.6587299291820734,0.6542557821334918,0.659798718646365,0.6780646699871102,0.6970745465983565,0.7231272865684928,0.7611080783608892,0.801694435929214,0.8449105781948718,0.8868390821269871,0.9331037937210118,0.9771529556709804,1.0,0.9731490869261847,0.9268632624658142,0.8793512488490307,0.830150979104489,0.7836578546548301,0.7399713639204855,0.7084642183908614,0.6896947229177184,0.6746587240009774,PM
0.004283461424510637,0.03737977390316338,0.0989746840553698,0.18205092687173297,0.17439192528345648,0.24682755171909454,0.35151420967268265,0.471430333238648,0.6029476273174481,0.698009869043525,0.6418454283064929,0.5378891198762759,0.4548883001360937,0.39676924780708633,0.3631800242233574,0.339175290962054,0.35382377491354333,0.4002090741249176,0.479668529358646,0.5776586151545549,0.6661094470078575,0.7179636947731787,0.6526148263841494,0.565474248079533,0.4890111371824295,0.43543853116564124,0.4233040356137754,0.411461480921294,0.3972397434723507,0.37900787004837344,0.3818349740221598,0.3889177265636268,0.38100695603243295,0.34636972069113403,0.3006275565097116,0.31353296687158316,0.3724623089199568,0.40204181978656717,0.39026951253749065,0.2896252945269464,0.16704225451494414,0.053695334318649035,0.0,0.08423322691054524,0.20554146428658848,0.32536733182003186,0.4531108133841637,0.5744771316596884,0.5663338532457343,0.4640527951721549,0.38430365345366946,0.3327361448782553,0.3207972641965391,0.3335051256706709,0.364192485810547,0.4284807822449985,0.5039625126834459,0.5936647640136754,0.6900367968095531,0.7324790803117014,0.6671336551384628,0.5740524501224518,0.49301058777854756,0.4349394513776983,0.40944083159803935,0.40537498491458335,0.40933124141702937,0.40718838263885315,0.40866829043049924,0.4083737733042909,0.4184111930950922,0.43262468936847,0.41611372397678137,0.38198456493909205,0.3438977902712681,0.35428312874474255,0.4043021196367538,0.4239660717955158,0.4013986083652967,0.2914307912505931,0.16678295699972967,0.09181125342324048,0.14094618550709637,0.25796556520618275,0.3775218291503153,0.5080964764291145,0.6235810058975351,0.6465155646661755,0.5406032639611933,0.4417323215309068,0.3830127254912714,0.35452692210539505,0.3443382985122847,0.3619382273307381,0.40470885246278776,0.4829059637909143,0.5729433957075494,0.6614613080707943,0.7459495769546627,0.7511367868117556,0.6714037157836281,0.589460446950302,0.5177035274987296,0.47779382204318166,0.45907078652264977,0.4445231940470169,0.4498438034675942,0.44404185268717633,0.46421901399060106,0.4891209305405817,0.4990417366267166,0.5127614719897662,0.510413194195789,0.47238877686835146,0.45076198275544677,0.4826528023819341,0.5210630703147023,0.5133667077326707,0.4366047166082003,0.3130513335208249,0.20474390130672937,0.164727244686242,0.2521986742466993,0.37620703414500856,0.49593028050485755,0.6240097977189585,0.7449005006407945,0.8398606747335422,0.9537483181651343,1.0,0.9124870783739434,0.7962956387222717,0.6699011304008442,0.5479123769792698,0.42902474178509076,0.4223081103742934,0.5277914335924931,0.600512181843452,0.5835922791950905,0.5650156415032974,0.5250698253467405,0.5250173105549174,0.5568070516753476,0.560534064907726,0.5601236059672701,0.5481175749188516,0.5259859286162829,0.49881404625154424,0.49986411824859367,0.49416263380268344,0.5049960777135891,0.5232771714739717,0.5635978797178733,0.643651306740745,0.7282677523262162,0.803412357795561,0.8413754094954853,0.7913002927030583,0.704793021823293,0.6122150089917233,0.5210901114326627,0.4463896806001615,0.40557046961066323,0.4013255720810034,0.43154778797455506,0.49982742755868204,0.5988766146425584,0.7072563601826038,0.8218998262055313,0.8913089973031907,0.8227673530959354,0.7067417677488868,0.5882599534375559,0.46057687700107985,0.39406689000732653,0.47433193797273177,0.5410149654518333,0.4964799003052289,0.4741751225861668,0.44536275911181855,0.40293943004709876,0.4315162461856734,0.47122711206622725,0.48574173674490817,0.47823420639231884,0.46388443924726186,0.4605234754093699,0.45950144181687946,0.46644292828993494,0.4587382076886177,0.4727179938189843,0.5151386754917375,0.58895322655267,0.6766430791587732,0.7653583042797889,0.8111053090880884,0.76636042338537,0.6737545935343539,0.5851430667312307,0.5012487245372608,0.4294968321920227,0.38844726153685594,0.3779090403763714,0.4039120179254132,0.4830153364852663,0.5882176092938582,0.6968104322339417,0.8127163160637485,0.8775049554109065,0.8142108737798175,0.6867492583452726,0.554104238641568,0.42828143032624943,0.31432329795084746,0.31445794093230806,0.42130399042013966,0.5151604181635987,0.5074132563036078,0.45301816574662457,0.42468353485841615,0.37313891229760054,0.3807558252548664,0.4234044234760952,0.4471770436551674,0.4484540776475101,0.43839145782804856,0.45131576136065377,0.4701557204219249,0.48093902034757985,0.4869445473056282,0.5250348318797591,0.6006021967504007,0.6834705613369301,0.7644103650332692,0.8065127911560901,0.7576576836385209,0.6663070243865992,0.5672433021646159,0.48078993528258396,0.421887663906896,0.40761652975707285,0.4269097952708214,0.4709451635194908,0.5386704160999125,0.637210669905266,0.7594260313480738,0.8733875827289959,0.9613863774317166,0.9269719874035314,0.8151318560990761,0.6962144525779235,0.569062058575176,0.46221492104188666,0.494041491478598,0.5787150336598574,PM
0.9999999999999464,0.986228980296365,0.9716395596848496,0.9570501390733349,0.94248246721804,0.9310174630556468,0.9188767576339315,0.9043037722470885,0.8897143516355736,0.8751249310240584,0.8605355104125433,0.8459460898010284,0.8313566691895132,0.8167672485779981,0.8021778279664832,0.7875884073549685,0.7729989867434534,0.758510395832593,0.7484159996102969,0.7348416448246998,0.7202743686734269,0.7091479364863663,0.7019127878775216,0.6877067914702776,0.6732159429522447,0.6634306042393593,0.6549203605784938,0.6405719381158556,0.6267130399625015,0.6166936852261485,0.6024148929751186,0.5878255712896089,0.5732361506780937,0.5586467300665788,0.5440573094550639,0.529467888843549,0.5149199872243625,0.5039341747197389,0.49129982093569347,0.47672152201730256,0.46213210140578764,0.4475426807942725,0.43295326018275737,0.41836383957124224,0.40377481466374954,0.3901254183922084,0.3799670823197009,0.3656174727449958,0.3510280521334809,0.33643863152196596,0.3218492109104507,0.3072597902989359,0.29267036968742055,0.2780809490759055,0.2634919241684127,0.24984252789687167,0.2396841918243645,0.22533458224965897,0.21080645086658167,0.20011817282675604,0.18811224791734804,0.17848113628678675,0.16999207866529698,0.16345314130237576,0.15850445815944747,0.15365353236353496,0.14429232091756528,0.13109451286277496,0.12350370947390332,0.11623702135580427,0.10799591612745674,0.09834996405332797,0.08869830274362889,0.07871085549303158,0.06872340824243417,0.05895981828576902,0.048940979743039126,0.038194978275225,0.025561811603246554,0.012653353852718041,0.005135049529616409,0.0,0.00014183249936161602,0.00642286342230225,0.016374500916141455,0.027527293901960737,0.037513778188969504,0.04941760951485419,0.06040342201947857,0.07495122471265891,0.08923001696368926,0.09908047691291288,0.10864677723338678,0.12075479572631842,0.13104756076389767,0.1416914686481886,0.15361773102214404,0.1636838778446057,0.17472002161633515,0.18470826027497766,0.19452781455512624,0.20416855202371287,0.212219035272306,0.2180960224501941,0.22106625284636938,0.22450169335999903,0.23010857381729954,0.235334615294707,0.23676732089215924,0.24065408353008977,0.23519308285439466,0.22954232627997873,0.22344166651193742,0.21612170572150524,0.21136176141457164,0.20653593075972254,0.2020068676832667,0.20176755127648516,0.20309972395129916,0.20799586533478087,0.21267896059959535,0.2129896878860862,0.21298968788608674,0.2129896878860873,0.21298978681209346,0.21330081087660113,0.21888594257768157,0.2241114894250612,0.2242123191257167,0.22421231912571737,0.2242340678819379,0.2271764314340674,0.22982165622542106,0.22982244763346626,0.22817435522182428,0.2243320464193893,0.22717662928608118,0.23020329976159448,0.23493076071769547,0.2379001007798207,0.24102451722894302,0.24104626598516388,0.24104626598516454,0.24031574352700413,0.23574528194781985,0.23449462924736186,0.23006344578234927,0.22982363474554013,0.22982363474554068,0.22949115870283077,0.22178645520966112,0.2215810564089079,0.22306002297578598,0.21876989829304483,0.21860681166749218,0.2202506787336479,0.2251664914272331,0.2297228050448894,0.22982363474554524,0.2298236347455459,0.22982363474554635,0.229823634745547,0.22982363474554768,0.22982363474554834,0.2298236347455489,0.22974257528100295,0.22502406478023518,0.21898314167212174,0.2186012013579347,0.21860100350592393,0.21860139920994703,0.21961646503586518,0.22413855171285224,0.22767539332796616,0.22992003046691334,0.23380741959787843,0.23856597894073472,0.24435546245524886,0.24248545066265348,0.24261448604434488,0.24097101468221227,0.23624669601986859,0.23020577291175537,0.22909331013940726,0.2245230464122342,0.22421241805174996,0.22421231912574513,0.22410951090497921,0.21617626292574288,0.20178880540271193,0.19032380124031922,0.17818388722664802,0.16486323628235855,0.16251589885562223,0.16575543588035568,0.1793004411150415,0.19094710247040547,0.2028912982905675,0.2174787403819719,0.23206816099348637,0.24665758160500073,0.26124680436450576,0.27545477929186035,0.28533515269205934,0.2994039484312483,0.31399336904276276,0.3285827896542787,0.34317221026579314,0.35776163087730917,0.3723510514888234,0.3869404721003379,0.4015298927118539,0.4161193133233684,0.4307084371568676,0.44459960201334325,0.4545869868245903,0.4688656801496155,0.4834551007611304,0.4980445213726462,0.5126339419841607,0.5272233625956751,0.5418127832071907,0.5564017091886776,0.569597964674959,0.5760887527903643,0.5889536425751992,0.6035372550251391,0.6181266756366536,0.6327157994701528,0.6466069643266287,0.6565943491378757,0.6708730424629011,0.6854624630744158,0.7000518836859316,0.7146413042974461,0.7292307249089606,0.7438201455204764,0.7584095661319908,0.7729989867435066,0.7875884073550213,0.8021778279665356,0.8167561268849274,0.8293904806689724,0.8403762931735975,0.8549241947927834,0.8695136154042978,0.8841030360158139,0.8986924566273279,0.9132818772388441,0.9278712978503586,0.9424607184618733,0.9570501390733887,0.9716395596849031,0.9862289802964194,1.0,PM
0.30354864159401784,0.253594335468704,0.19447421449837177,0.154139483710374,0.13603027398534207,0.10467511868699808,0.0810523644365766,0.0572267547453118,0.019485056920924393,0.0,0.05554196431619429,0.11135753964970174,0.14702114798120003,0.1552708149677049,0.15639287262843893,0.1576415961098785,0.13889829163575773,0.13113355142107208,0.1453526109854939,0.15281196064717206,0.18273244202261285,0.2585810205018997,0.33557827810492036,0.41467232949050814,0.4906419534612889,0.5652820674041439,0.6386732826705874,0.6713961427636685,0.6057738059676574,0.525200579287251,0.45744422478837854,0.3906547263925184,0.3137254146430928,0.23792735051932423,0.1673818691591218,0.10800460630085507,0.07011230983106764,0.054027803559473675,0.04240942678076798,0.04974186931349034,0.0948448525990675,0.15607360895055966,0.22023959543478488,0.28640502336537654,0.34655967966025436,0.3457748936646283,0.2868390512997734,0.23288580353814514,0.18455313103044824,0.14896327453688185,0.14564516093123103,0.16379520704170503,0.17673948338201795,0.17391198055813417,0.16711292053976345,0.14924776726039202,0.127096906445622,0.13210418050390937,0.14463492657944488,0.15997986735981584,0.22304376988073082,0.2988551634824901,0.37897262422350053,0.4553506397618343,0.5317154344693475,0.6053630376126373,0.6858964679220805,0.7607934218572914,0.7482293517901701,0.6697853953202686,0.5932458709610442,0.5166032325809455,0.45719878849736983,0.38795027369853474,0.32125435066360586,0.24686367129612075,0.17520187493936779,0.10846683456373629,0.06749476903609763,0.04985446914407765,0.041477242560331584,0.05503441284944932,0.0982883078856216,0.15376559662693157,0.21867987423719204,0.2882730959280604,0.35386944795595787,0.37530579004249054,0.321860114929823,0.25554746924062877,0.19903694383740067,0.1592009990941876,0.14323229388310144,0.15279595666456758,0.16326182924414923,0.163095095740714,0.1582009806310125,0.14044472688253085,0.12665339799048625,0.1434918903797744,0.15209217384046214,0.1801920520367657,0.2519390719553358,0.33015396153446575,0.40823381647979584,0.48520481480575284,0.5651956629074444,0.6422395652940476,0.7156751016589256,0.7295114878256013,0.6560787781450097,0.5752794018267657,0.5035990355383861,0.44522791626342184,0.3707233735314488,0.294235697350397,0.2182440300368229,0.1464282059884474,0.0953023314311845,0.06804706673735872,0.05796947335110314,0.052179482912167785,0.0699704713061291,0.08470795903809969,0.10043875451015127,0.14050644306736237,0.20348751381320773,0.27504930891352175,0.35252686980421366,0.42916678460066304,0.5100852011270443,0.5892527962837626,0.6486370695348027,0.7247075143931683,0.8039486166404304,0.8819248885226438,0.9612222516381779,0.9962210012755286,0.9402603659464932,0.8583040948948384,0.7766179785795744,0.7003012887274489,0.6248288588787854,0.5516110430272918,0.4757604383717231,0.39638927480955743,0.31982295850002185,0.24241399773753058,0.185353949943728,0.1695310849239562,0.1557699979485112,0.17204605416208207,0.18743164590629946,0.19171351637129463,0.19184565703147283,0.18012340195449528,0.17104612793090834,0.19531875480731498,0.2455617555052365,0.3056390849474806,0.3697512154648728,0.4292250332168206,0.4283695994543446,0.37279505251383904,0.3015256831150741,0.23553991174195632,0.17204687162616117,0.11519221071239172,0.07421370771463498,0.07105282151940728,0.08445446189351813,0.1211655512710268,0.18234457616094168,0.2545024356635186,0.335872999980279,0.4155022799137813,0.49230283305251654,0.5676285308741296,0.6323155818366306,0.7004221349210564,0.7818777379261777,0.8619432682517074,0.9388871316229694,0.9999999999999998,0.9691445195776554,0.8923383500732507,0.8149193700041053,0.7360598542198169,0.6598969810365021,0.5848794582584049,0.5108357383501785,0.4337643306161867,0.35580036183894515,0.2792835853530926,0.20465259206118858,0.17451863106971288,0.1625487431909387,0.15251981811445292,0.17491233956889385,0.19105847919978536,0.19807846819140784,0.200361727894798,0.19027515650744053,0.17239331341127628,0.1785760201306288,0.22426997999947917,0.2848128187651653,0.34701686660966846,0.4026650762956161,0.4039026181273937,0.3469285928668422,0.2833303982709898,0.22494553683514895,0.16099022068002444,0.10217097203342385,0.06654928332970078,0.07122194560607165,0.08518668372892568,0.11908113697203881,0.17798079835401626,0.2491070015516217,0.32405703057378643,0.40038042991630207,0.47674408916378175,0.5520732814769671,0.6179774788551806,0.6978229079840763,0.7772475072235756,0.8551028622250183,0.9357559882582385,0.9867067152216447,0.9498357273608697,0.8755633719389506,0.7954363746213369,0.718858410759929,0.6393861472083542,0.5625114699097724,0.48506063859858783,0.40642157080899066,0.3298038279521802,0.2508561146648023,0.18938218839111154,0.17210054279414466,0.15670550390838023,0.16625317160584197,0.18296220366291127,0.18096713211770554,0.17977905567377928,0.17787420787118302,0.16995293714207338,0.16776920880886936,0.19571665494343038,0.24711970882466816,0.31121255127016845,0.3681398602776238,PM
0.004283461424510637,0.03737977390316338,0.0989746840553698,0.18205092687173297,0.17439192528345648,0.24682755171909454,0.35151420967268265,0.471430333238648,0.6029476273174481,0.698009869043525,0.6418454283064929,0.5378891198762759,0.4548883001360937,0.39676924780708633,0.3631800242233574,0.339175290962054,0.35382377491354333,0.4002090741249176,0.479668529358646,0.5776586151545549,0.6661094470078575,0.7179636947731787,0.6526148263841494,0.565474248079533,0.4890111371824295,0.43543853116564124,0.4233040356137754,0.411461480921294,0.3972397434723507,0.37900787004837344,0.3818349740221598,0.3889177265636268,0.38100695603243295,0.34636972069113403,0.3006275565097116,0.31353296687158316,0.3724623089199568,0.40204181978656717,0.39026951253749065,0.2896252945269464,0.16704225451494414,0.053695334318649035,0.0,0.08423322691054524,0.20554146428658848,0.32536733182003186,0.4531108133841637,0.5744771316596884,0.5663338532457343,0.4640527951721549,0.38430365345366946,0.3327361448782553,0.3207972641965391,0.3335051256706709,0.364192485810547,0.4284807822449985,0.5039625126834459,0.5936647640136754,0.6900367968095531,0.7324790803117014,0.6671336551384628,0.5740524501224518,0.49301058777854756,0.4349394513776983,0.40944083159803935,0.40537498491458335,0.40933124141702937,0.40718838263885315,0.40866829043049924,0.4083737733042909,0.4184111930950922,0.43262468936847,0.41611372397678137,0.38198456493909205,0.3438977902712681,0.35428312874474255,0.4043021196367538,0.4239660717955158,0.4013986083652967,0.2914307912505931,0.16678295699972967,0.09181125342324048,0.14094618550709637,0.25796556520618275,0.3775218291503153,0.5080964764291145,0.6235810058975351,0.6465155646661755,0.5406032639611933,0.4417323215309068,0.3830127254912714,0.35452692210539505,0.3443382985122847,0.3619382273307381,0.40470885246278776,0.4829059637909143,0.5729433957075494,0.6614613080707943,0.7459495769546627,0.7511367868117556,0.6714037157836281,0.589460446950302,0.5177035274987296,0.47779382204318166,0.45907078652264977,0.4445231940470169,0.4498438034675942,0.44404185268717633,0.46421901399060106,0.4891209305405817,0.4990417366267166,0.5127614719897662,0.510413194195789,0.47238877686835146,0.45076198275544677,0.4826528023819341,0.5210630703147023,0.5133667077326707,0.4366047166082003,0.3130513335208249,0.20474390130672937,0.164727244686242,0.2521986742466993,0.37620703414500856,0.49593028050485755,0.6240097977189585,0.7449005006407945,0.8398606747335422,0.9537483181651343,1.0,0.9124870783739434,0.7962956387222717,0.6699011304008442,0.5479123769792698,0.42902474178509076,0.4223081103742934,0.5277914335924931,0.600512181843452,0.5835922791950905,0.5650156415032974,0.5250698253467405,0.5250173105549174,0.5568070516753476,0.560534064907726,0.5601236059672701,0.5481175749188516,0.5259859286162829,0.49881404625154424,0.49986411824859367,0.49416263380268344,0.5049960777135891,0.5232771714739717,0.5635978797178733,0.643651306740745,0.7282677523262162,0.803412357795561,0.8413754094954853,0.7913002927030583,0.704793021823293,0.6122150089917233,0.5210901114326627,0.4463896806001615,0.40557046961066323,0.4013255720810034,0.43154778797455506,0.49982742755868204,0.5988766146425584,0.7072563601826038,0.8218998262055313,0.8913089973031907,0.8227673530959354,0.7067417677488868,0.5882599534375559,0.46057687700107985,0.39406689000732653,0.47433193797273177,0.5410149654518333,0.4964799003052289,0.4741751225861668,0.44536275911181855,0.40293943004709876,0.4315162461856734,0.47122711206622725,0.48574173674490817,0.47823420639231884,0.46388443924726186,0.4605234754093699,0.45950144181687946,0.46644292828993494,0.4587382076886177,0.4727179938189843,0.5151386754917375,0.58895322655267,0.6766430791587732,0.7653583042797889,0.8111053090880884,0.76636042338537,0.6737545935343539,0.5851430667312307,0.5012487245372608,0.4294968321920227,0.38844726153685594,0.3779090403763714,0.4039120179254132,0.4830153364852663,0.5882176092938582,0.6968104322339417,0.8127163160637485,0.8775049554109065,0.8142108737798175,0.6867492583452726,0.554104238641568,0.42828143032624943,0.31432329795084746,0.31445794093230806,0.42130399042013966,0.5151604181635987,0.5074132563036078,0.45301816574662457,0.42468353485841615,0.37313891229760054,0.3807558252548664,0.4234044234760952,0.4471770436551674,0.4484540776475101,0.43839145782804856,0.45131576136065377,0.4701557204219249,0.48093902034757985,0.4869445473056282,0.5250348318797591,0.6006021967504007,0.6834705613369301,0.7644103650332692,0.8065127911560901,0.7576576836385209,0.6663070243865992,0.5672433021646159,0.48078993528258396,0.421887663906896,0.40761652975707285,0.4269097952708214,0.4709451635194908,0.5386704160999125,0.637210669905266,0.7594260313480738,0.8733875827289959,0.9613863774317166,0.9269719874035314,0.8151318560990761,0.6962144525779235,0.569062058575176,0.46221492104188666,0.494041491478598,0.5787150336598574,PM
0.0,0.06718760410738067,0.14954379850184862,0.14554570611428908,0.14158417121892697,0.1592201986938413,0.14492411882995215,0.08981941093591361,0.041228432349424304,0.02244617118458203,0.10518655988499548,0.15163737668600685,0.21982622002826702,0.30398620074788685,0.3928590567606842,0.48511041694256507,0.5753795001101274,0.5925050172568342,0.519845911408829,0.44768046597940936,0.4004192231625634,0.36768796782924396,0.36436133390676284,0.3743340767038168,0.37934753546686384,0.3927699560993494,0.4342835514279022,0.40764581209350315,0.2995518482598305,0.20030282657554865,0.2020071888429129,0.3004840774782247,0.40882629910096036,0.5199896284280277,0.5559993359191493,0.4638150647565391,0.3546679297043225,0.25547215057301864,0.175679119356833,0.11722153390284662,0.10324545743336877,0.1183852292668579,0.14229974463252804,0.20978169860629148,0.29374228725609264,0.3879369060391231,0.48611482793935057,0.5341098408383793,0.4786713792729329,0.4106666300457049,0.3613067351353525,0.33931914140440655,0.34189619751369715,0.33545994038698357,0.34527449673879484,0.3535497403720602,0.3620530102028163,0.3684212358631367,0.36262967711451033,0.37286863418999294,0.3891659749523715,0.38873365073953003,0.4266323677474122,0.4176894945744474,0.3077032786062017,0.22548553017799255,0.2697949110366733,0.3693531877629095,0.48087814002929763,0.554530795447874,0.4807382691014226,0.37718094282787096,0.28309616582179986,0.20895476922000178,0.15634223822188664,0.15447260366851756,0.16292875165087972,0.16321771375670435,0.2294967898786604,0.31642585748817975,0.40792402085548174,0.49531835010645864,0.5309228834935102,0.46792748666814665,0.40635545188811406,0.3658010783430661,0.3484957310556873,0.35102391074188644,0.3780455966291574,0.4039555633992089,0.4454756510736666,0.4020191639334256,0.3028641544845714,0.2407616526101104,0.30892380756472404,0.4068579945579738,0.4098150585892748,0.31067838344676524,0.2273314020165591,0.16185500064010805,0.11299869107075144,0.10587255778379356,0.12648496561065992,0.17964655573953392,0.2558440489995988,0.34022489003664225,0.43145563223616845,0.5234559419892197,0.5598400532678003,0.5013495952498288,0.4321442952977663,0.39754936553459475,0.3684842787858349,0.3739660402380953,0.38959989379672644,0.40075127249246734,0.39529375904958064,0.43687324286898876,0.47163424522796893,0.5029007832556105,0.5833457672954538,0.5560023647261381,0.47378938610916066,0.43915414188123325,0.44300231839531845,0.42379922985924834,0.4106687440764567,0.4291418169882344,0.4668632427418773,0.5311139478979743,0.6072361138639537,0.637641611055233,0.5724360100359966,0.48539680794913886,0.3966905202462514,0.30886478931956685,0.22777592216801912,0.1644931282917268,0.15056418467936483,0.17924111263191023,0.24007809051618745,0.3275079403669583,0.43208069399722815,0.5394767702229228,0.6504733263205411,0.7584086291566008,0.8592346557925237,0.8785679193949827,0.7812493430745997,0.6713687993896276,0.5723492274213386,0.5011399054459016,0.5371931274073942,0.5033651439144662,0.44294142452291885,0.4118464776224706,0.3858014230201512,0.3935423464101624,0.4229942309137651,0.4795889986044837,0.5522734890010632,0.6050761266611615,0.5747323401258742,0.4946067663027347,0.4034570406474529,0.3071056329418149,0.22826578115418927,0.20792740055867354,0.19715167233771647,0.20662532005763,0.2720071643113582,0.34875550306333203,0.4489370528575636,0.5580383795387149,0.6760274076151371,0.7934639006804054,0.9016271185451008,1.0,0.9939375526744993,0.8962998996078206,0.7800326197092038,0.6717292352292925,0.5567816430518548,0.47641894456545053,0.5301407901268789,0.5340086815344134,0.4628118093054243,0.43263427897645457,0.41198965744366634,0.40975418941095665,0.4158043223313608,0.4075149129723781,0.3952661994926161,0.3842056004579675,0.3808909869018233,0.38099037932506175,0.3912010507446424,0.42384172790847874,0.47866997566376535,0.5544742296776781,0.6073099358454952,0.5694310982248934,0.4820404042817743,0.39100069597295795,0.29833777762666935,0.21666143171084418,0.16037620181272905,0.14997115793786708,0.16505665789892054,0.23385680683384757,0.32818780955802795,0.4322672836211976,0.5413065179403636,0.6528932929560223,0.7629675651672607,0.8747833224611075,0.9636136627403364,0.9410499173268088,0.8348473512991093,0.716566581982307,0.5982654229316946,0.502718854940035,0.5402878974271199,0.5577412764526621,0.48392226596554533,0.43475754156650037,0.41695575759367554,0.4131716820357565,0.41029058410957964,0.41224563535404535,0.4430890599571522,0.4934780489093349,0.5719043602269762,0.6465757936439611,0.6750333729632234,0.6142829532224177,0.52254029833197,0.43087967933191695,0.3381258305936323,0.2473211332087164,0.1975679554999834,0.22839239838759307,0.20559554689282056,0.2157246702542963,0.27789683695490464,0.3670084539719318,0.47091394159586786,0.5786956668094336,0.686506161429083,0.8009197806418529,0.909015191964508,0.9857512441152063,0.9267277142468284,0.8186214072861553,0.7095789893236759,PM
