0,1,2,3,4,5,6,7,8,9,10,11,12,13,14,15,16,17,18,19,20,21,22,23,24,25,26,27,28,29,30,31,32,33,34,35,36,37,38,39,40,41,42,43,44,45,46,47,48,49,50,51,52,53,54,55,56,57,58,59,60,61,62,63,64,65,66,67,68,69,70,71,72,73,74,75,76,77,78,79,80,81,82,83,84,85,86,87,88,89,90,91,92,93,94,95,96,97,98,99,100,101,102,103,104,105,106,107,108,109,110,111,112,113,114,115,116,117,118,119,120,121,122,123,124,125,126,127,128,129,130,131,132,133,134,135,136,137,138,139,140,141,142,143,144,145,146,147,148,149,150,151,152,153,154,155,156,157,158,159,160,161,162,163,164,165,166,167,168,169,170,171,172,173,174,175,176,177,178,179,180,181,182,183,184,185,186,187,188,189,190,191,192,193,194,195,196,197,198,199,200,201,202,203,204,205,206,207,208,209,210,211,212,213,214,215,216,217,218,219,220,221,222,223,224,225,226,227,228,229,230,231,232,233,234,235,236,237,238,239,240,241,242,243,244,245,246,247,248,249,250,251,252,253,254,Target
0.4100821810579982,0.4073746264486713,0.3770422427860902,0.35722691983534904,0.37066079260380747,0.40330536741980905,0.4379605442442085,0.48168592594976767,0.5186355237961622,0.5565297502785769,0.6001763872496224,0.6341205708106163,0.6740641680035004,0.706937821394038,0.7392874777007785,0.7663889648593938,0.7921802522290009,0.7951107803150568,0.7803531544065798,0.7594647707373521,0.7381825783856426,0.7218234449753229,0.7005209155672829,0.6848484043548679,0.6743437628911302,0.6558909235591193,0.644517589511175,0.6269392234424989,0.624340335783172,0.6144336053902215,0.5975561028701808,0.5809820212775088,0.5780079585652409,0.593656871400114,0.6206706281695911,0.645661853454885,0.6750050831407406,0.7044515075292721,0.733894639147711,0.7632973594968391,0.7927236619529321,0.8253455795099134,0.8497477762466219,0.8634525276725791,0.8658341714663247,0.8577387135593808,0.8525534283410905,0.8499346126781173,0.8445468106363205,0.8524271192016797,0.8554185847045126,0.8541344754621378,0.8409409861117196,0.8458051082463012,0.8527051001017729,0.8617194623487618,0.8659284286223303,0.8669650829969782,0.8776752048762475,0.8793934247191584,0.8860573628269099,0.8966128533369346,0.9016204685655835,0.8763821713443702,0.8505933767765059,0.8314755025374363,0.8141010603332908,0.8103944277395665,0.7900521504898323,0.7527764788566431,0.7186698156848541,0.6844378835018072,0.6510052623080429,0.6173567476906165,0.5935392711126455,0.5671529679620537,0.5378330191175524,0.5128625548600318,0.4854766372908612,0.4586596957642399,0.4345936642497006,0.41463306739316286,0.4193900105824302,0.4406101761274561,0.4527754746264985,0.471583669217559,0.48886654707917643,0.4905277663698415,0.4900667689531826,0.47306064869107356,0.4403191310166179,0.39675508632678214,0.3526947627065864,0.3086409954557585,0.26853186643603166,0.23366767956961798,0.18986062600134335,0.14580027408406648,0.10177252885402432,0.06352756950807104,0.027696497756857008,0.0,0.0023114940177417775,0.03156014443668709,0.06424506262111485,0.10699751585782424,0.14372403595681593,0.18182028647934412,0.22031027334851028,0.2564652525568285,0.29251347313586695,0.3295644595794005,0.36005648098001886,0.38455280625895516,0.4065584690704105,0.4214186599681282,0.4113861677498849,0.41008457154292177,0.41007575814732466,0.40543851304581957,0.3968789599728211,0.39588869163584484,0.3838042741185639,0.36545072534664236,0.3455978312792227,0.3317086136014027,0.32964118948012966,0.3296607725353198,0.33448932156133404,0.35534399624210966,0.38381879924807083,0.41204089765781227,0.43812218101095035,0.46741882454678674,0.4918895687957274,0.5127168184240052,0.5333408539692939,0.5578237751300401,0.5708224443228374,0.5872000010342746,0.6170612667828528,0.6370702095256431,0.6662604823893199,0.7030872851523706,0.7326213024039072,0.7657951359646695,0.7860592519255087,0.7981170818973715,0.798897958027498,0.7988980861361004,0.7988980861361017,0.7988979888970436,0.7982176994577639,0.7892288019938736,0.7981224293612645,0.79889795905649,0.7988980861361075,0.7988980861361092,0.7988980861361101,0.7988923534486525,0.795318080508232,0.7857781472409346,0.7854907238498545,0.785490480880831,0.7842664931680399,0.7728947336723047,0.758766103622917,0.736876573762848,0.7148576380872127,0.694737531568574,0.6807491044917158,0.6844627663752108,0.7063688538737485,0.7339675191503674,0.7563316917022505,0.774080427023069,0.7937010341482611,0.8107906984256434,0.812304153542931,0.8102117222040008,0.7894472583510299,0.748498105679468,0.7044416823723747,0.6604544852950989,0.6236293551919481,0.5856314153292632,0.5416075702341425,0.4975471937498557,0.45348681726556705,0.4094287646787296,0.36781607467333655,0.3374420290465372,0.31845089387215064,0.3312889500473726,0.36412046680674104,0.39906896091092947,0.44224223107162475,0.47586418884082615,0.5176843034098968,0.5595439689573021,0.5930162355845017,0.6322597733354556,0.6669129771207989,0.700047015159738,0.7294780611057328,0.755463709734423,0.7712804325945477,0.7791443243419582,0.7854442270073223,0.78548236247642,0.7806220997154223,0.7716799602851774,0.7609585353802943,0.7499226044567324,0.7352952616652897,0.7184693532904269,0.7016493710231688,0.6828829269890142,0.675762522256067,0.6654567789258312,0.6707531621209091,0.6894627786914582,0.721856032468299,0.751170293805826,0.7806059418558737,0.8100523662444061,0.8394987906329363,0.8688514406996708,0.8943135883838096,0.9216361138207936,0.9331881254897567,0.9434052765163399,0.9475475333187777,0.9583897317340639,0.959869394182495,0.9669177841733134,0.9747990847476538,0.9952429057093197,1.0,0.9974108872606782,0.9788863323397239,0.9570935952359725,0.9409748172430841,0.9262793279879884,0.9196070826939122,0.9203333741552409,0.930807678193899,0.9330054317073744,0.9389673225296806,0.9534614834591739,0.9568054420139234,0.9428856512336821,0.9170467161361846,0.8806038739547732,0.8482896290608335,PM
0.12837830432430075,0.13357821634318534,0.15983340803470547,0.18830671955845713,0.19293369565719676,0.18179827066954424,0.17177456851370732,0.15108412912855385,0.12434560701911934,0.09253864089121788,0.07282607520070217,0.06781848901986032,0.07451190997461499,0.10728779349438633,0.13870475987990605,0.153758565742093,0.14222113645361145,0.12165457151175585,0.08872879821486435,0.06974438614985723,0.06538556514795002,0.05065387528958887,0.027692747860934785,0.009685182158960526,0.0,0.012052785967593849,0.04054329123164635,0.06624819125472414,0.09452568829339891,0.12475658617090168,0.15214266606209592,0.17688672211839185,0.20377321419582173,0.21592707438727765,0.20961193764585095,0.20993243287118224,0.21746423808988102,0.21151033273190567,0.21576613785485765,0.21111525870859182,0.21414920224978573,0.21041536214324252,0.1996492003075938,0.19917325017808363,0.20080757474283994,0.20573419828461348,0.20011985607213822,0.21201796147937002,0.21571405000730892,0.2026747189995688,0.19063029503721518,0.18240796674851922,0.17462205335997827,0.17466418807182582,0.18647379976999767,0.2087779323846266,0.22939964894434195,0.2391524766252342,0.2439269495276517,0.25053362594885953,0.25686635823493265,0.2502873584113978,0.24225496100070387,0.20904289959690492,0.18215440856891463,0.15233108243833615,0.1285003540708629,0.12315005876463081,0.1439193818527753,0.18060302961398134,0.21395637430171588,0.25409772902321315,0.29543123131966786,0.33160863739831914,0.36828422587269993,0.40965208485742743,0.4510449878912832,0.4886684321084225,0.5239162937344723,0.5652073119541343,0.6066252301099526,0.6480431482657705,0.6894610664215883,0.730878984577406,0.772193510028369,0.8080658856522742,0.8450562605369298,0.8858464462163447,0.9194702620570214,0.9571482616482405,0.9785321424160576,0.9568378506688942,0.9180040165341623,0.8844157360739096,0.8454706929328744,0.8119460442364095,0.7719951888317427,0.7355505977296994,0.6991513513203245,0.6578136498254321,0.6196360094126188,0.5849040354565223,0.5442361180179867,0.5106238605090179,0.4711451337027821,0.43632007117939553,0.3982080753718964,0.3568167907569557,0.318177040109775,0.2871259427582793,0.2653061982900651,0.25661892218676097,0.2544041679349409,0.25601531922911946,0.252387983410882,0.25290025638733127,0.2463401501865754,0.223209636032627,0.20936456311749962,0.19468235110427012,0.1767447363471637,0.14719996034570948,0.12141534823971867,0.09627556419858996,0.0708806116311489,0.045629916602979215,0.04400093631231061,0.05716249974682297,0.07627810799891543,0.10721573628410841,0.1325435735687197,0.16247624926103166,0.19154180580604052,0.22121949870389623,0.2510022658105979,0.2691413218586609,0.28258403323513726,0.2901492553834113,0.287510812266347,0.27380901209584296,0.28150646336046803,0.2842304320566873,0.289316276525742,0.2829290966283753,0.2934374731714311,0.30124945380402024,0.30933733863719626,0.3131399623928093,0.31340585734227644,0.31046838956248735,0.3103878361367065,0.305135337671979,0.2914950883201277,0.2725994514261907,0.274793698767422,0.2545941605659914,0.2429226283716439,0.25774771305902133,0.28296969065481714,0.29841563949351624,0.3116836287358151,0.3220347212359964,0.32998112024586446,0.3238235420262183,0.31196573976597985,0.31909721952192105,0.30867869342779297,0.27983267991070915,0.25424286666765883,0.21774381218714023,0.1902142652668839,0.18000708894671824,0.1957293688274251,0.22996406138897973,0.2705450210318705,0.3039300419316009,0.3439556701259585,0.38507318809480484,0.4194285839998466,0.4581001272954004,0.4995099245345769,0.5409063213742931,0.5787868980074122,0.6138137624590447,0.6550651516312835,0.6964503682922429,0.733492498127486,0.7692804505080995,0.8106203105566885,0.8516683867727535,0.8858458207810784,0.9247643155180016,0.9661494445852106,1.0,0.9829444698622516,0.9499691308115121,0.91272361139319,0.8788973719136091,0.8518154824936945,0.8161718389763588,0.7826306038803281,0.7427782911664842,0.70164025735746,0.6672321849941953,0.6286413873139085,0.5902509842504455,0.5557025055809777,0.5159731688187059,0.48254249495254165,0.4436149307236936,0.4101173378006082,0.3760335703178288,0.3456651530140953,0.3214745987691927,0.30802401486610953,0.29415003216305546,0.28105100074697953,0.2800154724250312,0.27400494311767787,0.26210362074007665,0.2483023489388967,0.2327963621366047,0.21773360129522024,0.1950573899581869,0.16928519288720745,0.1417502242866453,0.11799709457344276,0.10234899440644729,0.09017101397376548,0.09806795962128101,0.12270503389991361,0.1485223799398523,0.17727631297806035,0.21055671135570853,0.24025842106775297,0.26574262816533767,0.2931274759073854,0.309771947773684,0.31651439444604157,0.32429413318053935,0.3252129928897416,0.3304423118270481,0.32209506189401105,0.3113862128356917,0.3158269215632048,0.3108476801408169,0.3104514949924706,0.31009466178281064,0.302812976164045,0.30708142429955654,0.3106684829008355,0.31694203450277225,0.3060582459934216,0.28421428147777816,0.2760891763443709,PM
0.16040391244287644,0.16376405176816666,0.20942307586401387,0.28462990471865046,0.3617099410882676,0.3874894352973768,0.420242927846878,0.4651714851751376,0.5205771397657819,0.5807109759832252,0.6285082427292923,0.6645509775286027,0.6683652662918846,0.6760613655909986,0.6946706200426775,0.7020125976146754,0.7425255918372966,0.811638414036842,0.8779601187443311,0.8815683319396421,0.7955576232693393,0.7063051718971862,0.6367555747278968,0.5493918915265605,0.4943194364324266,0.49184838937439546,0.48646087340886757,0.4475671837638884,0.3599580792749104,0.2687517564589581,0.17754276328708363,0.08645701091512725,0.016786946465600305,0.0009799911359800184,0.0,5.53528250968327e-06,0.005212213082111283,0.05123350725401021,0.03695003279335918,0.013405613893710644,0.052442216046480805,0.13632427378210155,0.18715872637016862,0.23696894500582566,0.2123672013088429,0.20442167653593302,0.2273714219306573,0.28881966579134977,0.3779687975991597,0.4489082478088755,0.5344278063272552,0.6132963511372345,0.6897582968186335,0.7569477340001263,0.7702496057698469,0.7350539309895736,0.7120026922343858,0.6954413395089172,0.6950751710951146,0.6950753345649203,0.6958928379224365,0.7149234027731457,0.7007902180299852,0.6950040725934792,0.6827291566274494,0.666310579555438,0.6464716292078267,0.6740178150229972,0.6772682443073523,0.6553238572517892,0.6255027566328955,0.6149439197117101,0.6148744387180654,0.6165650029047565,0.6382505667359264,0.661317509869193,0.6832033059830143,0.6929539984004669,0.6711480982961926,0.6525253712488417,0.6013597100852093,0.5758562315178621,0.5616618768975417,0.575720130834076,0.6087747717995158,0.6578020190677676,0.7184917138011211,0.7783267267971348,0.80177859771312,0.8020098527449773,0.8020098527449808,0.8020926562792368,0.8146317834902006,0.8605580143884715,0.9286105225372929,1.0000000000000004,0.9985600564825874,0.9192749906484905,0.845428055501849,0.7546755208106108,0.6634665372546062,0.5725482779306872,0.4993142341499319,0.45753337457714816,0.47794481985559534,0.5236491438460704,0.5867139131889636,0.6557254521445128,0.7367221420191892,0.8081586731908277,0.8283099638407942,0.7809470677422072,0.7647606089732633,0.7347768487878228,0.7048926810888587,0.6956788762130093,0.7138721092076614,0.7174737639500051,0.6965859191042436,0.6917239070270376,0.6701564836385034,0.6496946570380131,0.6066247590974805,0.6096714926695994,0.6398907241147813,0.6501255844258922,0.6680122147877952,0.6681471469524971,0.6530551442157191,0.6376960816433477,0.6166539099889214,0.6268145058626415,0.6440185416745314,0.6668170046040953,0.6894605417399471,0.6884777956121249,0.6595581715147243,0.6233489470418063,0.5705087531541708,0.5326773692789266,0.5023871905244213,0.48361681210827223,0.5131833012365035,0.5666570032771516,0.6274965676506281,0.6876453595412415,0.7335624431506962,0.7421807595680021,0.7228064755409478,0.7318973870472889,0.7227521746879124,0.728331564837505,0.7486226707962387,0.7829577669151173,0.8464715875955506,0.8319381180968484,0.7420947969427272,0.6509121999186109,0.5695723765973457,0.4948355021272852,0.40405209893483063,0.3248333415162281,0.26373724238365215,0.20307644458347518,0.16319401524164556,0.19737023513791385,0.26552662746827727,0.3519854333098116,0.42940849188599417,0.5078730973760428,0.593666286623376,0.6645335366455005,0.7505474452902248,0.8164502840213266,0.8181568451461962,0.8012523169226777,0.7797772975368065,0.752150617265293,0.7366963881773585,0.7256526444839673,0.7429260559107171,0.7234992518405519,0.7218091203680479,0.7215952117539568,0.7056851354171978,0.6765242204984916,0.6618143303564721,0.6476914175949227,0.6753872466686999,0.692337129854192,0.6662899687965269,0.6429422275706735,0.6416080706672518,0.6416078302704888,0.6416089095012558,0.6440144666988306,0.6656048532059136,0.6569818120700837,0.6143808699271625,0.5623539991576272,0.5139539124047485,0.47561425778506417,0.41915211812320274,0.3780321342746391,0.3508481219129318,0.3503114139030443,0.377214440659841,0.4302617792008694,0.4881269062365212,0.5410750191967186,0.561259538630011,0.5615923880815896,0.576285185857063,0.588089168494959,0.5946741186746727,0.6405548080524581,0.7049734707965416,0.7733729752149414,0.8346498206020345,0.7811744456799503,0.7056500274140878,0.6147171722176972,0.525020128285759,0.455194229228693,0.3690151913280322,0.3053094632557163,0.23819317212521218,0.1538396687607091,0.10230460921712448,0.09100402456058809,0.16345279557788084,0.25272891034403155,0.3227468869351031,0.41005334931174486,0.4861235990355657,0.565998812091514,0.6505996275183397,0.7089453137400379,0.718431783484569,0.6971045246500158,0.6871400254141053,0.6688882684622164,0.6683415487623638,0.6683792042485952,0.6768596779368594,0.6942227100862675,0.6743691501130278,0.6440911644605305,0.6178239065093956,0.6155592013712545,0.636055263726591,0.6662581535078966,0.6851546513341877,0.664616875924438,0.6431267816647899,PM
0.7611577442392892,0.7728391881435743,0.7819967155341989,0.7729650599942874,0.7729119847175387,0.7865187480271718,0.7915131198055243,0.7802439157161696,0.7745684894839977,0.7904016812100969,0.7915823529521475,0.7915825104089551,0.791582510408956,0.7915825104089564,0.7918380497690625,0.8049177329557433,0.8105191578455146,0.8104710756337674,0.7990189605215634,0.7713295815316061,0.7559893449106214,0.7713313624732705,0.7855871029762587,0.7932773495649088,0.8150943874846379,0.8309252181949529,0.8528609305308041,0.8732033966420336,0.8860658404484933,0.8863177329503116,0.886316278349327,0.8817715398266501,0.8417795209893382,0.7996610720852049,0.7535167874880031,0.705819069061786,0.649268327689938,0.6022219556994157,0.5546822370316749,0.4980890758691059,0.4413978512570709,0.38820675148912187,0.3460973803115146,0.2902658402804881,0.23361806868720114,0.1861826730139864,0.1523970555614489,0.16053880693414158,0.19983310311144953,0.24094661430930842,0.29524500371989415,0.3519367756817844,0.4084522987125885,0.4509304468750468,0.4838998242725774,0.5242731118859947,0.5662134671754702,0.5951672025053623,0.6343292858983003,0.6753849045558202,0.718662146643053,0.7624565667597807,0.7899237305119637,0.8077087817646706,0.8105276429417168,0.8077552615510983,0.7927684912449022,0.7911261453489113,0.7747487942418334,0.7522725093555098,0.7355445989700953,0.7180911674154324,0.6899244467055268,0.6615650397627069,0.6307321226183893,0.5872327340664483,0.5575679231336843,0.5237475137628786,0.48599573994642986,0.4532494969900238,0.4169694298754645,0.38778701045199293,0.36771084626724804,0.3561052489179093,0.36633098019133525,0.4005207958497019,0.4318131896111601,0.46376194688206906,0.5076227175615973,0.5511923127319278,0.589583746022488,0.6273765136086933,0.6651746196995196,0.7056102915563609,0.7438364600063605,0.7777491557192384,0.7948067685776352,0.813062410254668,0.8269990732485928,0.8122395323613119,0.8192062429192739,0.8277408590293569,0.8122027785519919,0.8105299429358124,0.8105964309999498,0.8189322412467122,0.8294199200109502,0.8294765994255222,0.8294797872128368,0.8322202381476496,0.8476440596739918,0.8510859435411802,0.866577877616364,0.8699516489347117,0.8855093634956623,0.8863096499957654,0.8809525377997192,0.8676356609660423,0.8673706884420671,0.8673706884420676,0.8673706884420676,0.867370688442068,0.8673706884420693,0.8673706884420698,0.867283797827437,0.8555392600731757,0.8484421634471229,0.8484217319582799,0.843710185532605,0.8369052197196409,0.8474636884889879,0.8307824069376535,0.8080702019835431,0.7805279108640715,0.7681189603640495,0.7540826326803249,0.7537058336808671,0.760476919056218,0.7680854423641321,0.7611064713414621,0.785147785387343,0.7751470357899484,0.7617100833206143,0.7537389516233555,0.7494404136072812,0.7302206960498552,0.6886371019108624,0.6469740979223961,0.6061564377890347,0.5530761525025718,0.5116371634026575,0.4578877197666271,0.40120062848168203,0.34847974760307343,0.30610971019381816,0.25006844317791943,0.19337601889496936,0.13673554082110018,0.09004206494373435,0.042212188021265806,0.0,0.001855111803681364,0.03426422253613515,0.08896853082450917,0.1399818663838941,0.1837196540071746,0.23450121949867597,0.2781835238438455,0.33309340473569593,0.3744501480946165,0.4233444577743275,0.45389612903100396,0.4864006052456622,0.5200387857961584,0.5428825233082986,0.5361626250674592,0.5316494130435117,0.5450613327852332,0.5579932573761388,0.5859359053407527,0.6181974273549251,0.6520764548446496,0.680439258537223,0.7087861151318733,0.7333277368088718,0.7510336228445045,0.7507149300110463,0.732861531885761,0.7079652890576802,0.6737031831106584,0.635956995194007,0.6035897932605607,0.5672581051625118,0.5436676280089454,0.5194387965012166,0.5076819180232324,0.5189991638179472,0.5537677960398795,0.5915595139140342,0.6293522815002395,0.6671530955899065,0.7081233008356369,0.7493726597282895,0.7929988938867947,0.8366221105543845,0.8690559219136493,0.9063284743557869,0.9433137144191805,0.9721738167389735,0.9965745923330007,0.9999987553414043,0.9999999999999805,0.9999993626748065,0.9978479164515415,0.9824936550027137,0.9741261204484433,0.9624105082278267,0.9713580896614449,0.981004246925079,0.9807557683541996,0.9679051649165755,0.9654938121851475,0.9803707639507735,0.9810529554917173,0.9810353589444483,0.9746785354233873,0.9654862037463734,0.974068917182437,0.9623362952399006,0.9621059109834498,0.9621059109834507,0.9618863717928456,0.949440756688475,0.9429678643978896,0.9305784530133221,0.9268386895137009,0.9298836095973497,0.9242170769186027,0.9185984444490143,0.9133968942701034,0.9116504814318986,0.891671295614977,0.8636342069858944,0.8365108868950211,0.8372661818549774,0.8483996628706647,0.856487460245924,0.8821084109855764,0.9029752632240564,0.9255896247100566,0.9445181913869907,0.9686508453837566,0.9883207326334995,0.9999332927444735,1.0,PM
0.17054818483692014,0.1721017209201845,0.21117565199666188,0.2791545278048364,0.3684093481888713,0.45520009435442255,0.5207721621813457,0.5726315129082025,0.595964182410671,0.5969288839304889,0.5803634159745039,0.5183632578765343,0.4334087711865111,0.37168251675172215,0.3047062805783618,0.2242116008943844,0.1721512196335766,0.09573838019160963,0.04233094806485749,0.00595680045106306,0.0,0.005646488474017275,0.05791152444315806,0.14333174079000166,0.20545370814515973,0.26955968765749905,0.29938760368575146,0.2778530661256662,0.23709394853929755,0.2860532778725764,0.35243634305318317,0.43487395671312257,0.48076793868461376,0.5366714317975161,0.6162851441142099,0.6878612425859822,0.7775836699690295,0.8420978241484454,0.8132247775942956,0.7738489634715151,0.7519672034559468,0.7375110346214937,0.7139678730622103,0.7267190856588801,0.7628793262159865,0.7676466723764346,0.7676419040490963,0.7599357850511357,0.7392623845264676,0.7184937222930063,0.6846680684771398,0.6399128213734713,0.5950518668106932,0.5613985659105794,0.5406962521272307,0.5402043812586461,0.5477195447626579,0.5793600711893001,0.6230625798479901,0.6465685871366347,0.6669667343215187,0.6885651480822057,0.7174592932605259,0.74123321026432,0.7651602377490567,0.7673850117170833,0.7486295920054973,0.7271160197869593,0.6885059414835286,0.653450404619953,0.6085697706018047,0.5635455273615451,0.5087176376213147,0.4579719084738363,0.47372533829766184,0.5201791080302565,0.5768009011804844,0.6230353737324226,0.6894157011073148,0.7356692477079427,0.7712498218410175,0.7954829736928861,0.7958971738553542,0.7671608118138913,0.6909970199662681,0.6197592570959545,0.552226797267128,0.5137602102634453,0.5357471885396947,0.6046448830059896,0.6715132242464668,0.7117665091484318,0.7604680949812259,0.8267007945890334,0.913662092642098,0.9980525817991674,1.0,0.9473721609634733,0.9109730416176225,0.8825074766558911,0.8628604958263972,0.8287044053977866,0.8469969174292302,0.8529448800847632,0.8529441884953046,0.8465592347488284,0.823555039512855,0.7967176895669112,0.7696479907914444,0.7422005363272399,0.6985767082802745,0.6656293032641836,0.6216600207246623,0.5791858928852927,0.5686752685751966,0.5757349678682839,0.596298748557631,0.6000259223014117,0.623612771101465,0.6254829852796373,0.6270289666998581,0.6491546724384101,0.653782401013177,0.6382600523581106,0.6237765255906487,0.5904397211192505,0.5454143400802414,0.5003756073551475,0.4553368746300537,0.41026327194167767,0.3636504907736935,0.3069332416165933,0.28657669115310735,0.326286689528307,0.37716700342542797,0.4364321935364748,0.4963528220450737,0.5526142253579698,0.597579118061482,0.6245660601952903,0.6342328920662323,0.6517796113788821,0.6014773266590172,0.5306575086590124,0.4508800733902705,0.3864636342845449,0.3471708185050373,0.35447139980989206,0.41225919207995165,0.49478523756271553,0.5621822095354512,0.5876204221377082,0.6521623069488056,0.7416115715298508,0.8266484655653894,0.8332148052869384,0.8001963814683464,0.7694620900382372,0.7529489221069738,0.7398945717656344,0.7604100434320165,0.7689391800930503,0.7908168817060819,0.7949879362365264,0.7731377819019691,0.7676486580786026,0.7589726298570589,0.7199089969564074,0.6852974741400555,0.6288324511406422,0.5920986974402478,0.5528889149064335,0.5317571080134398,0.512427844934134,0.5288239323176951,0.5667308570341092,0.5943793589091735,0.6172487072439665,0.6375340238301455,0.6593362700978815,0.6880931976371842,0.71036808761371,0.7292501341208872,0.7223950351072927,0.7084122317881958,0.6815852913312828,0.6432388444351229,0.5971783653842806,0.5387629305142196,0.4803891039244661,0.4371466109799984,0.427975736431236,0.4589443245850111,0.5177893988582003,0.5752583428119857,0.6287791902469237,0.692413991430076,0.7518399969617215,0.7746326295627872,0.795743750672461,0.8135712297063717,0.7920577819755508,0.7375822889764949,0.6506280366292438,0.5652356588092262,0.5181660297155899,0.5152828880485023,0.5632399665841277,0.6346110414501815,0.6825483614888288,0.7157596179169055,0.7918753626526343,0.8631389863941026,0.9431175599916042,0.9743399016770722,0.9430469666295549,0.907153487771593,0.8828077261039757,0.866070588215277,0.8739016153240904,0.8813757838822918,0.8813833731666492,0.8803723513837074,0.8586873070164751,0.8354571979774219,0.7976650169405879,0.7676579387719062,0.7297655604424937,0.6838262021122681,0.6314743613480465,0.5945492356141875,0.5515651262196242,0.5306187747928943,0.5185298397669893,0.546925471180554,0.5773258001198318,0.6163682788260916,0.6377924017580296,0.6758652766580209,0.6887808391545214,0.7098890502511193,0.7112480865275659,0.7303739208445288,0.7192704663195597,0.6852458614776031,0.6815273525592236,0.655512513709982,0.6119641471305126,0.5791172440181231,0.5349080661755394,0.4892520403606673,0.4243453139040092,0.37664121889242175,0.379285281436335,0.426311408260049,PM
0.7718173886527508,0.798368265173913,0.8139923826161097,0.8041447912423472,0.8008031019919648,0.7849331874253807,0.7814418280326629,0.781440791270914,0.7841329356850908,0.8144781054474333,0.8596485902129838,0.9043673805147261,0.9207378701671329,0.9067240557116514,0.9160750217671758,0.8893811223793788,0.8674881593611032,0.8654582228077663,0.881826346650731,0.8833938381445803,0.8975851876754932,0.913528040695248,0.923505128000758,0.9219300299617577,0.897163109510335,0.8684450699164037,0.8409877644422403,0.8065569655175988,0.7722562088656071,0.7643958411781888,0.7856755112348242,0.8168627287974681,0.8592700750076769,0.8947103128657559,0.9364785810887399,0.9724299491433381,0.9999999999999996,0.9833756798743232,0.9518001540862358,0.9394033474175068,0.8955256248694297,0.842679104094227,0.7762432738843659,0.7241225736272505,0.6599472011211782,0.5921000520116775,0.5244487672030207,0.4697043084577195,0.4088187255671438,0.3410032267816514,0.27315227285784216,0.20629307279465525,0.15444743071924982,0.09316538499279048,0.07143134454854216,0.09591254641622093,0.1615805284523626,0.22943109023431996,0.2967021595300734,0.3493084510366202,0.41268023929307507,0.4777183651564809,0.5292052381694052,0.5954983536326557,0.649168634504627,0.7052544038615736,0.7351765156580856,0.7685301501547572,0.8022233974999526,0.8280042212587517,0.842143455597391,0.8423606841986278,0.8423606841986322,0.8423606841986371,0.8422554462567815,0.8316847747121474,0.8153747983555975,0.7874672486717751,0.7706284919462556,0.7542661106341186,0.7256690305263342,0.7040939645442426,0.703980760606318,0.7311832251877362,0.7547523189145005,0.7801597931900659,0.8063826503333011,0.824132125962576,0.8340601291280918,0.8223715349624396,0.8220531575395214,0.8220542995104458,0.8239109423998694,0.8403774213589865,0.8423614951432219,0.8442713677403164,0.8607829809914609,0.8625948998413264,0.8530020154544169,0.8451918185945324,0.8614819667793934,0.8585271116347539,0.8515381679526612,0.8755144365423955,0.8644617347715564,0.8756459905376794,0.8617011378898094,0.8324297690931748,0.804353425775493,0.7764246046816661,0.7320750764980155,0.7206801482796696,0.7313543665208955,0.7558084550054889,0.7891970168746116,0.8246416812400152,0.8729315751943174,0.90655339932407,0.9237431211635911,0.9354194822938457,0.929564526024611,0.9298561300678139,0.8709041876893933,0.8096710268939371,0.7551662630129332,0.6876649436585245,0.6202548557137941,0.5668069313457909,0.5044036477306117,0.4365681459940265,0.3687261837410998,0.3060346882983005,0.25282944323435474,0.1856041965174846,0.13076585243566186,0.1160379160402587,0.15034176511160346,0.2010965817222492,0.2626514392690127,0.3285539621229754,0.37987087436647426,0.44588472963242953,0.5117468147045039,0.5630184477146578,0.627855758023355,0.6797363287290308,0.7438581173565013,0.7814881431665617,0.805534230998481,0.8393810594492943,0.8711944558795013,0.8671160670019109,0.8709183771264901,0.8747154381203073,0.869296626924795,0.8702517104467793,0.8627142249211452,0.8624957971939349,0.8500052649988334,0.8331642476990737,0.8013151367660156,0.7736237868878177,0.7395346351629959,0.7107918138714133,0.7002856066911813,0.7058077259849691,0.7358138743433007,0.7697263734678002,0.8036547157883298,0.835571476686733,0.857795469948134,0.8741020781998277,0.8902364209329168,0.9026077454267969,0.8882543266798786,0.8815875795979191,0.8650283931397662,0.8625353248198815,0.8510879543115708,0.8424170811231932,0.8423606841988995,0.8423606841989044,0.8423606841989084,0.8423606841989124,0.8423606841989164,0.8423606841989209,0.842360303616811,0.8408169323636514,0.8157978639338426,0.7852573957146798,0.7624401270583845,0.7350110423678333,0.7211918688962591,0.7358117139595444,0.7618698755680255,0.7938752375728342,0.8202427501691281,0.8623421494841752,0.8894597558787254,0.9179133551242065,0.9235731256890216,0.9174958687560562,0.8649021348788457,0.8056093192505727,0.7493490743868421,0.681692163773477,0.6139537751186399,0.5568822577814858,0.4983828331974145,0.4305953385434509,0.36274474030386017,0.29712145185153993,0.2456240024399312,0.17949762550112158,0.11164753093487922,0.04473490779411726,0.0,0.009062915550390294,0.0487962570207765,0.11307904829302817,0.17688327455370967,0.22927863284779093,0.29632668040296384,0.3641776814549327,0.43164166296199147,0.4857251114071426,0.5474344062100749,0.6132845413676411,0.6645561743777955,0.7291367618207318,0.7627805651204369,0.797732351833067,0.8483406711537196,0.8820640437034357,0.909603307532378,0.90938466311195,0.8988756922988705,0.8835390048708525,0.8748355744427792,0.8628813395070045,0.8565904549413603,0.8395385938282653,0.8184479010428323,0.789344707191586,0.76365724918303,0.7311472568490833,0.705845415349708,0.6818357137267435,0.6868411959058696,0.7008983029695726,0.7223187439303853,0.7561176537891945,0.7900338965703146,0.8236310607237973,0.84190007844097,PM
0.7071606187574799,0.7274876860983328,0.7617272487262676,0.7658316963566429,0.7589297020031847,0.7153686718492329,0.660477903672473,0.5955407946410265,0.5319393585201349,0.45647949393466725,0.3968713156730699,0.3195770743829822,0.26161350922621107,0.19276674947146422,0.12915140856499896,0.06674027883245692,0.025688394864257447,0.0016143243618369496,0.0,0.005417025147120391,0.051413794837034565,0.13102227852141723,0.19033927293706476,0.24543683288634277,0.3110728750924636,0.3657436750701395,0.3978449029069262,0.39634513171657293,0.4539418759137499,0.5091527420666866,0.5696130804225525,0.6239312103856749,0.6300377792613103,0.59466624886233,0.595236907372664,0.6359630887401186,0.701467860052408,0.7449151245965,0.7913261093089643,0.7952963276829781,0.7952977323748991,0.7975491034723685,0.8220914995897468,0.8421370860549144,0.8826172277204947,0.9044786607575288,0.8536825551543359,0.811935104510094,0.7706342989746942,0.717059575449774,0.6623356231930213,0.6187766839628264,0.5777676629130006,0.539084625764926,0.5302023316076143,0.5245694547587165,0.5035104149083534,0.5323292140437657,0.5868882939637556,0.6415720582705804,0.676772187479922,0.7096768801935216,0.7366027311215388,0.75943573262479,0.7600720795512634,0.739150920620065,0.7625764560377215,0.7894147912016889,0.7771222773465407,0.7607246786490025,0.7377090543313862,0.7258046089512886,0.6878312867716012,0.6775263048826332,0.6852611460245432,0.7030574118523418,0.6795316861803125,0.676598460581439,0.652501969721798,0.6481658135268047,0.6627223191274059,0.6894282490281647,0.7067596180119562,0.6922766323471503,0.6788802097530189,0.7058645162064847,0.7357619770855104,0.7565083664715138,0.752344982627041,0.7365602392422153,0.7399313152677145,0.7666965757202311,0.792549844137433,0.7829724571044876,0.7563486153581609,0.7295842907713466,0.7078289530075601,0.7263169608205375,0.7612440930542936,0.765840473970175,0.7658404397842382,0.7608100815551992,0.7377900316002828,0.7363850296339258,0.7351956951681933,0.710838495654273,0.7144939937356307,0.7326351276089875,0.7002618724699827,0.676985426286663,0.6527017330651832,0.6346766512443125,0.5976291651211829,0.5895400694004254,0.6101030187444394,0.6185483888415542,0.6198675853650109,0.6556101756040782,0.6879888177063025,0.7066919178261379,0.7138802791983538,0.740896559324729,0.7635687921333902,0.7391094539111664,0.7122653160153822,0.7130707767736482,0.7356830019522267,0.7388935710314799,0.7636395662922189,0.7524079110193416,0.7362293234864241,0.7166929305084926,0.7069631465719066,0.7069293656530542,0.7083525126066146,0.7447592311280973,0.7685228621172095,0.8023799318249516,0.8106456841609395,0.7954497616033986,0.7850938468847719,0.7336452177702535,0.702817728363514,0.6658935085797495,0.6273083050579435,0.610116541522328,0.5577377609964547,0.4891754461827409,0.4287214962121819,0.354556999609847,0.29056395961793857,0.2251114382969961,0.170595542128277,0.1483752175573292,0.17394884233884245,0.23512969496811476,0.29262276669009957,0.3702959751652859,0.4294680377621303,0.4952817677571266,0.5563288358425025,0.5755484962019226,0.5599172937160697,0.5720473045937382,0.6223771728524925,0.6945662028201189,0.7395243783319705,0.7941562273068339,0.846779300428782,0.8762706739756085,0.9167404512593,0.9472688652039238,0.9747199774379931,1.0,0.9966456065306888,0.979787839407507,0.9909731854701018,0.9523738077750075,0.9003228056721229,0.8560022365780631,0.8150697205606221,0.7739496048576591,0.7387449299275568,0.706917254473403,0.6789011409329184,0.6775482784993452,0.689111755803534,0.7273631337292228,0.7365294596463645,0.7517511854456629,0.7658100925336084,0.7649956898399983,0.7411677737564624,0.7426071202571585,0.7441411483694447,0.7363940070826622,0.7363850680932202,0.7358116531703329,0.7139428104462464,0.6847045849146012,0.6499369876025289,0.6178588691363931,0.57737006427719,0.5599173684978629,0.5719586224271405,0.6123688699776455,0.6531334226254604,0.6928793630581911,0.706900314661433,0.70692929129872,0.7071302312797574,0.7242926253346349,0.7256491188962881,0.7055986292154666,0.6747510939832679,0.6483972860166132,0.6255770070958429,0.623021147575626,0.6471392918698156,0.6500670793612322,0.674117489570186,0.6829291362281609,0.7061545873944848,0.7069292554035043,0.7069035805203177,0.6944641652721151,0.6678495418881383,0.6510976989317463,0.6755296024061828,0.6774791255661858,0.6831237505601528,0.7061747338129303,0.7071719768172766,0.726519067514765,0.7531401768821899,0.7632759914886886,0.7387523248216139,0.7366051785629333,0.7562741796023769,0.787659675922372,0.7679359141777269,0.7682795716600639,0.8015806601332516,0.8238234248692766,0.8035378445100498,0.7939102134703644,0.7694588821409623,0.7736969810776957,0.7947701741884279,0.7952966216823318,0.7952604033580108,0.7793769791270515,0.7659418131942397,0.755176538452556,0.7366162985496993,PM
0.8572346454685444,0.8572346454685462,0.857136814123793,0.837026415046763,0.8215483485039119,0.80284823865603,0.8079101746389368,0.7929512650237385,0.8077711750850938,0.8155988323629311,0.7821120838631916,0.7312595219931488,0.6653312903816015,0.6171217256602866,0.6250241461649413,0.5994630867318733,0.4969014583585425,0.3912883957706548,0.28567484631260154,0.18006140549499694,0.07539502851945201,0.013023069420689204,0.00040351049092635094,9.38868005562199e-09,0.0,0.0004773191999820625,0.03921600719030316,0.07282951889031519,0.03921515003381337,0.01605693163475852,0.06898804158057281,0.1703179295751216,0.23044501600007372,0.3012668238457694,0.3152468766539185,0.26333909944552136,0.3083261230062897,0.36125439440094365,0.3374770273318495,0.37799855759260037,0.4738821330819567,0.5273828963168459,0.6138930820309509,0.6459038413268452,0.6570683236546317,0.6905588955609341,0.7622951850566348,0.828349144626606,0.890447304462934,0.892950019566551,0.8854006733097108,0.8584333961242985,0.8559644115812697,0.8088930663224447,0.7324347315116491,0.6344810715376932,0.5797163078919505,0.5805637815346678,0.6368150047448502,0.7367531870779604,0.8236616403068204,0.8814152628979137,0.8470296734661575,0.8282715366172146,0.8723780098501726,0.8928620303677226,0.8929527556964212,0.8930238123530163,0.9070460776929021,0.9285617485540216,0.928670865924281,0.9286708659242819,0.9272799665181752,0.8969673887991796,0.861743327385037,0.8277123886838869,0.8148578796624104,0.7873825493411539,0.7858173018371888,0.7950873864994543,0.8295609898952208,0.8563678950342393,0.8574703418938405,0.8760498268303598,0.8928812584111876,0.8929527556964354,0.8929529394463342,0.89416393776097,0.9211246268731683,0.9153484949892148,0.8506626448653716,0.7992428845057375,0.7896252003570181,0.832888162998672,0.8732031856075118,0.9386936231344949,0.9886394632039099,0.9806086862355992,0.9645350353700337,0.9643889761521569,0.9633015316014015,0.9288640535791517,0.8444498623474361,0.7655923529643873,0.6733500683382987,0.5968404361479935,0.5242096129543574,0.5094566250608619,0.5833202137240754,0.6609575834556001,0.7475364616636151,0.7731033749991605,0.7506115675735447,0.7697299751575892,0.8384915998857139,0.8918454517157146,0.919480237610407,0.9271835171896479,0.8977170714208187,0.8929585429051281,0.8959913548534209,0.9253390702395121,0.9285910667027899,0.9107491418933211,0.8758836174211746,0.8516147771099396,0.8179336850361913,0.7878801477090978,0.7860418102847193,0.8048234667909089,0.8216497319251932,0.840921743422598,0.8860915691761013,0.8929506794567441,0.8929527556964638,0.8929527556964647,0.8929527556964656,0.8929527556964656,0.8929473025604651,0.8841240944650552,0.8350173933867593,0.7824702621038417,0.7510740328600818,0.7647654722461867,0.818200342597927,0.8558488324344422,0.9252782807361788,0.9574936035698887,0.9304542991890568,0.9309141620625949,0.9592477111158413,0.9725654352103721,0.9792854705795095,0.9004726753061592,0.8169459127637531,0.7362025783543356,0.6533628228520056,0.5829269371939674,0.5443243400673907,0.5909807762913264,0.6841040273172698,0.7598982081754571,0.8501096534952177,0.8825166008394438,0.8580624181657193,0.8697885512684413,0.9174158546356486,0.9525192356326455,0.9752086948538237,0.9995398496438712,0.9990502599449647,0.9719659464761659,0.966670399944447,0.9950059217679517,0.99509014297477,0.9619935848725829,0.9304354459366477,0.8989982030217298,0.8562116334617142,0.8245188894752724,0.8378663945490832,0.85725297474161,0.8724341418677755,0.8973470649489004,0.9271532773504481,0.9291663219529962,0.9548315727026333,0.9433291629143632,0.928788104189274,0.9404442681602987,0.9566930486276677,0.9299919080779011,0.9220295812909223,0.8871532607019272,0.8247356976433649,0.7819835329268754,0.7523778811467174,0.7804027309284383,0.8524619301420691,0.8947313417356657,0.9529054156628627,0.9950525205521581,0.9548337282439281,0.9349074014780845,0.9630729551706478,0.9640805637802439,0.9387498247866679,0.8623345446879025,0.7793031161709862,0.6956523885201245,0.6247392167206742,0.5544899183842418,0.5090276391980897,0.5601606061667486,0.6414933562544824,0.7357069664009375,0.7884182903441808,0.8424005211956125,0.8824761624563493,0.8592152926527312,0.8572349955323277,0.857234949930163,0.8590041411119262,0.8825251248360253,0.8598984299906416,0.8572351430687455,0.857242031234045,0.8627083236338979,0.8808203841144673,0.8574278966998028,0.8324561872739826,0.7877728965943227,0.7540371723738408,0.7500831181689946,0.7501068319931763,0.7624323593305231,0.809559632743996,0.8243770963033725,0.8535606643756042,0.8572341961532244,0.8597121198075897,0.8825251248360377,0.8591904512950057,0.8572501659812923,0.8653505382749938,0.8912642125815946,0.8622294681082527,0.7948407981450538,0.7528802440974252,0.7513369277028827,0.7840543028879594,0.8367481577066744,0.904528322674377,0.9771565777606339,1.0,PM
0.4877166654827607,0.47294059329428073,0.465814252843721,0.46171843613773955,0.4435572164808175,0.424600579056853,0.42114074079015573,0.3963491477088703,0.3472106775154056,0.30025734067782617,0.2510845881763677,0.185875430569721,0.14334269854041226,0.08803701811668141,0.04062552971376521,0.008682893775679101,0.00011469790777907107,0.0018212515143249952,0.0318823093738394,0.09841669791280294,0.14999390515439393,0.198524558848435,0.25096808792562264,0.29369294489503606,0.2950617807070586,0.3375267654084575,0.33849756550574694,0.3330499506150697,0.34734166970282665,0.3342043249356448,0.26742584080540777,0.19714561186021884,0.12686383185445838,0.056941737736987186,0.010004119720623539,0.0003913561447372871,0.0,5.856407212512238e-07,0.0018772122666708135,0.03610014750435164,0.0377529447199656,0.014844909100887094,0.01861421174056188,0.07825155482575497,0.1325475068510884,0.17351997674312258,0.19793609817288926,0.16712615783651108,0.18675319720541372,0.22356543936572137,0.2101103811099323,0.2427853427344573,0.30272957057733496,0.34040742544966385,0.39300403241617765,0.40530136607033995,0.43741930123219674,0.4724455681997024,0.5111343932109849,0.5515111580590046,0.5794899261372524,0.5948806049355087,0.5782183941108499,0.5766887222193233,0.5713141642059107,0.5549775011271878,0.5545128063573528,0.5545100378739511,0.5506155139464144,0.5287869280611956,0.510890514227833,0.5132299590496352,0.5313746441223426,0.5439677989784735,0.5544426379297653,0.5544003098275012,0.5417338448546887,0.5323786814227995,0.5364746548417316,0.5536327032243844,0.5545128063573799,0.5545074255614355,0.5489725355293249,0.5327620684903307,0.5219398768323553,0.4809563821691687,0.4660181056178301,0.4658248523910298,0.4744325345452265,0.505189914831107,0.5320153020459308,0.5670354254246655,0.6018664360082306,0.6206152113484049,0.6210475709839605,0.6143219507793334,0.5994164103417225,0.6164714738506896,0.6611566593597447,0.6511039711335314,0.5969052315121166,0.5814019711449534,0.6317424271973215,0.6899961539490502,0.750241420207828,0.820425892932267,0.8823441825223952,0.938968944790175,1.0,0.9731767796429134,0.9207558067500416,0.8648572452818835,0.822940593900916,0.7698448716970221,0.7101878983649326,0.6679899793256281,0.6401147894105539,0.6086866428082311,0.5782360799518966,0.5569161285508164,0.5539713205519856,0.5396811296564215,0.5515847852229041,0.5545115427932115,0.5531419270692499,0.5346768502699168,0.5233157903368157,0.49384899497310775,0.4759941450856626,0.44625081201495265,0.4227479403732337,0.3939655555957837,0.3618406990477543,0.35491181296468444,0.35694009673045635,0.383172370234655,0.41826804241996696,0.4473281274815557,0.49424467599919586,0.5243586780580349,0.5540745293335223,0.5898973679776844,0.6077322049393081,0.6209316878459301,0.6204506538768841,0.6005362925827473,0.5777523832470384,0.5639902761819608,0.5407742051565569,0.532378681422899,0.5375185655386026,0.5666030793578529,0.576645160797348,0.5766933186117735,0.5750736432258172,0.5577400704530708,0.5725325921298827,0.5766901242078548,0.5766933186117837,0.5765571183446481,0.5634037490574317,0.5718500134896765,0.5760417398456279,0.5557165846619583,0.5218609610800446,0.5088341520579829,0.4748062570582192,0.4379877518576074,0.4126478172425485,0.39977833378832495,0.4135966158527298,0.42401491328506413,0.4549994099131216,0.4984645084398003,0.5334944717835448,0.5538607178577077,0.5545128063575189,0.5532189115642692,0.53494386285539,0.547519952263281,0.594447454321962,0.6245711906450513,0.5821687696911173,0.5361369642519285,0.5460643335829665,0.6095343854160125,0.6797899416123654,0.7427962447019305,0.7781703344672422,0.8257024646869633,0.8942643835958797,0.9366331417743936,0.8908526690912768,0.8373786114552622,0.7854233254656311,0.7343392852717008,0.6815028095594475,0.6345754044037855,0.5905603924331828,0.5552657410958157,0.5281814503084754,0.5106850630467625,0.5101517818489536,0.510099109036958,0.500526635428924,0.4837085789353832,0.45449498528679344,0.4435094080529116,0.42910469715543886,0.4130301084197239,0.3987556876522791,0.3816865275202015,0.36363144123010205,0.33533691536797594,0.3181643318037466,0.3107510595984748,0.3232944792937156,0.346777404019579,0.37235197572397993,0.40950141980886867,0.4532543538272682,0.4835465968995032,0.49404901381374167,0.5234875679423836,0.5327260153226985,0.5486859217687088,0.5522427343390208,0.5342558740711181,0.5322494289746733,0.5210724214047873,0.5106808950598731,0.5265592995540969,0.532326544176231,0.5323322941033006,0.5323573326139392,0.539273920234836,0.554214898467531,0.5545128063576024,0.5545132003340889,0.5558696244145129,0.5732833649235132,0.576579949004969,0.5640138942497446,0.5634327392283507,0.5616430520146598,0.5449316054605737,0.5117170765482255,0.4842189435675026,0.45242346922101095,0.42405023703860634,0.42246070182124296,0.4409478758698113,0.4627852724099921,0.48231047363341206,0.5152327587138537,PM
0.5058244451778218,0.5123796835441969,0.5275060676059429,0.5444618046502332,0.5632238775320033,0.5821955949445723,0.5702888892413229,0.5790186962380592,0.5900490282414377,0.6003144072728079,0.6426763890378568,0.6992141490939154,0.770833989968879,0.8296601489268407,0.8947519606853511,0.9664295011857145,1.0,0.9409616546442696,0.8686985816963526,0.7963832760541294,0.7256235657487253,0.670354533027131,0.600526651168181,0.5351871489081441,0.4808411739181069,0.432886134104554,0.4006129324609171,0.3873995358047888,0.376892135060523,0.3258221945272046,0.25380775800489763,0.181491968928281,0.10917662304249065,0.03905985618262964,0.005027427736507217,5.617123982304406e-05,0.0,0.0002327294489510301,0.02005448074293925,0.040943285776296356,0.018156588806889307,0.01609252008562656,0.07422339404677603,0.12824551296305398,0.17193948174769558,0.18381719595534607,0.15565403777572673,0.19889855026325298,0.20457129713406452,0.2107771453313898,0.27082083032233006,0.31256194409882454,0.36672938169307434,0.38024584200732336,0.4024275232855681,0.4292606950526916,0.44270634980625356,0.454778104732084,0.44512069677895694,0.4449048314614168,0.46156072714348584,0.4486408504604813,0.4573097889797464,0.4634993386883046,0.45218567968854906,0.4429062434069211,0.4578912435947604,0.48701787566585786,0.5189709233816577,0.5544949505621815,0.5817421950864654,0.6168924915894376,0.6541657371476819,0.6903006758657089,0.6701472103869488,0.6425646472283768,0.5999750756618205,0.5621303587267938,0.5361328474135982,0.5047538099670104,0.4850290522430112,0.48869288579895764,0.504890446381812,0.5090458992842013,0.5312965796039641,0.5503258359289087,0.5669351338793533,0.5522126269039838,0.5343270339479762,0.5156548366932734,0.48750262566185354,0.4686076614748367,0.4463354795084009,0.4530974737817943,0.45255666607436895,0.453586565536082,0.4816896100618844,0.5000905757833931,0.516412866739111,0.5093015438086255,0.502495676628977,0.4885760579180878,0.5043561456171033,0.5129452895378841,0.5519614776051105,0.6060811638307544,0.6743791091172562,0.7298465761536206,0.8008205242858542,0.8489321747766958,0.815170156751869,0.760186421182885,0.6885288205015421,0.6162131695490376,0.5438973804724205,0.47158255826458895,0.40216110272838623,0.35152187383296063,0.31906808846536405,0.3161843952323098,0.3251885181091021,0.35583733315239074,0.39367565346936173,0.43034915230527515,0.44246687597509515,0.4425726291490988,0.4425726291491028,0.44257262914910767,0.4425721226940347,0.44098674389986536,0.423956195120037,0.42850574757532556,0.44629121196607,0.46534396576436565,0.5013854860434974,0.5430617350105504,0.5856518283278236,0.6254409844317963,0.6684634222718979,0.7034614541033326,0.7049627172055208,0.6627132317212494,0.6249896762608391,0.597690395765158,0.5631527367643208,0.5467542468523869,0.5307256019160009,0.5433221878533065,0.529998355414699,0.538534434162615,0.5478997928558909,0.547947064660824,0.5479470646608293,0.5478627971821304,0.5376356365499011,0.5265028924219393,0.5010551091298439,0.4614030714272359,0.44306517923336575,0.44257292266295245,0.4438619981382854,0.4627519884211222,0.4840490866418188,0.5079920050235307,0.5347694117973023,0.5478002218622269,0.5554694872886539,0.5687950615028892,0.5695514501943579,0.5884618983660701,0.6307794409871397,0.6909165088733302,0.7506952891250407,0.8200739283953751,0.8751397913321486,0.9183251682084546,0.8835708434683727,0.8141483552830282,0.7418360260023209,0.6695202369257034,0.5974631235041601,0.5390764506768124,0.47875010029147935,0.4377678900983817,0.4016020169192891,0.36735490235013435,0.3639165311642585,0.38679968031319323,0.4107555858150067,0.428507451687933,0.442318945390892,0.4381666485690978,0.4230038279951329,0.43468837419640227,0.4224498879676353,0.42149793772280253,0.4214979664986642,0.4226903528489627,0.4392431554864662,0.45155301845816087,0.4771012277644915,0.5146188028397494,0.5531116269965763,0.5967653164487023,0.6418802753679707,0.6834446760099606,0.6798712355824734,0.635800281646274,0.5995367413421997,0.5720438483560284,0.537588221763559,0.5129938234992206,0.49539584182817453,0.484370397531106,0.47127299367171194,0.4768491758503606,0.46446386622992986,0.4775609518971611,0.49482667753132237,0.5043646196399507,0.4877440963688602,0.49659293898214285,0.49122809130903633,0.44734256084471324,0.41077584060587213,0.38645411424019294,0.38681417067759094,0.41575634539055617,0.42770922841037473,0.4507472334398961,0.4689512987987299,0.49475598118319963,0.5253044817736021,0.5268774738938036,0.5310381784232683,0.5593331189979054,0.5697724526349952,0.5936715031549702,0.6472792301176491,0.7065064946092328,0.7760948328145925,0.8313818595011755,0.9016905092472749,0.9546511078535751,0.9400132979516904,0.8703515310710106,0.8012609105744795,0.7455074745554335,0.6745577803115701,0.6123468497641564,0.5508715817027641,0.4889241440040779,0.44501671503374673,0.39405359174648646,0.36286979451990575,PM
0.9300446740932982,0.9586373152695931,0.9650863348276695,0.9631847310907475,0.9466447112399088,0.9192176811527837,0.8876511044035023,0.8493501744374465,0.8021469849557352,0.7515893558196072,0.7005001168397107,0.644096481133499,0.5834288384337762,0.5318578921877823,0.4849624969052133,0.4215346878964379,0.3868773973695099,0.378481180240851,0.3780858770536146,0.38674574112030236,0.41481526056864704,0.4015138285029827,0.40267938368198797,0.44537376490285174,0.48373949514655257,0.5339822941764742,0.6013244916349212,0.654647055577485,0.7099946849049035,0.7636090482501188,0.8090600914555885,0.8395374351480149,0.8674345519536906,0.876871162938325,0.8797579428611604,0.8795366039386026,0.8797659383915479,0.9002425202784479,0.9120259958661441,0.9122333531073812,0.912050028341993,0.8989348744609904,0.8630416244815433,0.8377985453472307,0.825027771648938,0.8419436555292275,0.8732577029307178,0.8997324232837931,0.9373076057284204,0.9723989450095192,0.9742458834334462,0.9150198962100582,0.8504160982463711,0.7807981664277626,0.7108088480246004,0.6464151119572898,0.5728643444224275,0.5108911865509551,0.43694784680678467,0.3689350194570289,0.30265397305944486,0.22699088434783343,0.15275194425069616,0.09087838614139887,0.03731625564212493,0.05136131365460228,0.11518755348656429,0.19090276706614784,0.26610598193167245,0.3293481288656297,0.40080246121188345,0.47662827056289636,0.5524204659103606,0.6218972358724622,0.6867486574892525,0.7623480285472164,0.8352825413027363,0.8970873645300252,0.9531746824763196,0.9839913969593401,1.0,0.9992499455589399,0.9851096926447167,0.9676379581772636,0.937833433039494,0.9038919050811782,0.8587025072003298,0.8097335645000303,0.7591663206690842,0.7086203424502355,0.6578520748177685,0.598977511693997,0.5452119439890231,0.5006693235820294,0.49092988869994336,0.516712704415891,0.5647739749188267,0.6290015861249043,0.6895232817739352,0.7446787704994682,0.7930316706022604,0.8385799875742874,0.877583300678833,0.9048232339285098,0.9121942773636014,0.9122333531074802,0.9120672945223354,0.9023938872928139,0.9018991014510935,0.8998310811013632,0.9110669285447566,0.9121586617361532,0.90198133460652,0.8639185591627161,0.8401854308076735,0.8252384036364568,0.8319295381750003,0.8683295535267828,0.8951779890231997,0.9323066863515219,0.963045817967811,0.9718821948380918,0.9236996565733309,0.8512628854322912,0.7892957209114391,0.7153661723596101,0.6516881873546794,0.5808013950828799,0.5086823161692418,0.4459024211951008,0.37096179983217725,0.301916841683588,0.23661221298028456,0.16104177977809364,0.08830789615735934,0.03239846472271113,0.021522455527418494,0.07042232545604632,0.13306224451740034,0.20398760375989555,0.2798075008432468,0.35564606227021844,0.43148462369718743,0.507323185124156,0.5831360883001029,0.6535468723753222,0.7176245258645895,0.793030466634939,0.8637379594592853,0.9201663035638479,0.9616401125827347,0.9904246852179179,0.9920148286739403,0.9820648400762755,0.965381758292235,0.9461997912525817,0.9130724091803208,0.8735873752999801,0.8280303440683858,0.7804176782655516,0.7321408268595011,0.676681231407116,0.6258339732508365,0.5744796317448047,0.5151115230705563,0.4698727898674546,0.44247572132268465,0.4609984444431423,0.502403889426497,0.5559980635985293,0.6163168100713352,0.6782991987180744,0.733117053555175,0.778871166255021,0.8197268606470467,0.8455790968976062,0.8657563493540037,0.8767634869789362,0.8769756809765537,0.8769756809765572,0.8769756809765612,0.8769756809765652,0.8769484526835876,0.8703880490135445,0.8371948424681945,0.7994263463001041,0.7709022712880729,0.7555205659592032,0.7693237613500501,0.8014434446041734,0.840462253469227,0.8854554053595338,0.9239238010030126,0.957519148100141,0.9488215302604388,0.8884638963510461,0.813704443702735,0.75115415056205,0.6793701130309193,0.6158292547900523,0.5453133011148084,0.4892308025246459,0.436778526743387,0.3700513592867978,0.2947316331901697,0.23061880842237992,0.1602504795341213,0.08451056231385845,0.018931849799987077,0.0,0.037796885683946346,0.09842815721264309,0.16948884277289844,0.2452957151075661,0.31630296445797157,0.379888220047905,0.4551971899154137,0.5310356979496635,0.6068742593766348,0.6827128208036042,0.7584280107792014,0.8252247848463012,0.8851411495435206,0.931835831483494,0.967624101963783,0.9822271849776492,0.9799985647322744,0.9543032529042463,0.9282260684219779,0.905000839341175,0.8668805021841832,0.8268694871063453,0.7731998252546228,0.7263595311531401,0.6758988208780443,0.625326553618013,0.5747760427795727,0.5210986209234987,0.46671580676817026,0.4423222721101947,0.4613759475338428,0.5051529784071533,0.5651186875475647,0.6220103995659629,0.6794887858588545,0.7393074482258704,0.786460323854012,0.831725051807437,0.8700213130212893,0.9000556720015584,0.902005380183506,0.9072152904636797,0.8993782398556283,0.8946188815508993,0.8946045170421981,PM
0.796942391260588,0.7986481021741412,0.8035605052372081,0.796998150917112,0.796941275831788,0.7969412758317924,0.7969413415630617,0.7974164407714195,0.8117352876840567,0.8170209194291629,0.8170356633815836,0.8208939093225607,0.8362851258162904,0.837121108628319,0.8370385379779464,0.826118677158183,0.7923562739010053,0.7552518232475296,0.7160050229410198,0.6727663101026371,0.6421437712803955,0.636304510440616,0.6466467924292756,0.68106484958281,0.7388341120162143,0.7867197677296094,0.8203052680543648,0.845178970241875,0.8668004525768449,0.8563421596044534,0.8224074944166051,0.7707036824418587,0.7036713302396631,0.649066211474016,0.5883250151698078,0.5207636404263556,0.453254517408785,0.39558750148961774,0.33798900975847435,0.2704665793271279,0.20286982817096177,0.13527317300330965,0.06860150822161781,0.02199174621695832,0.0,0.02684624953117698,0.07719110052723899,0.14449081580882472,0.21203271839622495,0.2713356503677291,0.3273386427982281,0.3947878769080564,0.46238460198038656,0.5296271701231978,0.5839827727210052,0.6450991999602409,0.712276551290504,0.7660834609609704,0.8277684163438739,0.8889150216237582,0.943102071330181,1.0,0.9832250548845325,0.9560144141578646,0.9393020244210524,0.945007647517806,0.957476852871288,0.9576490486538036,0.9520258858940118,0.9379060430355328,0.9273152485058698,0.9113558633002934,0.8943631725877843,0.8770259038338786,0.8569277950875431,0.8229879188883831,0.800114835357185,0.7835039641322257,0.7768833222573126,0.7769281928777874,0.7871507938226281,0.7991041619435619,0.8155592980440449,0.8161788986223972,0.8007477844757176,0.800747784475722,0.8161687760427245,0.8116867955875842,0.7974116742628099,0.7989991623947268,0.8154480918572755,0.8170307728021853,0.8170351792224362,0.8204093907148642,0.83615796148734,0.8371210418539015,0.836618794457872,0.8211600567044468,0.7945926670638093,0.7608891062789902,0.7228303514081356,0.6779828920024542,0.6441699643520526,0.6257797828258593,0.6170844521883243,0.6395221714749959,0.684002033025723,0.7435700073675133,0.7820957215958262,0.8111675258760065,0.8339208771926576,0.8487676797210759,0.8201242736961469,0.7906088143861565,0.7254432513033113,0.6582548184085613,0.6048432130553496,0.5427284979094873,0.4751476510099826,0.407550899853816,0.33995482061724713,0.27523185444182685,0.22350587454325987,0.1572536979018775,0.09056216642825277,0.055036494147779,0.06713443009070508,0.12621529253718844,0.1776009785343633,0.24305026193922785,0.3106432327522417,0.3754722870655347,0.42690397305438443,0.4933469975121949,0.5609430777677242,0.6269842721399841,0.6785341072010231,0.7434875824743563,0.7999687650206293,0.8587886763931238,0.9222100296566182,0.9619669814665524,0.9461942570332251,0.9238194932262438,0.9175078472426175,0.917447990022755,0.9090375805797613,0.8975796840352626,0.8973909934592936,0.8973809043102894,0.8921268679813452,0.8703889064479893,0.8476969895943469,0.8236563236350336,0.7910636917133993,0.7666678645878728,0.7443615060602955,0.7383258885809911,0.7548845883569562,0.7718629866425868,0.7825052095395404,0.8040621504512004,0.8141934835520188,0.8043372927810184,0.804742438320023,0.7962679696606352,0.7811418753990411,0.780173806501947,0.7959621788955014,0.7969411464563798,0.7969597199353089,0.8026209105771382,0.8166720485255645,0.8170312193576543,0.8170826814645027,0.8250800762595434,0.8369632303745487,0.8371206412064014,0.8350776073943376,0.8093062618129951,0.7757420272574711,0.7478828819886303,0.7082328715617598,0.6743851135434404,0.6567796028331334,0.6584519277811198,0.6865772918848911,0.7379024102391374,0.7887023174222842,0.8191503962257576,0.84725972245591,0.8627690868826572,0.8438407058349071,0.8174851083312134,0.7812839704987713,0.7173984106238338,0.6656945729890138,0.5994687764377944,0.5318721974349407,0.46427544627877504,0.39672466141233853,0.3379000639358396,0.28141827624458804,0.21397838517954648,0.14638163402338034,0.07901379166532418,0.028503286494762303,0.016325899687873235,0.0586084308317818,0.1154580890811383,0.17363154693164118,0.2411588970080909,0.3087556481642566,0.3763523993204223,0.443949150476588,0.5115459016327546,0.579137543045483,0.6422105008939187,0.6949073976896392,0.7618425130222732,0.8278837073945327,0.8794293405109102,0.9409064786137717,0.9843439137748189,0.9757730807316713,0.9375885899401513,0.9182103760717846,0.9316578228066024,0.929714527310626,0.9177205563366586,0.917591365632052,0.924869339695852,0.9185598132042565,0.926450550467504,0.9282689509935871,0.9048121189477238,0.8790687073768484,0.8577560254319669,0.8258189427064351,0.8140638985056312,0.798206757027558,0.7969420103884026,0.7985871747511952,0.8216531183286819,0.8369194311178481,0.8389309833564447,0.8499124487533858,0.8375958061461688,0.837109242453872,0.8314377952464289,0.8174554555216949,0.8170313967279204,0.8178477069100274,0.8332781160738065,0.8371171863273577,PM
0.17054818483692014,0.1721017209201845,0.21117565199666188,0.2791545278048364,0.3684093481888713,0.45520009435442255,0.5207721621813457,0.5726315129082025,0.595964182410671,0.5969288839304889,0.5803634159745039,0.5183632578765343,0.4334087711865111,0.37168251675172215,0.3047062805783618,0.2242116008943844,0.1721512196335766,0.09573838019160963,0.04233094806485749,0.00595680045106306,0.0,0.005646488474017275,0.05791152444315806,0.14333174079000166,0.20545370814515973,0.26955968765749905,0.29938760368575146,0.2778530661256662,0.23709394853929755,0.2860532778725764,0.35243634305318317,0.43487395671312257,0.48076793868461376,0.5366714317975161,0.6162851441142099,0.6878612425859822,0.7775836699690295,0.8420978241484454,0.8132247775942956,0.7738489634715151,0.7519672034559468,0.7375110346214937,0.7139678730622103,0.7267190856588801,0.7628793262159865,0.7676466723764346,0.7676419040490963,0.7599357850511357,0.7392623845264676,0.7184937222930063,0.6846680684771398,0.6399128213734713,0.5950518668106932,0.5613985659105794,0.5406962521272307,0.5402043812586461,0.5477195447626579,0.5793600711893001,0.6230625798479901,0.6465685871366347,0.6669667343215187,0.6885651480822057,0.7174592932605259,0.74123321026432,0.7651602377490567,0.7673850117170833,0.7486295920054973,0.7271160197869593,0.6885059414835286,0.653450404619953,0.6085697706018047,0.5635455273615451,0.5087176376213147,0.4579719084738363,0.47372533829766184,0.5201791080302565,0.5768009011804844,0.6230353737324226,0.6894157011073148,0.7356692477079427,0.7712498218410175,0.7954829736928861,0.7958971738553542,0.7671608118138913,0.6909970199662681,0.6197592570959545,0.552226797267128,0.5137602102634453,0.5357471885396947,0.6046448830059896,0.6715132242464668,0.7117665091484318,0.7604680949812259,0.8267007945890334,0.913662092642098,0.9980525817991674,1.0,0.9473721609634733,0.9109730416176225,0.8825074766558911,0.8628604958263972,0.8287044053977866,0.8469969174292302,0.8529448800847632,0.8529441884953046,0.8465592347488284,0.823555039512855,0.7967176895669112,0.7696479907914444,0.7422005363272399,0.6985767082802745,0.6656293032641836,0.6216600207246623,0.5791858928852927,0.5686752685751966,0.5757349678682839,0.596298748557631,0.6000259223014117,0.623612771101465,0.6254829852796373,0.6270289666998581,0.6491546724384101,0.653782401013177,0.6382600523581106,0.6237765255906487,0.5904397211192505,0.5454143400802414,0.5003756073551475,0.4553368746300537,0.41026327194167767,0.3636504907736935,0.3069332416165933,0.28657669115310735,0.326286689528307,0.37716700342542797,0.4364321935364748,0.4963528220450737,0.5526142253579698,0.597579118061482,0.6245660601952903,0.6342328920662323,0.6517796113788821,0.6014773266590172,0.5306575086590124,0.4508800733902705,0.3864636342845449,0.3471708185050373,0.35447139980989206,0.41225919207995165,0.49478523756271553,0.5621822095354512,0.5876204221377082,0.6521623069488056,0.7416115715298508,0.8266484655653894,0.8332148052869384,0.8001963814683464,0.7694620900382372,0.7529489221069738,0.7398945717656344,0.7604100434320165,0.7689391800930503,0.7908168817060819,0.7949879362365264,0.7731377819019691,0.7676486580786026,0.7589726298570589,0.7199089969564074,0.6852974741400555,0.6288324511406422,0.5920986974402478,0.5528889149064335,0.5317571080134398,0.512427844934134,0.5288239323176951,0.5667308570341092,0.5943793589091735,0.6172487072439665,0.6375340238301455,0.6593362700978815,0.6880931976371842,0.71036808761371,0.7292501341208872,0.7223950351072927,0.7084122317881958,0.6815852913312828,0.6432388444351229,0.5971783653842806,0.5387629305142196,0.4803891039244661,0.4371466109799984,0.427975736431236,0.4589443245850111,0.5177893988582003,0.5752583428119857,0.6287791902469237,0.692413991430076,0.7518399969617215,0.7746326295627872,0.795743750672461,0.8135712297063717,0.7920577819755508,0.7375822889764949,0.6506280366292438,0.5652356588092262,0.5181660297155899,0.5152828880485023,0.5632399665841277,0.6346110414501815,0.6825483614888288,0.7157596179169055,0.7918753626526343,0.8631389863941026,0.9431175599916042,0.9743399016770722,0.9430469666295549,0.907153487771593,0.8828077261039757,0.866070588215277,0.8739016153240904,0.8813757838822918,0.8813833731666492,0.8803723513837074,0.8586873070164751,0.8354571979774219,0.7976650169405879,0.7676579387719062,0.7297655604424937,0.6838262021122681,0.6314743613480465,0.5945492356141875,0.5515651262196242,0.5306187747928943,0.5185298397669893,0.546925471180554,0.5773258001198318,0.6163682788260916,0.6377924017580296,0.6758652766580209,0.6887808391545214,0.7098890502511193,0.7112480865275659,0.7303739208445288,0.7192704663195597,0.6852458614776031,0.6815273525592236,0.655512513709982,0.6119641471305126,0.5791172440181231,0.5349080661755394,0.4892520403606673,0.4243453139040092,0.37664121889242175,0.379285281436335,0.426311408260049,PM
0.3301349591560361,0.32802110244398053,0.3643453983624565,0.43130355264442466,0.4755722063006078,0.49234167490106495,0.5312467194976676,0.5609314327864019,0.5627430340946868,0.582569871273829,0.5924126831272942,0.6145107669202559,0.6156863639092598,0.6076622686066107,0.5718964316003423,0.5619230177882879,0.5365986315865094,0.5087449085866047,0.4906914773198632,0.45347515891118784,0.37582249879102525,0.29530460403050407,0.2147860717548573,0.1342676794942137,0.05474526192416285,0.009233912684061263,0.0002770636500653012,0.0,1.6980543149358596e-07,0.0011142577872895743,0.03647584577860741,0.051161869429420914,0.024861754981326367,0.01396326889016164,0.06646267589576338,0.14130160961440064,0.18254063929120568,0.23473307507569308,0.22825250412690679,0.1962932658154002,0.25115219654232046,0.2647075415099631,0.255359938563823,0.3090941674662768,0.3726478486875924,0.4183420764269772,0.47629155135734136,0.4884786982108431,0.4931293902824616,0.5206778714272873,0.5632846487215422,0.5939627109166916,0.6224116770005392,0.6797297561986482,0.7146042682432223,0.6867780084605726,0.6694828665904295,0.6654718991519215,0.6404122361932125,0.6135825931100221,0.5922325691869728,0.6108918584817089,0.5955383555089173,0.5891668240540047,0.6040819753673516,0.6115397084192771,0.5907599689307541,0.6060384113082935,0.6385906398205283,0.6424676335412234,0.6442504274227363,0.6655376736359604,0.669236816023409,0.6692381268021728,0.6692381268021745,0.6692381268021763,0.6692381268021772,0.6695036916203487,0.6854050025304805,0.6830829245269654,0.6694083890301701,0.6635757197990002,0.6176133527697449,0.5901418355606229,0.5747654727105656,0.5358726000378744,0.5119337186475694,0.5347845016945727,0.5783186984561124,0.6148878580768229,0.6417515935557101,0.6667039669753634,0.6868561588373185,0.7136771352056441,0.7392228736833419,0.7274684360104167,0.7250913448107288,0.7577624092670976,0.8113765026902713,0.8805515801978507,0.938737164302466,0.9952580007265053,0.9729560697761541,0.8937870588245898,0.8132686695429885,0.7327501372673422,0.652231604991695,0.5717156346927204,0.49715172376998806,0.4427667629892533,0.40587740272694495,0.42998701611824197,0.4859964316719547,0.5641990776913679,0.6260937222524849,0.6984433574797673,0.7411705170352492,0.7075791193528622,0.6896795804917981,0.6685903715622961,0.646151132766652,0.6620083525032796,0.6679820220000399,0.6455818828453697,0.6424700088619653,0.6424964474641786,0.6526046911891004,0.6691364121015,0.6691270449029063,0.6525473621413993,0.6423663438453411,0.6241892677770235,0.5845889954550949,0.5610072412529017,0.5365425308321101,0.5113509670773575,0.5086217360255749,0.509235905523703,0.5326690221372004,0.5728057308259715,0.6212620882047601,0.6673511901569182,0.7154922719279306,0.7207760882879835,0.6904850957145094,0.6695853514136476,0.6610064986398236,0.6428260197483628,0.6424493105762807,0.6340062506625892,0.6160473093562753,0.6153726921851193,0.5985917917848842,0.6100676976443462,0.6156966815077776,0.6157058794230141,0.6202448928280195,0.6388694701566782,0.6181068248847112,0.6283541084835158,0.6423924267200163,0.6424766994470512,0.6473590833242286,0.6682793134301037,0.6692381268022456,0.6692381268022465,0.6692381268022474,0.6693888751203558,0.6825847583460098,0.6954433051926601,0.6769300786434225,0.6585876687721295,0.6203654054490655,0.5904098143983254,0.5696583392843393,0.5588209797803692,0.5375056095667499,0.5508267566594669,0.590279142494166,0.6305050684877513,0.6646829754703858,0.6706994822505092,0.6930812021990271,0.7199109674229667,0.7451748428351412,0.7385198799795698,0.7379685701407399,0.7708490579604974,0.825399904687607,0.9017667616925409,0.980358096210884,0.9999999999999996,0.9286270016604736,0.8522513553972293,0.7927840662653645,0.7138536474163328,0.6333919094414564,0.5657871555120475,0.5371766632344346,0.5583987098312027,0.6132472348999856,0.6882634567049055,0.7372942122867561,0.7240115169832229,0.6973517896469974,0.6832387681691858,0.6694149001937286,0.6691731737773892,0.6562382252667276,0.6426361898016402,0.6424686017301924,0.6424686017301933,0.6424877065386227,0.6502828647571657,0.6678403795800167,0.6479147774771232,0.6585804733115954,0.6474703449443822,0.641523109237562,0.6196547258045997,0.5937245601706951,0.5749378405990568,0.5623090745937094,0.5705481519941435,0.591162208417209,0.6335092710279251,0.6868549371144392,0.7292267494687326,0.7671548075783865,0.7705359607849718,0.7356644590934356,0.7080252415325359,0.6811748331070437,0.6544332770421284,0.6514919693616839,0.6538773440470709,0.6425535219216179,0.6424659801726897,0.6364066640022918,0.6164181019765471,0.6183027592228609,0.640501665443495,0.6268542278784923,0.618424167936674,0.6407217403377952,0.6424683753229838,0.6424686017302261,0.642468601730227,0.6424954762503261,0.6523467104745397,0.6690942597079306,0.6679748794758438,0.6459068883255106,0.6610714839235032,0.6454059750620584,PM
0.7743449917462222,0.7743449917462222,0.7743449917462222,0.774344991746224,0.7745544849527075,0.8066748420713026,0.8307468914549272,0.8307587438096604,0.8307587438096622,0.8307608446881147,0.8378725170036034,0.8839598652712848,0.8871724958730987,0.8871724958730987,0.8871724958731004,0.8871724958731004,0.8872826129696918,0.9076527076593699,0.943233037678695,0.9414225799084281,0.8953430442334813,0.8436403045975087,0.7723611150126626,0.6745580802050473,0.6013666084575355,0.5245160655173322,0.44069649318512205,0.4358640580604014,0.4358732203523079,0.44878274291682274,0.5148941051918676,0.5876536422716292,0.659645338042802,0.7304643307244909,0.8011306751924856,0.8306241750909162,0.8323004339138578,0.8737373960697159,0.8183933021224519,0.7371150261167276,0.7112559621224559,0.6482127552010084,0.5228472634031025,0.4223000868689404,0.38064771812984866,0.40801161307551936,0.4973386269801363,0.6385083116128847,0.778737160135428,0.8622402578642774,0.887169491467251,0.8999662763543288,0.9653547487522367,0.9920625991975118,0.9533141470447184,0.9966267556004542,0.9999999999999805,0.9999999999999805,0.9999999999999805,0.9999884390965939,0.9765237720328361,0.942726476613764,0.8971144462821794,0.8483139067799517,0.8026925146854449,0.7579542264247952,0.687897642599614,0.616185939053338,0.5453669463716473,0.47350252743741095,0.42592399858000896,0.3814223594629489,0.37973385869634413,0.41350206868713,0.44118273214161796,0.5020154568265163,0.5735421731927932,0.6463017102725583,0.7179622018368512,0.7720027799127109,0.8132459330704922,0.8855030420839896,0.8982169755586629,0.9427668167497654,0.9435862479365493,0.9435862479365493,0.9435781844493132,0.9274021052240595,0.8882560656142715,0.8869253910680666,0.854581161337661,0.8308968900654694,0.8307473286319649,0.8075863527281495,0.7748210823565742,0.8081940264993719,0.8307728003338379,0.8446108709892339,0.8864977539401444,0.8871724958731182,0.8871724958731182,0.8871724958731182,0.8872562825474279,0.9053183159409901,0.9144692819899234,0.8345127675033162,0.8431165556629843,0.8915365958223749,0.9316337608637859,0.8909496012026636,0.9249662587745195,0.9022011363755329,0.8873952781716845,0.9115354448516015,0.8920222490944756,0.8980314749043092,0.9427415688005656,0.9182801981243482,0.8737313526699761,0.8040174828183257,0.731915218268794,0.661105260578827,0.6040907386756125,0.5551180014696548,0.5483805396490151,0.5140758870826598,0.5031937100165678,0.551634796368262,0.6332578129889477,0.6833256886030625,0.731427440880454,0.8042564852584277,0.8983785850686328,0.9429758123386129,0.9428949717234243,0.8801493148646138,0.7866484943438046,0.7197176807585954,0.6691649357439982,0.5298976182394384,0.424183366469018,0.298616693905549,0.15777109193562922,0.06823371796627775,0.0,0.0012503570985291645,0.07983772370470987,0.2157622244824715,0.32852476745904724,0.4467215862935294,0.5902796350378452,0.72847642702801,0.7741634739595913,0.8045718975925809,0.8858064951651716,0.9352291535380051,0.9599940737579988,0.9994570860538285,1.0,0.9946087548220266,0.9473308441376975,0.9431380232891069,0.9053920747100257,0.886733509870238,0.8449761876444803,0.7825221401729081,0.7743440809608018,0.7652320749249544,0.6957667304884918,0.6101736855003566,0.560798717414249,0.5113358324017341,0.44072659338754683,0.36964234643561866,0.2974032160847635,0.2668052353279968,0.2666234212042351,0.2742932286694284,0.3393228742495715,0.43686904648339997,0.5080361250151668,0.5587949179545504,0.6232282168167167,0.6730340176272929,0.7171752082334013,0.7312861361076664,0.7797580342244839,0.8188062567369272,0.7770647056411057,0.7743456232241765,0.7743449917462613,0.774344991746263,0.774344991746263,0.7735319911929821,0.7291005037014404,0.7178670828416998,0.6910115270121047,0.661703684261223,0.6640801316754814,0.7093527620693649,0.717928665195938,0.7179312396828283,0.7179312396828301,0.7179325633576923,0.7213970353117549,0.7685502994245592,0.7728671838625054,0.7277278760377097,0.7179343363533803,0.7204807945856917,0.7657261694184303,0.7743423686841542,0.7743449917462684,0.7743449917462684,0.7691554701401646,0.7211812267968547,0.6666892284119541,0.595767736992002,0.5230081999122405,0.45078101723148123,0.3879420834038374,0.38046920717560795,0.41917194184381223,0.43717436758129224,0.48105638489720626,0.5522068447947373,0.6230258374764244,0.6956581491018117,0.7637929043284526,0.7875765082995692,0.8532601618324787,0.8868975499281078,0.8667196737123106,0.7734881603684673,0.7201210586847857,0.6738125102286237,0.5583814156027369,0.4605357443120113,0.4360883583347679,0.46141918685401073,0.5936047579911303,0.7364873893602031,0.8434117124538627,0.9309911720983504,0.8944547719050568,0.914946893792516,0.9434645404848379,0.9435862479365831,0.9437965905115284,0.9760173772235294,0.9999372257372912,0.9737180334467528,0.9667866913686449,0.9918748999062164,0.946436856792074,PM
0.5808358111113137,0.590754233176598,0.5793422066800087,0.5673537640802317,0.5541230224224889,0.5399473395875249,0.5359107465801936,0.5270099943433659,0.5376371206057629,0.5244461830559115,0.5273786232110633,0.5508102297558115,0.5561178361443746,0.5584015233127033,0.5728054453771385,0.5816022933925571,0.5846013888697059,0.5737798553092035,0.5735709779226723,0.573749377169241,0.580944333080764,0.5796244540834103,0.5907303067074019,0.5910200209086045,0.5910429686168572,0.5977349851018827,0.6082335265066394,0.5954842795491442,0.5733812628876205,0.5510891419134687,0.5314872154227586,0.5084643181614186,0.5083765768223505,0.5222064665104873,0.542231489144652,0.5690862997422399,0.5959112819635868,0.6228099467766657,0.6492685268230294,0.66074044845189,0.663731848945031,0.6891422402777492,0.7258090356679641,0.7751630375364749,0.8063286931430476,0.7763249736321209,0.7228116161670322,0.6690959348182002,0.6153802534693678,0.5616645721205362,0.5079488907717038,0.45423320942287226,0.40053064765176094,0.35256967063932265,0.31689041025426956,0.29948633619169884,0.3164902867014714,0.3547468524472137,0.3910529518878252,0.43180610743528014,0.47401297523319874,0.5157691374546247,0.5577832788073698,0.5985081389530089,0.6324347558543821,0.6572496566936255,0.6745034799043625,0.6782629412029708,0.6782652358382646,0.6782652358382668,0.6782787643869796,0.6831321267743307,0.6946782365847066,0.6816255945954066,0.6902139513175154,0.6957044488612749,0.696032433432018,0.7093626272211644,0.7272221190378905,0.7450908795879214,0.7655813919872707,0.7833255135012132,0.7986734079374709,0.815241979533456,0.8094328537787256,0.799824195329276,0.7859783114326917,0.782963603143016,0.7832603940635647,0.795946771333039,0.8008889588687911,0.8145782800836279,0.8348891342625508,0.8521006679881644,0.8567092228058617,0.8741593251506852,0.8974509564827806,0.9101379899471946,0.9276494502153221,0.9400054104055702,0.9521889500857879,0.9593797127002359,0.9743680577485216,0.988296855880916,1.0,0.9891872722117077,0.937364534877227,0.8908239507404248,0.8471812663952711,0.7936342024040774,0.7399185210552468,0.6869320790659135,0.647102190990382,0.5962962643951117,0.5532027999152587,0.5173640909057382,0.482977058473943,0.4615187289357787,0.4269891210863843,0.379012994113721,0.3378054528103531,0.2969850934962741,0.26644142103503077,0.23074573023889045,0.19792615954269177,0.17108558757830572,0.15436557679573681,0.13934809334531284,0.13971770799675642,0.15463353650299183,0.17753679039147974,0.21318569494568917,0.2428565993363292,0.2729717340157545,0.3085795632340509,0.3302171181718294,0.3462382416781753,0.36409977317071807,0.3822609890359807,0.41723569333786514,0.4561547907561603,0.492024099217081,0.45181430347709695,0.398122561389767,0.344406880040935,0.29069253722935784,0.23968086117854437,0.19966419689901205,0.14699291080212262,0.09329575441118365,0.04613530757021822,0.022189548727404862,0.0,0.005132090482290685,0.036486873046152724,0.07515750677561517,0.11975071119549208,0.16083412667606511,0.2011346781477048,0.24454735753818735,0.28941963844187013,0.3276601510940367,0.3648435663569223,0.4031260576853217,0.4181949066505761,0.4329838307884444,0.44105842410809304,0.4513520547624368,0.4514276770212944,0.4514355540742838,0.4551857240030315,0.4683164552395289,0.4688767200072257,0.46889213238784677,0.47411378331858955,0.48764256871061384,0.5040230891033466,0.526339007217492,0.5389039106481097,0.5523211766080318,0.5695982582685142,0.5735684920678934,0.5732124628273563,0.5586347695389451,0.5398962224613597,0.5386737046342787,0.5400478137930005,0.5541191661041731,0.556140884800727,0.5624679680690505,0.5859853278991349,0.5910168498502371,0.5915032953968997,0.6045693425550174,0.6084666417796307,0.6084690638946637,0.6084690638946655,0.6084674703979354,0.6054826900583667,0.5919326070858175,0.5910202439982868,0.5910206742424053,0.5928242544397082,0.6072957962694665,0.5964542160988153,0.570122407067498,0.5503783555434412,0.5249502850958558,0.5051991060938175,0.5039266311527157,0.5138263775604748,0.5328735736257308,0.560549335617972,0.5946078436658504,0.6217569653009565,0.6420779580163587,0.64999044340545,0.6630557133831383,0.6856194712457766,0.7210659227966136,0.7525436577412039,0.7101340736165636,0.6569126026728918,0.6159501215421561,0.5664442736464879,0.5127388241405284,0.4590231427916973,0.40538143889432243,0.3618394243807477,0.31539069683494425,0.27912907068916804,0.27975508988459197,0.3057341246549452,0.3522185772099906,0.3915963986461235,0.4310644571540143,0.47734418190466243,0.5136614168219413,0.5533132521196706,0.5921935094116924,0.62602842509484,0.6422072798173248,0.6433671498665503,0.6433671498665521,0.6433665762077307,0.641504896034367,0.6273590766748218,0.6259292877304992,0.6302289823427984,0.6399218960176443,0.6268306930577086,0.625918919563969,0.6275902445073185,0.6422803445477983,0.6559569629819793,PM
0.9332135957732968,0.9332135957732972,0.9333160840532191,0.9409470032255101,0.9474340473110399,0.952892839033745,0.9614929652868991,0.9617112769708873,0.9675164195611288,0.9757524655718184,0.9758870085164912,0.9758895913563559,0.9780372294207464,0.9892034491644903,0.9901114794308903,0.9900670592460896,0.9831505345954143,0.9758240019387032,0.9668955515182223,0.947030181289009,0.9336527779875441,0.9342260628185599,0.9478167646273774,0.960823426168083,0.9617112769709002,0.9675164195611416,0.9757524655718313,0.9758870085165041,0.9753103060117434,0.9515185441130289,0.9031210726941605,0.8610251377688871,0.808874931915017,0.7561607695682522,0.7034465538266677,0.6507968222887128,0.6054489485522718,0.5594527636919528,0.5068141617747257,0.4540999460331421,0.40138786608433974,0.35104704686995447,0.309483952425774,0.25746728700710175,0.2047533382396154,0.15212112138692135,0.10699366376176211,0.06502880938329603,0.054980656063402744,0.08353289013931353,0.13446899872650575,0.18718161262350264,0.23909458832219155,0.2805946704676441,0.3311020315162829,0.3838143250443624,0.43652773986365334,0.4875075080824911,0.5289221871704199,0.5804467170963044,0.6330651631718593,0.678376681813909,0.7243781807307759,0.7718112580012457,0.8114984974687949,0.8540658845116278,0.8946786760262548,0.921039102192029,0.9402354617928599,0.9481307227111011,0.9520347305303716,0.9515696469991752,0.9613703624900989,0.9613528478048394,0.9510742842108568,0.93794505133835,0.9232694283466132,0.8985743319693955,0.877287441106958,0.845424390654224,0.8188318808092703,0.8025552825577522,0.7915751842460881,0.7973019547055014,0.8218873434056428,0.8482434309980302,0.874599108185008,0.8993728484316832,0.9174477582504323,0.9318800920730896,0.9332139695370731,0.9349467084255942,0.9438728485520516,0.9339114130703479,0.9332138627474369,0.9332203664330287,0.936074262424627,0.9474796076441145,0.9587872195949334,0.9627725508277396,0.9741784978506742,0.9758863143838772,0.9772072845023607,0.9886401380659295,0.9901106251138163,0.9901803746413975,0.9961142226201325,0.9928900404036889,0.9890402678661712,0.9715816538711639,0.950029787383825,0.9474431622195061,0.9474448373474371,0.9503297929163801,0.9685120152161808,0.9894466714321402,1.0,0.9927663043047956,0.9901150631546023,0.9873969257426918,0.9611751838938885,0.9109522244924504,0.8591502969850597,0.8176023009872186,0.7670357233100238,0.7143532145917026,0.6671611753823141,0.6229907671040453,0.5704059140979447,0.5176916983563609,0.46505948150366616,0.41992903376861146,0.3737046268355373,0.3210593063044185,0.2683450905628342,0.21566254833821774,0.16870290048190895,0.12430427013088385,0.07171547504151166,0.022094710704485987,0.0,0.02598788875007152,0.07673459506504132,0.12915076049809837,0.17231365786122566,0.2206676538360166,0.27336549206203586,0.3260797078036193,0.3787931760177303,0.4298766339565516,0.4712579838170019,0.5227123134348404,0.5753372645450079,0.6208770052598132,0.6666746429559027,0.7187804286249713,0.7608763635502438,0.8095389755409257,0.8486460281923889,0.8834457735312187,0.9143228142280697,0.9433827443155791,0.9640925128426443,0.969641574263902,0.9617697335949922,0.9577862065603906,0.9468569738518497,0.936359035137039,0.9415214594289756,0.9324206867544604,0.9182669018361693,0.9007536513031655,0.8821125874476223,0.8628663045733189,0.844936319376421,0.8339570474628877,0.8423098699179792,0.8597358265389405,0.8773611389998806,0.8990461215070842,0.9161141235487569,0.9291673056289036,0.9329101418129251,0.9230204387097478,0.9136845608735116,0.9046002507011499,0.8941989621178075,0.8905562370414639,0.8932231063933966,0.9097580052430869,0.9290588370057149,0.9221807044357742,0.936795684879907,0.947237875134237,0.9419355053409775,0.9391968404679027,0.9473992934091386,0.9549150572706466,0.9568027716224092,0.9529355960811254,0.9657328941088199,0.9754944655132931,0.9662766016144091,0.9454377358551271,0.9329441668999499,0.9213468319928539,0.9190965652393643,0.9282579027502971,0.9493580244942521,0.9705545557599207,0.9763292801055576,0.9865686592162755,0.9901078485832482,0.989817547887609,0.9714212380413949,0.9321302578485255,0.8816673866444615,0.8289565913067065,0.7762423755651215,0.7235315770919888,0.6741900088831247,0.6318270129794694,0.5796099835131789,0.5268985443022138,0.4770573505905884,0.4350943054166694,0.38297748467159987,0.3302633757196536,0.27754915997806906,0.22483857508421656,0.1756635487096032,0.13316723589603585,0.08099919397357525,0.03753406693737005,0.02539871816236272,0.05780243673801588,0.11020158902101151,0.16107766751986552,0.20252567583527203,0.2541206196484822,0.3068348353900672,0.35954862397309406,0.4112542202318157,0.45262827777981096,0.5034687224969561,0.5561763476518349,0.6064342086765144,0.6480821923567905,0.7000928488342626,0.7499532753738873,0.7918587933650243,0.8423858099206942,0.882612616244117,0.9162638053191801,0.9359623982521628,PM
0.9189768898144199,0.9100281872353804,0.8939494684794711,0.9110739190771484,0.9187350563142431,0.9074873387445945,0.8935790239341681,0.9029470255812175,0.8853717053897439,0.8368347282902351,0.7823889631898944,0.7359203746782372,0.6867551527686879,0.6325336090085487,0.6032012112632603,0.5816357082471038,0.5379679975569278,0.5094622364410148,0.4996535375329485,0.4559233969154346,0.40178509998026013,0.35706474103999053,0.30591018772840006,0.25130487429521287,0.1966873510135101,0.14240246086803054,0.09720577594450908,0.04813584149196526,0.026197042180303054,0.05004175289128754,0.10057795604716024,0.1453183494705068,0.19653273062049093,0.2511428044931958,0.3057602697874171,0.36000309831689714,0.4050995437692879,0.45550997303268725,0.4961285324794198,0.5060060717696382,0.5225634826740675,0.5282048006307258,0.5136554395426716,0.5367696090150065,0.5846022348595683,0.621754061056708,0.6223791496780462,0.6420543791843658,0.6418861517279855,0.6842554072384701,0.7331475678701815,0.7618294665626688,0.801991149512977,0.8392085598592456,0.8701248233192656,0.8679763907029929,0.8639468337992435,0.8640451566143323,0.872916927027015,0.8906331819152105,0.9018790954815141,0.9122094544122177,0.9229562901176036,0.9428339297132713,0.9599410225869025,0.9813778734838559,0.9999999999999998,0.9968232700350497,0.9859601616303337,0.9616802377727536,0.9351759097857191,0.9173997393477544,0.903801392323395,0.8925360872009016,0.8910397965742727,0.8808906955422826,0.8800292219770902,0.8914371367478509,0.9076893522755418,0.9187473154574841,0.9123924381430306,0.912050814319507,0.9067763231458728,0.8988480124942979,0.891297770479891,0.8819831993784295,0.8777245934933056,0.8781912466296344,0.8870598335825901,0.8795316612644941,0.8691723439357346,0.8738058957278876,0.8689654557834656,0.8637810200488392,0.8524878857909892,0.8235998974449543,0.8013594947515352,0.7949655219794372,0.7872357157229433,0.7972176031787714,0.8214550890126768,0.8409202909111675,0.8730975319913423,0.8956332241879272,0.8945694497410697,0.8916584387293425,0.9000566497171818,0.915203531571054,0.909583021440602,0.8579303485810408,0.8033146199851566,0.7486975606033066,0.6952556295072518,0.6514478060047686,0.5986184520351812,0.5440080965126033,0.49220123590736,0.44789665038562343,0.3939261599390038,0.33930900874364256,0.2855032617942499,0.2415556906291918,0.18925443012117604,0.1395603379877095,0.09358689366002815,0.04184916330430921,0.025053303027202878,0.05182877179962797,0.09528444696475824,0.14936283593495214,0.20316505957820374,0.24698052828092565,0.2994422345998786,0.35405712877780093,0.40867465205950304,0.46326747559106374,0.513119928983248,0.558984583642971,0.6133688120143732,0.6679863352960764,0.7226018505826739,0.7754311006580228,0.8186945298596295,0.8575378736009769,0.8761256259560442,0.8686636416583176,0.8682025798704911,0.8594653296193979,0.8601401438779941,0.8555846465080352,0.8600142802298703,0.8651399636698456,0.8836593582332102,0.9170137112517904,0.9471990958377325,0.9625829292617041,0.976242204633748,0.9868729519237591,0.9770162406756502,0.9660804536193266,0.9404074847299884,0.9059502105366735,0.8876337450015901,0.8640993343031698,0.8469505099195953,0.8368157812838379,0.8363988611309485,0.8408746189734349,0.850464728819248,0.8608624744064335,0.8640412118250687,0.8736029969678702,0.9099477005628127,0.9417348560291947,0.9409148545589023,0.9303651275605469,0.9197357181193395,0.9190293840370296,0.9165456945606654,0.8975204456438772,0.8913449984951385,0.8777763716960176,0.8477078887317095,0.8190628636944519,0.7944083527663592,0.7822483879279762,0.7839941437565565,0.8065873099706169,0.8342850497522745,0.8539908643864045,0.8836800306145338,0.8914452666674604,0.8914807372543729,0.8921671019599813,0.9067302487728914,0.8972894842356502,0.8451334900573124,0.7937025717081683,0.7491184908612787,0.6950518810912982,0.6404344689522679,0.5858169456705642,0.5311994223888608,0.4766184766870578,0.42741220656625956,0.3809591490427391,0.3265052624339937,0.2718903682560714,0.2194286619371184,0.1756131932343974,0.12193067711291272,0.0753045325278967,0.02820523981926204,0.0,0.017023215345935316,0.06375792024566396,0.10773824085106076,0.16168041874545325,0.2162977970584523,0.27075168366719926,0.31720474119071906,0.36641101131151754,0.4209919570133218,0.47560948029502526,0.5302064671271269,0.5804929538257804,0.6259761765790197,0.680188982447586,0.7275971908869738,0.7753430959753465,0.8199668854404469,0.8600523497099573,0.8760827983774802,0.868900468632489,0.8639551604005014,0.863928725941802,0.8639367724897771,0.8670197406142675,0.8843474156902194,0.9036902608997381,0.9173279192009127,0.9331431525894793,0.9446449560420198,0.9465724388462371,0.9419626322789554,0.9146831284541792,0.8905252285748155,0.8661561745741893,0.8444272176979373,0.8295518535878073,0.8226931355792562,0.8226032087332651,0.8245380440774237,0.835326372452631,0.8394941161879366,PM
0.8615421411161339,0.8712830706828156,0.8862655508592501,0.8877188652307937,0.8747021771862227,0.8910165425885372,0.8933535250605313,0.8883100409870117,0.8870419855431129,0.8584851245959526,0.8226041374917639,0.8136003138127421,0.8164387009829421,0.8478473805199744,0.8855137301979097,0.9141706848815425,0.9259029917258257,0.938247082124517,0.9438389776236109,0.9237195272372656,0.8719302026446147,0.8102818480625551,0.7500398846667036,0.6847258820283431,0.6132569018806611,0.5550253927302715,0.4872918784633202,0.41525835371544373,0.34348100391034286,0.28302404123740477,0.2177771908090942,0.14576144274359804,0.07560694317646943,0.02056108807941026,0.0,0.04353681737386106,0.11088072261421944,0.18169966966043072,0.23884814893607453,0.30832695634683516,0.3802153750298283,0.4422496971444705,0.5058411693069833,0.5778130880740115,0.6462186736487054,0.7039710238084189,0.7743999248297908,0.8297698041872872,0.8773675480798326,0.914548790903325,0.9255887571681773,0.9256691312760781,0.9256685940081266,0.9238554017529417,0.9074021913652182,0.8811672806355628,0.8461245487280524,0.8111333179719664,0.7635268597589593,0.7127091692760104,0.6587666858489309,0.6094859747669616,0.5615252539444522,0.5176566891087107,0.4716786578024985,0.4302048882619989,0.42940283300704385,0.46912372761956256,0.5117754321965782,0.5628586966848701,0.6134486955258152,0.6559984872678037,0.7060070310332804,0.7539120468576805,0.8088291970275456,0.8524413056981901,0.8718317594709917,0.9064217303616866,0.9415913323459293,0.9278357501323922,0.9069428680186231,0.8914500545197734,0.8724446592647688,0.8759483248516267,0.8714258408837083,0.8865034696148317,0.9018444226949418,0.9207448162265766,0.9096820898735407,0.9273155750240747,0.9440603716490359,0.953253364639822,0.9629605999519777,0.9630484386505995,0.9630748371959994,0.9688837073108654,0.9683423807783553,0.9630667928567771,0.9600051350482701,0.9384757700460145,0.9088947873436046,0.8800714434637325,0.8606786929303953,0.857247433260611,0.8886328000109418,0.9215757653150924,0.9504608499915297,0.9784106221220159,0.9945707593735262,0.9931321684551606,1.0,0.975769974300003,0.907441346483242,0.8414449695399937,0.781773582353622,0.7195872429099461,0.6564990878874855,0.5845693887417354,0.5158925237767136,0.45821703328659424,0.38711378420723985,0.315067151399969,0.24302765622909162,0.17535321932124903,0.11721444423494898,0.062474973592095306,0.05781085784234108,0.10761423607802634,0.17195732653568196,0.23269990097227033,0.30436316030133215,0.36277914427926916,0.40299615882823314,0.46466803589043515,0.5366281841255875,0.6055974324110234,0.6631233565415853,0.7340628274743368,0.8009223744376057,0.8598413480033575,0.9188987470959913,0.9495263198647224,0.9528368883079361,0.9444780121893643,0.9500683783959962,0.9548050623051223,0.944510152994785,0.9371961175858159,0.9050727070212754,0.8729670425666165,0.8267678894491355,0.7842163672844786,0.7407312586403139,0.6850934549845356,0.6303807835124555,0.576404664787526,0.5257749079331528,0.47953970236884125,0.46486311415244286,0.48820743503503694,0.5145264510069398,0.5493889835827046,0.6093327144618379,0.6637140563728523,0.7155220776076541,0.7655039270615416,0.8050848748839181,0.854094232046565,0.8977412385767498,0.9280350526392809,0.9433747908638863,0.9398497092306206,0.9260241326049532,0.90965611196851,0.8775540858855218,0.8696359981965371,0.8722808022518178,0.8740268702919445,0.8870956326934243,0.9054849831366689,0.9087978451472125,0.9236910781223004,0.9256685372966027,0.9258769085421927,0.9398384942134679,0.9535631390849546,0.950773371969527,0.9446142134183497,0.9528810183041356,0.9623735096654715,0.9483404988647557,0.9295138451785547,0.8855720064076271,0.8684962982533904,0.8583868578373117,0.8734817485357702,0.9038789461837724,0.9319373583822288,0.9513490760289143,0.9688023687064171,0.95397878444372,0.9287690214216906,0.9332439460270345,0.920465827127515,0.86309004616382,0.8040161559232897,0.7325246475882148,0.6682976532618365,0.6068843630426706,0.5350371697986618,0.4687297975147886,0.40922484341680354,0.3375679778423053,0.26557521881572255,0.20127111251958674,0.1399358377200639,0.07065985342337466,0.022246733974946142,0.032712331974478204,0.09791137842716724,0.15530101781938388,0.22594235651107875,0.2963954574385288,0.3534833021810626,0.42339514483743645,0.49525407747560024,0.5565356336563321,0.6208975210984375,0.6927905501083536,0.7557343621553074,0.7992151602350615,0.8488220618670783,0.8792093281064259,0.9163624233848302,0.9256145064086492,0.9256314272746256,0.918807090302213,0.9010898756369627,0.8880775216726136,0.8686884100446775,0.8331186908208399,0.7970950078508192,0.7599339842171808,0.7026381840127551,0.6458294341960564,0.5933216648720463,0.5419953789705758,0.49127902421787617,0.4512414743678552,0.41070343438998513,0.3883074779868467,0.409073758047108,0.4473748951569565,0.4967473409598431,0.54620822509423,PM
0.37763236355898044,0.37401280276694493,0.4125938123930579,0.4850999188119136,0.5389525467507346,0.5769317776407634,0.6303479017561955,0.6859907142261301,0.7256066221223696,0.7072151797757282,0.7280203455573568,0.7325230298017562,0.7099735631969111,0.7326902499717285,0.7090901547382327,0.6250141165771081,0.5552934734480921,0.4955173190853248,0.4357658756499676,0.3758192952680508,0.3002081266236081,0.22704751867333695,0.17641962688747714,0.09751767188220128,0.04611346870668509,0.007340723879504019,0.0,0.0018467708905083313,0.03487832153476411,0.11861360706268087,0.18947381838825095,0.2494628167538222,0.3190802740096057,0.37913573902127773,0.4082399727492909,0.33642790502091735,0.2762869681724167,0.2512222443421228,0.2886944320937195,0.3702845974853979,0.4496849353165926,0.5092543720933236,0.5585286582928131,0.634197744497043,0.6989957962908901,0.7554284407559395,0.7244168575214402,0.6796809957800258,0.6448100421023479,0.6224712424807866,0.6040828488854704,0.5822559858314884,0.6031488791615702,0.6119880866262886,0.6210970756342364,0.6270886955251447,0.6140741590822127,0.6453403554357964,0.6724136646391257,0.6727159174830453,0.6490769108930845,0.6122134454642971,0.5822884565784241,0.5523810031374659,0.523715306445709,0.5205258626177036,0.5411148232024221,0.5707499031810626,0.6021987643427611,0.6387144440444876,0.6611908756579501,0.6988740362275241,0.718933222745826,0.7343329297071692,0.7351992502674412,0.7580641050869001,0.776483007390441,0.7942539227629615,0.7693557317535973,0.7650013330052694,0.764995916945268,0.7649961830704539,0.7667855832969117,0.7909269668295096,0.7957556075444288,0.8116788040635265,0.8506072332860244,0.8567993376919985,0.8568008743503217,0.8571839889458817,0.8787919322129376,0.8877122585620016,0.9075071835179571,0.9027436577786689,0.8826609718486047,0.8540587173685186,0.8241521996580472,0.797698464942246,0.7955978784622486,0.7956960515270319,0.8125495246019749,0.8679474547752477,0.9128820231171533,0.946947984838002,0.9694535645563622,0.9733602315413483,0.9349260689456207,0.920309609660805,0.9607140392841798,0.9521434384646374,0.8830545354685162,0.7942990911091607,0.7251175919325572,0.6456899879457403,0.5563047406421386,0.46809572817732015,0.4116923420246241,0.4006690277400642,0.4565522926427201,0.5434553310349548,0.6083695271535703,0.6937024144756272,0.7753406935514642,0.8175957719874178,0.8864958872494446,0.9586916943352017,1.0,0.9529361668905691,0.8992802257629622,0.8547445252564705,0.8271554545859487,0.8098471237142384,0.771524739257412,0.7725161612021019,0.7948677020959467,0.7957565432749796,0.8104863357187275,0.8161559042244813,0.7966904672392463,0.8190952035520374,0.8261176393450453,0.8070802060081963,0.7685518732417611,0.7327395602877838,0.6803206537312709,0.6682863805980439,0.6442865802813351,0.6494513477137955,0.6892666964486169,0.7286930887014336,0.7482587073035045,0.7777869130125747,0.7988858748908285,0.8246920400228417,0.8261989986803,0.8251675395392626,0.8009521235786199,0.7947595278764199,0.7716758144600178,0.7607015580281544,0.7363394166469099,0.7343945649409607,0.7343942730617288,0.7343939640131314,0.7325221402211151,0.7072164932324903,0.7266106929361218,0.7559162716858534,0.7652881599402965,0.7847192770400095,0.8039055339010996,0.8258094859268548,0.8431674769877953,0.8567516473735148,0.8567746070255247,0.8467004872295041,0.8398470473336053,0.8565543421107673,0.8364224711841945,0.7922887069665405,0.7485183254859731,0.7345027422231185,0.7346839075984946,0.7613797472042156,0.8143765852049931,0.8591204334601139,0.9037798035898987,0.9398160895986365,0.9204661638447496,0.9177621888373837,0.8984372740282041,0.8991379387047758,0.9425015211105796,0.9586526625817502,0.9002527454397216,0.8119182916274488,0.7225136348481289,0.6331512729418094,0.5607633580374687,0.5522818669381193,0.5969052909525328,0.6852130598564283,0.7570632011385356,0.7688906657924166,0.8312298304786863,0.9100297916523248,0.9767224001197086,0.9867584034945054,0.9202167716364373,0.8841505192090118,0.8585389124053355,0.8562337585640991,0.8348695939331794,0.8262154069619552,0.8262033762125052,0.8300616455505025,0.8555890324078836,0.8665980369965753,0.8607712381985619,0.8664709869646732,0.8860588544141645,0.86298326912428,0.8520946632677475,0.8108556915783653,0.7635416745128056,0.7365989831884354,0.7354068880483853,0.7585040242214394,0.7687414714834064,0.8058441739197519,0.8372135138212151,0.8778597387776834,0.8968817193212315,0.9175528681911089,0.9180041363638116,0.9172974935107892,0.8950781337593012,0.8873853721074676,0.876080783856124,0.8361751732229079,0.8262178960825795,0.8261992047128395,0.8261996339470103,0.8289719806285376,0.848068012387956,0.8272628642377375,0.826199350652467,0.8261992047128519,0.826199427914621,0.8277297423419192,0.851492599948978,0.8461404771053207,0.8312086644168293,0.855676319902968,0.8568008485965279,PM
0.7071606187574799,0.7274876860983328,0.7617272487262676,0.7658316963566429,0.7589297020031847,0.7153686718492329,0.660477903672473,0.5955407946410265,0.5319393585201349,0.45647949393466725,0.3968713156730699,0.3195770743829822,0.26161350922621107,0.19276674947146422,0.12915140856499896,0.06674027883245692,0.025688394864257447,0.0016143243618369496,0.0,0.005417025147120391,0.051413794837034565,0.13102227852141723,0.19033927293706476,0.24543683288634277,0.3110728750924636,0.3657436750701395,0.3978449029069262,0.39634513171657293,0.4539418759137499,0.5091527420666866,0.5696130804225525,0.6239312103856749,0.6300377792613103,0.59466624886233,0.595236907372664,0.6359630887401186,0.701467860052408,0.7449151245965,0.7913261093089643,0.7952963276829781,0.7952977323748991,0.7975491034723685,0.8220914995897468,0.8421370860549144,0.8826172277204947,0.9044786607575288,0.8536825551543359,0.811935104510094,0.7706342989746942,0.717059575449774,0.6623356231930213,0.6187766839628264,0.5777676629130006,0.539084625764926,0.5302023316076143,0.5245694547587165,0.5035104149083534,0.5323292140437657,0.5868882939637556,0.6415720582705804,0.676772187479922,0.7096768801935216,0.7366027311215388,0.75943573262479,0.7600720795512634,0.739150920620065,0.7625764560377215,0.7894147912016889,0.7771222773465407,0.7607246786490025,0.7377090543313862,0.7258046089512886,0.6878312867716012,0.6775263048826332,0.6852611460245432,0.7030574118523418,0.6795316861803125,0.676598460581439,0.652501969721798,0.6481658135268047,0.6627223191274059,0.6894282490281647,0.7067596180119562,0.6922766323471503,0.6788802097530189,0.7058645162064847,0.7357619770855104,0.7565083664715138,0.752344982627041,0.7365602392422153,0.7399313152677145,0.7666965757202311,0.792549844137433,0.7829724571044876,0.7563486153581609,0.7295842907713466,0.7078289530075601,0.7263169608205375,0.7612440930542936,0.765840473970175,0.7658404397842382,0.7608100815551992,0.7377900316002828,0.7363850296339258,0.7351956951681933,0.710838495654273,0.7144939937356307,0.7326351276089875,0.7002618724699827,0.676985426286663,0.6527017330651832,0.6346766512443125,0.5976291651211829,0.5895400694004254,0.6101030187444394,0.6185483888415542,0.6198675853650109,0.6556101756040782,0.6879888177063025,0.7066919178261379,0.7138802791983538,0.740896559324729,0.7635687921333902,0.7391094539111664,0.7122653160153822,0.7130707767736482,0.7356830019522267,0.7388935710314799,0.7636395662922189,0.7524079110193416,0.7362293234864241,0.7166929305084926,0.7069631465719066,0.7069293656530542,0.7083525126066146,0.7447592311280973,0.7685228621172095,0.8023799318249516,0.8106456841609395,0.7954497616033986,0.7850938468847719,0.7336452177702535,0.702817728363514,0.6658935085797495,0.6273083050579435,0.610116541522328,0.5577377609964547,0.4891754461827409,0.4287214962121819,0.354556999609847,0.29056395961793857,0.2251114382969961,0.170595542128277,0.1483752175573292,0.17394884233884245,0.23512969496811476,0.29262276669009957,0.3702959751652859,0.4294680377621303,0.4952817677571266,0.5563288358425025,0.5755484962019226,0.5599172937160697,0.5720473045937382,0.6223771728524925,0.6945662028201189,0.7395243783319705,0.7941562273068339,0.846779300428782,0.8762706739756085,0.9167404512593,0.9472688652039238,0.9747199774379931,1.0,0.9966456065306888,0.979787839407507,0.9909731854701018,0.9523738077750075,0.9003228056721229,0.8560022365780631,0.8150697205606221,0.7739496048576591,0.7387449299275568,0.706917254473403,0.6789011409329184,0.6775482784993452,0.689111755803534,0.7273631337292228,0.7365294596463645,0.7517511854456629,0.7658100925336084,0.7649956898399983,0.7411677737564624,0.7426071202571585,0.7441411483694447,0.7363940070826622,0.7363850680932202,0.7358116531703329,0.7139428104462464,0.6847045849146012,0.6499369876025289,0.6178588691363931,0.57737006427719,0.5599173684978629,0.5719586224271405,0.6123688699776455,0.6531334226254604,0.6928793630581911,0.706900314661433,0.70692929129872,0.7071302312797574,0.7242926253346349,0.7256491188962881,0.7055986292154666,0.6747510939832679,0.6483972860166132,0.6255770070958429,0.623021147575626,0.6471392918698156,0.6500670793612322,0.674117489570186,0.6829291362281609,0.7061545873944848,0.7069292554035043,0.7069035805203177,0.6944641652721151,0.6678495418881383,0.6510976989317463,0.6755296024061828,0.6774791255661858,0.6831237505601528,0.7061747338129303,0.7071719768172766,0.726519067514765,0.7531401768821899,0.7632759914886886,0.7387523248216139,0.7366051785629333,0.7562741796023769,0.787659675922372,0.7679359141777269,0.7682795716600639,0.8015806601332516,0.8238234248692766,0.8035378445100498,0.7939102134703644,0.7694588821409623,0.7736969810776957,0.7947701741884279,0.7952966216823318,0.7952604033580108,0.7793769791270515,0.7659418131942397,0.755176538452556,0.7366162985496993,PM
0.8913610355632557,0.8913610355632566,0.8913610355632584,0.8913610355632611,0.891361035563262,0.8913610355632637,0.891308431248198,0.8787768047652604,0.8346677271515746,0.7842667972249662,0.7599823923370157,0.7729159272911352,0.7563067183193817,0.772004019311026,0.8261760105201668,0.8734873219168509,0.9071012468693769,0.9447397120106333,0.9708976796047017,0.9729123029656823,0.9671073943082615,0.9473085420989293,0.9622453692369182,0.9116397391385296,0.8422567783268389,0.7527165721738815,0.6678521190384434,0.5981476621333921,0.5086709669017684,0.4182630984682958,0.32978630914176277,0.2616142173709006,0.174221681228949,0.08572579906966116,0.03300582336042268,0.06270977137066902,0.1328295996596709,0.22273174475776125,0.31060226678059744,0.36400303933867173,0.4272723396891629,0.5029624637360901,0.5932157750348428,0.6836229720797768,0.770160747281579,0.7804429923154941,0.761036852879474,0.7987736145743125,0.8551087444414169,0.9142072752381583,0.9448294357386824,0.9629747387080738,0.9558902473394162,0.9457818353481673,0.9395487572658161,0.919286058127605,0.9143099928830423,0.8927800811861073,0.8743126973845166,0.841042098952101,0.7963251375880911,0.7570568388383383,0.7194437455328129,0.674298988379324,0.6288093264134367,0.5727071509721973,0.5341615487114297,0.5116296088509844,0.5183067594266189,0.5708300671815585,0.6280118691105279,0.6826208875521158,0.7483076490865597,0.8017516668369544,0.8322783540348522,0.8675381882797688,0.8908882532732716,0.8928203164387845,0.9139849764604402,0.9219491596945919,0.9433802564151423,0.9256389377123164,0.9183128005870906,0.901119652323596,0.9066148632962148,0.9184794525840432,0.9156421714962364,0.899703903407818,0.895862913300665,0.8925615470692274,0.9202925410605922,0.9305640475125858,0.919738719302718,0.9405116274246255,0.9457123182641243,0.9373556751400121,0.9189164426778125,0.9042510674165114,0.8745907830149382,0.8488709690546608,0.7978716122395135,0.7828327314049113,0.8032515973153234,0.8562672086586036,0.9090295445075864,0.9341309440430883,0.9773177283001977,0.9997952632193274,1.0000000000000004,0.986859389600816,0.9766899089868937,0.9845676986252561,0.9278793950380266,0.8447261973288032,0.7846932970473417,0.7299841515416587,0.6541568583629593,0.5638970027676904,0.47366506647169127,0.39856230292156924,0.31978458048432223,0.22945016552255293,0.1408770474612191,0.07655035070623706,0.05935973506014314,0.1315378219731027,0.22188016613170936,0.3118495015435694,0.3846782325549145,0.4659369286340005,0.556327428836878,0.6467358611372993,0.7371442934377179,0.8275526441769192,0.9173238724131223,0.979343365385962,0.9513714495282826,0.920709883593188,0.9385429276708952,0.9477196815233868,0.96936126471032,0.9725239918913764,0.9496529827053553,0.9231382695272248,0.943732845517578,0.9457333111235591,0.9442310190316809,0.920153648837251,0.8834499139903724,0.8508798128359687,0.8187622466456665,0.7743027115547645,0.7278598966877694,0.6710938377257709,0.6251822228584465,0.5886157015978548,0.550230956128424,0.5383117532309805,0.5623729916467757,0.6215666165612643,0.6730861341889649,0.7259757003989304,0.7829537304375118,0.8208496943622436,0.8448985432869969,0.8821267083943369,0.903837623189546,0.9183957122985835,0.9192250233255863,0.9360331366052415,0.9196580604667814,0.896371056445878,0.879557792690822,0.8398550269864491,0.8470118961628237,0.8836382166107382,0.8718051293490574,0.864829290175313,0.8838083446897076,0.8720126965589041,0.8732486928073437,0.891088352046626,0.8913607460387634,0.889766836760757,0.8592994841268546,0.8184665944251166,0.8096204348931315,0.793203456165434,0.7827160788024501,0.7940500828722477,0.8463925560810179,0.899062822033732,0.9212369128895204,0.9543369666352226,0.9824211695445961,0.9746808200196777,0.9726386436204764,0.9548243955345117,0.9643123993187399,0.9723001063915331,0.8897034317036208,0.7993005129266568,0.7107960215386453,0.6426047619259578,0.5552586002600992,0.46487158646380644,0.38395527453576195,0.3108105200790505,0.22081403602001304,0.13041020412785187,0.04510828776887621,0.0,0.021145144097290736,0.0947431808492647,0.18499170412387755,0.27418712909231946,0.3436476713035601,0.4290355443855405,0.5194390826389141,0.6098475149393336,0.7002559472397514,0.7906636303514598,0.8784522846501797,0.8972881839041942,0.8568645719693158,0.8537916446340268,0.8971094748644277,0.9380518510033409,0.9348412432460997,0.9273250508728519,0.9288769013159386,0.9184932559072645,0.9049871719923623,0.8914529980298806,0.8874735197583434,0.8659966775315255,0.8621519918704359,0.835260189274472,0.7851076298327295,0.7326919488953965,0.6825596945711925,0.6464587224456184,0.597292291907872,0.5705345873587695,0.5277719128921459,0.5303739306749704,0.5642068410814702,0.5994588851466962,0.6483025968523113,0.7084002303764936,0.758616422485844,0.8037628054205919,0.8403215174294778,0.8630681463106895,0.8720539922112871,PM
0.37763236355898044,0.37401280276694493,0.4125938123930579,0.4850999188119136,0.5389525467507346,0.5769317776407634,0.6303479017561955,0.6859907142261301,0.7256066221223696,0.7072151797757282,0.7280203455573568,0.7325230298017562,0.7099735631969111,0.7326902499717285,0.7090901547382327,0.6250141165771081,0.5552934734480921,0.4955173190853248,0.4357658756499676,0.3758192952680508,0.3002081266236081,0.22704751867333695,0.17641962688747714,0.09751767188220128,0.04611346870668509,0.007340723879504019,0.0,0.0018467708905083313,0.03487832153476411,0.11861360706268087,0.18947381838825095,0.2494628167538222,0.3190802740096057,0.37913573902127773,0.4082399727492909,0.33642790502091735,0.2762869681724167,0.2512222443421228,0.2886944320937195,0.3702845974853979,0.4496849353165926,0.5092543720933236,0.5585286582928131,0.634197744497043,0.6989957962908901,0.7554284407559395,0.7244168575214402,0.6796809957800258,0.6448100421023479,0.6224712424807866,0.6040828488854704,0.5822559858314884,0.6031488791615702,0.6119880866262886,0.6210970756342364,0.6270886955251447,0.6140741590822127,0.6453403554357964,0.6724136646391257,0.6727159174830453,0.6490769108930845,0.6122134454642971,0.5822884565784241,0.5523810031374659,0.523715306445709,0.5205258626177036,0.5411148232024221,0.5707499031810626,0.6021987643427611,0.6387144440444876,0.6611908756579501,0.6988740362275241,0.718933222745826,0.7343329297071692,0.7351992502674412,0.7580641050869001,0.776483007390441,0.7942539227629615,0.7693557317535973,0.7650013330052694,0.764995916945268,0.7649961830704539,0.7667855832969117,0.7909269668295096,0.7957556075444288,0.8116788040635265,0.8506072332860244,0.8567993376919985,0.8568008743503217,0.8571839889458817,0.8787919322129376,0.8877122585620016,0.9075071835179571,0.9027436577786689,0.8826609718486047,0.8540587173685186,0.8241521996580472,0.797698464942246,0.7955978784622486,0.7956960515270319,0.8125495246019749,0.8679474547752477,0.9128820231171533,0.946947984838002,0.9694535645563622,0.9733602315413483,0.9349260689456207,0.920309609660805,0.9607140392841798,0.9521434384646374,0.8830545354685162,0.7942990911091607,0.7251175919325572,0.6456899879457403,0.5563047406421386,0.46809572817732015,0.4116923420246241,0.4006690277400642,0.4565522926427201,0.5434553310349548,0.6083695271535703,0.6937024144756272,0.7753406935514642,0.8175957719874178,0.8864958872494446,0.9586916943352017,1.0,0.9529361668905691,0.8992802257629622,0.8547445252564705,0.8271554545859487,0.8098471237142384,0.771524739257412,0.7725161612021019,0.7948677020959467,0.7957565432749796,0.8104863357187275,0.8161559042244813,0.7966904672392463,0.8190952035520374,0.8261176393450453,0.8070802060081963,0.7685518732417611,0.7327395602877838,0.6803206537312709,0.6682863805980439,0.6442865802813351,0.6494513477137955,0.6892666964486169,0.7286930887014336,0.7482587073035045,0.7777869130125747,0.7988858748908285,0.8246920400228417,0.8261989986803,0.8251675395392626,0.8009521235786199,0.7947595278764199,0.7716758144600178,0.7607015580281544,0.7363394166469099,0.7343945649409607,0.7343942730617288,0.7343939640131314,0.7325221402211151,0.7072164932324903,0.7266106929361218,0.7559162716858534,0.7652881599402965,0.7847192770400095,0.8039055339010996,0.8258094859268548,0.8431674769877953,0.8567516473735148,0.8567746070255247,0.8467004872295041,0.8398470473336053,0.8565543421107673,0.8364224711841945,0.7922887069665405,0.7485183254859731,0.7345027422231185,0.7346839075984946,0.7613797472042156,0.8143765852049931,0.8591204334601139,0.9037798035898987,0.9398160895986365,0.9204661638447496,0.9177621888373837,0.8984372740282041,0.8991379387047758,0.9425015211105796,0.9586526625817502,0.9002527454397216,0.8119182916274488,0.7225136348481289,0.6331512729418094,0.5607633580374687,0.5522818669381193,0.5969052909525328,0.6852130598564283,0.7570632011385356,0.7688906657924166,0.8312298304786863,0.9100297916523248,0.9767224001197086,0.9867584034945054,0.9202167716364373,0.8841505192090118,0.8585389124053355,0.8562337585640991,0.8348695939331794,0.8262154069619552,0.8262033762125052,0.8300616455505025,0.8555890324078836,0.8665980369965753,0.8607712381985619,0.8664709869646732,0.8860588544141645,0.86298326912428,0.8520946632677475,0.8108556915783653,0.7635416745128056,0.7365989831884354,0.7354068880483853,0.7585040242214394,0.7687414714834064,0.8058441739197519,0.8372135138212151,0.8778597387776834,0.8968817193212315,0.9175528681911089,0.9180041363638116,0.9172974935107892,0.8950781337593012,0.8873853721074676,0.876080783856124,0.8361751732229079,0.8262178960825795,0.8261992047128395,0.8261996339470103,0.8289719806285376,0.848068012387956,0.8272628642377375,0.826199350652467,0.8261992047128519,0.826199427914621,0.8277297423419192,0.851492599948978,0.8461404771053207,0.8312086644168293,0.855676319902968,0.8568008485965279,PM
0.8462892108547492,0.8386046319388619,0.8367041605640094,0.8468251346702181,0.8647440374985397,0.8689754772608188,0.8648645658895487,0.8612212596591114,0.86486837777479,0.8559749889963438,0.8540624279624812,0.8611133857292462,0.8657399041839741,0.8686964902312203,0.8659693033480759,0.8724531346383945,0.8753240023725487,0.8697605983482496,0.8839055871234957,0.903862415916359,0.892921271752276,0.8560417605839773,0.8168358772249943,0.7776238680729884,0.739134365504437,0.7058178484561769,0.667582328776615,0.6284246811638939,0.592799597975442,0.5574708464658475,0.5183316982471555,0.4791201220436716,0.4408468438587465,0.4074842056365019,0.36907864538358226,0.3298670414259507,0.2906544740936652,0.25144274839690217,0.21314006576314304,0.1797859564772104,0.14140136013059512,0.10219029952897396,0.06365237656460726,0.030417807392792928,0.0,0.0005459837520612187,0.027645059544090966,0.06098707534518477,0.09804270626895484,0.13265124003492856,0.1690160862617084,0.2082022480944713,0.2454472427630282,0.27334501251187426,0.31061545102019383,0.34660042471173047,0.3815602153844886,0.419405943913175,0.45286751370154743,0.4911967327403757,0.5250507536762486,0.5619381541371186,0.59503214285909,0.6269193250966628,0.6608961115314943,0.6963501723477991,0.7312534789851598,0.7653635088076777,0.7970680397857471,0.8283831688372184,0.8584318600753694,0.8907225113590039,0.9157429132474731,0.9304972761268117,0.9350258594533548,0.9450389265865747,0.9600395317864988,0.9797285206895717,0.9999999999999999,0.9907642887292735,0.9666780984293545,0.9390200597477362,0.9109515273870051,0.8847204841063191,0.8598222153122855,0.8415481172843936,0.8352699121708641,0.8332080251254418,0.822208322034052,0.8228590902384209,0.8360661022593067,0.8514482233026949,0.8540033197318163,0.8508600560950893,0.8541108184105431,0.8634450421351437,0.8767827425733631,0.867558398449429,0.8542633580949776,0.851528931419986,0.8609261902430293,0.868613938123353,0.8776859946182584,0.864257779362621,0.8613959385223183,0.836772823656008,0.7981457541162026,0.7644319066455288,0.7269756003086346,0.6900854762026468,0.6559191888490702,0.6169292424625207,0.5778279551869082,0.5430715193298693,0.5068588875772306,0.46769308935510423,0.4309472244625112,0.39666354405987525,0.35763858512013624,0.3193555054522669,0.2859957102087922,0.2478843176508969,0.22431557850652006,0.24401836327940296,0.2811372740639443,0.3144763131631162,0.35301961617146227,0.39223170968320864,0.43132610374201474,0.466123896258708,0.5022966372179104,0.5414806564016262,0.5793562042981878,0.6128493724620884,0.6514093271581166,0.6862532456047451,0.7223349972660053,0.7579902477452717,0.7892739801051126,0.8188189020403084,0.8458299604729297,0.8576779176120625,0.8651643901932481,0.8821341034995976,0.8782160523714085,0.8759688114476115,0.86070903632416,0.8351812279082275,0.8108286812970334,0.7859469432361447,0.7649461940528502,0.7479448368274432,0.748571763534457,0.7636366971362468,0.7852493988865058,0.803874222309953,0.8119355828731113,0.8190336760292124,0.8312110166850112,0.8381289327650717,0.8331522550209843,0.8278167742509123,0.8311659395926027,0.8373961142090295,0.8377926483960022,0.8380738144400987,0.843567227520397,0.8505626979527959,0.8523108806910539,0.8377162446747898,0.8427344645091547,0.8606767862650725,0.8676308855418372,0.8463241339403097,0.8130725659696726,0.7744230541016058,0.7398130092549361,0.7034357273473851,0.665584164572239,0.6321068595395772,0.5934194177409163,0.5542154845994045,0.5170026270826557,0.483082131425547,0.44416744354364146,0.40503645245981335,0.3699590270421105,0.3340880870983508,0.29492628574843016,0.25786741337181096,0.22611704393120802,0.21908389824241958,0.23857804342486744,0.2646117895516178,0.29096982690766204,0.31948554616588365,0.35500830452134613,0.3941685006229264,0.4333793034982697,0.47147954940601733,0.5048508185242729,0.5434209503982369,0.5823172344592574,0.6161790335918379,0.6533248590317547,0.6878348398576554,0.7237410357221646,0.7557019426130588,0.7831614456490953,0.8108680094245312,0.8412253323889928,0.8657145134499477,0.87605809677654,0.8661611192657593,0.8482554206006959,0.8366826762039782,0.8361291905636833,0.8396290710317845,0.8224165237714823,0.8013046595418735,0.7806637401205833,0.7791205450506719,0.792998714360707,0.8147313368026757,0.8318963579507787,0.8398338852525428,0.8334002423882966,0.8280262693606494,0.8336656935387311,0.8410813358841095,0.841148539919183,0.8375200550913952,0.8380596110271242,0.8431779812858701,0.8536718555992872,0.84873405199483,0.814029787854302,0.7802757392265499,0.7429027737832842,0.7042235349107718,0.670715654793086,0.6328671556284057,0.5939494511589799,0.5601616141042697,0.5228231767407596,0.4836184452517839,0.4444058779194977,0.4051933105872132,0.36607124801461544,0.33115825111604846,0.29511854908410484,0.2564486088831288,0.22619484165282955,0.22050910628136167,0.2484538798593412,PM
