0,1,2,3,4,5,6,7,8,9,10,11,12,13,14,15,16,17,18,19,20,21,22,23,24,25,26,27,28,29,30,31,32,33,34,35,36,37,38,39,40,41,42,43,44,45,46,47,48,49,50,51,52,53,54,55,56,57,58,59,60,61,62,63,64,65,66,67,68,69,70,71,72,73,74,75,76,77,78,79,80,81,82,83,84,85,86,87,88,89,90,91,92,93,94,95,96,97,98,99,100,101,102,103,104,105,106,107,108,109,110,111,112,113,114,115,116,117,118,119,120,121,122,123,124,125,126,127,128,129,130,131,132,133,134,135,136,137,138,139,140,141,142,143,144,145,146,147,148,149,150,151,152,153,154,155,156,157,158,159,160,161,162,163,164,165,166,167,168,169,170,171,172,173,174,175,176,177,178,179,180,181,182,183,184,185,186,187,188,189,190,191,192,193,194,195,196,197,198,199,200,201,202,203,204,205,206,207,208,209,210,211,212,213,214,215,216,217,218,219,220,221,222,223,224,225,226,227,228,229,230,231,232,233,234,235,236,237,238,239,240,241,242,243,244,245,246,247,248,249,250,251,252,253,254,Target
0.30266587645403487,0.3395584287994795,0.4113781012476474,0.47325925647746225,0.5120395544559517,0.5580168451525289,0.5500978464596111,0.4916659779254713,0.41014389786545213,0.3518275922122316,0.31243776335916684,0.3140988432071783,0.35219769802225787,0.4059152724323627,0.45410718920788207,0.522903866034987,0.5541909819998094,0.5420862506489754,0.5097247727285514,0.513993996105685,0.5540531581781674,0.6055427447396042,0.6366876466881146,0.6470171287863458,0.5740797659504719,0.4857728846866818,0.3982563627154849,0.3039719620654113,0.2155630403105071,0.12958936286293699,0.07684386045827041,0.11750857558783512,0.19719178964121342,0.28733579379043217,0.3720169950947436,0.4650739075128023,0.5484383152688121,0.6166552668347063,0.6717939407842881,0.7145716143529259,0.7489762851874417,0.7586273996351405,0.7677689946305553,0.769129633571229,0.7558573723173445,0.7466251659552408,0.7767286852957291,0.8329409265149061,0.8958608397924974,0.9434525486591048,0.965713307068653,0.9579296930093892,0.962133179032586,0.9541407933570973,0.9383895762901464,0.9377502833717986,0.9187725569551095,0.9026548282193525,0.8873990715013538,0.8673593371753843,0.8393479639313017,0.8012055152014927,0.7512168065627136,0.7306254938884023,0.7616678914061465,0.786644608008954,0.7821390407151345,0.7363044796394169,0.6457571316976696,0.5551647801020081,0.46953320163517387,0.37545705072651203,0.2835492862082527,0.20229224817606672,0.17446590290957142,0.2378161632646072,0.3083639045193465,0.38700426705035973,0.4740857704135697,0.5585446921231647,0.6360946228657995,0.6939742913999354,0.7167795801229968,0.7118809901091894,0.6866907710927002,0.6518009003631453,0.6102913976098974,0.5664327493042685,0.5215338432527028,0.48820759264470737,0.5072155122226005,0.5627467640975372,0.60402903301048,0.612013377506653,0.597635978183815,0.5903689512413217,0.5954897018729579,0.6035014983097347,0.6107692738198474,0.6169645271332767,0.6170829325656422,0.6170636104318714,0.6129483944954106,0.5836352258520272,0.544101322640582,0.5262452002427918,0.5560225410959563,0.5969005178538971,0.6138382596557401,0.6227534633383034,0.5578551392400988,0.473604599370139,0.3802782937422209,0.2892763609359863,0.21040377061423832,0.1356179680297218,0.05286821729818203,0.0,0.04018573698925376,0.12262952141381489,0.19708749795980496,0.2737651833682202,0.3596944714933161,0.4410090323494622,0.5102303630210023,0.5595864258784384,0.5757141906689054,0.5694319714899734,0.5388431363318771,0.498415715410889,0.4529390441207044,0.4063631464330466,0.36323399749521235,0.35578775314646993,0.401595825525386,0.4596631365534918,0.48528580875094884,0.4732424993865616,0.472383029743362,0.5003590574578014,0.5158115703567632,0.5257456970332559,0.5109614463702938,0.4584117598919313,0.41129321702607013,0.42056414608348747,0.4668184853272297,0.5116778374138999,0.5537912977258965,0.5907738102921163,0.608047269841568,0.6088234677836601,0.5988148263784161,0.5568171097151968,0.4939586094932771,0.41133711236477954,0.3297575499372003,0.35038387117397796,0.4376487874773083,0.5315643351821169,0.6168721783318369,0.6991213681214357,0.7333600084899345,0.6840735627230912,0.6491914050619025,0.6220333061807277,0.5805909252946202,0.5741798068187303,0.614492165303995,0.6499866077157439,0.6625585604129591,0.6629243082995064,0.6620863958140781,0.6557404204622752,0.6481791859485895,0.6369331914100547,0.6346303361744658,0.6303937418938654,0.6327458695352199,0.6482006044238615,0.6535235519694595,0.6334087124424814,0.5867574868750098,0.5414930912794056,0.5593371688153261,0.6106324121686899,0.6488647290444922,0.6874244788209205,0.7232396728783559,0.7498624015607052,0.7569439552159796,0.7468062766074264,0.7101602084594949,0.6479299973322867,0.5693467099229583,0.4836779861842928,0.3967357688765014,0.4086781841498144,0.4999568694607188,0.5918778712890231,0.6766044639748754,0.7660954615500468,0.8468501191356472,0.8943196093734647,0.8552698466797681,0.8251635906344859,0.8071332683715353,0.7826319367589891,0.8154752404631667,0.8621727182017651,0.8924820751610001,0.9156651977671386,0.9343502424775221,0.9475713995277062,0.9641496794942814,0.9739434617383369,0.988485200061662,0.9995716332586022,1.0000000000000002,0.9999211903162755,0.9914883482390391,0.9546017041360588,0.9010252316258922,0.8373952323078757,0.7948302148512314,0.8020021145366487,0.8143169730323205,0.8100995723430902,0.8047656707438444,0.7854158756185365,0.7535981331919894,0.713359409995822,0.6624319691599216,0.5939398780364773,0.5159881573570526,0.4334262231881174,0.34762010975675417,0.32036257927319634,0.4006097814211398,0.49444812122889803,0.5796078783358183,0.6695110487515439,0.7490009389715044,0.7820184905346779,0.7265028013652548,0.6800748281771807,0.6467061195119206,0.5977518491223754,0.5598641614490754,0.5689229814417442,0.5936594747378463,0.5997873753111074,0.5956813876135751,0.595470534586753,0.5918304974753335,PM
0.25744947137399166,0.2613547386114634,0.29327309019770276,0.29881447119875304,0.3099678209486365,0.33880950489604,0.3415319684150395,0.36805163105203587,0.3512896671750756,0.373858155462961,0.3586290998245376,0.34026786055689673,0.3261358384915054,0.267002323159546,0.2412305408565958,0.20217075354255343,0.17715464862413555,0.21358551878793186,0.27613354029019366,0.29700753171856586,0.26019374499958037,0.21863111559039705,0.22416751655782718,0.26306054088446373,0.34229542783284206,0.461789031281147,0.5987231666642767,0.6557713040302247,0.6065051704237403,0.5153289090756346,0.40820168782923183,0.2778771263561106,0.17819470487270905,0.10820590476463643,0.08792277736809506,0.05552252219825693,0.05245277745772281,0.08190768189756792,0.09559989876399211,0.15326290481053118,0.2177897847080077,0.25027750740083654,0.19514049123695099,0.09921059431903956,0.047873746262048655,0.014705822410999936,0.027813984238158618,0.02069578482956569,0.048634081492267,0.053770260852578744,0.10374921671841442,0.14279976426226426,0.16173633962847056,0.1647295113477929,0.17476127042261602,0.1711613441112032,0.15588756439195706,0.15336137841826858,0.1338015673295434,0.12869987018724327,0.0950525209828017,0.04721794994280604,0.016580234136882588,0.009316773186807126,0.0,0.06929841002245762,0.1268442112159791,0.15862523080084312,0.13419746732528903,0.10332062136409981,0.12656162266973858,0.14555458666676468,0.22742627629585588,0.3505165596027622,0.4997378665912473,0.655176715377193,0.6990812106696174,0.5583274430657212,0.42546849317651514,0.31960279284072435,0.32094407455731044,0.25363049367277046,0.15959486427379765,0.12746493368632894,0.07721973199641585,0.056893697688536804,0.06731354320947691,0.08779495681582361,0.13366879124114472,0.20217773815300788,0.27357459176248167,0.34366572219257296,0.4145943414560316,0.43529970915061256,0.37173201137274514,0.2913468022811223,0.23410152339889745,0.21641478078759757,0.23174862177436228,0.2567416735540142,0.2583513490274765,0.28480477689823847,0.3159817166405636,0.3395556402432822,0.33938002879698637,0.3143870993366491,0.2987932615409159,0.285003462228949,0.28246627572640115,0.28691130220359007,0.24118915698717025,0.21519931222398725,0.18250912977009026,0.15728027774595787,0.20575446865925073,0.2460505938142754,0.2850014809043646,0.2976255225163955,0.26958136536585897,0.26544445545524464,0.304418620193629,0.3911933958927918,0.5115846454286563,0.6487187189188273,0.6814649136519808,0.5863467833774783,0.6459758454797697,0.7849932947420797,0.9043193432050085,0.9632494564970306,0.8753238782232762,0.731061684432083,0.5823715416100637,0.44489865954493535,0.398680763316535,0.40316049154716893,0.4343359471705721,0.41188560875846925,0.37282890678960445,0.3484061182665137,0.3175990227257559,0.3157947347668051,0.3425668150363359,0.3922061382295601,0.3979644906994455,0.4090220896414989,0.43530968714517826,0.42085243847856457,0.4458335762663248,0.47403067365217666,0.4549081559582051,0.4503348646393688,0.4183305004598106,0.3654530992112113,0.35663654833274183,0.35661270516601906,0.3567477281700233,0.3766307407980971,0.4591708211320036,0.529092424149832,0.5817293562306487,0.5580940603856677,0.49168249771587824,0.42054661746222877,0.34502295772784297,0.28537275761321634,0.22235278894506116,0.1923152540874158,0.19454243944492688,0.22753253004910512,0.2746481327421888,0.3698884435646468,0.43611656204966653,0.4938816931371015,0.6213225371964226,0.7610003899075828,0.8867703410238201,1.0,0.9503324348246176,0.8032441161749011,0.6468350120850435,0.4937348530118424,0.3480940357286473,0.27743447327207793,0.2582490350821951,0.2613843498161401,0.2735907096254877,0.25370609863619187,0.2139613094862991,0.16657594020014255,0.15267777034889907,0.18562341303312113,0.2281872861668015,0.268730628990566,0.24888265565590562,0.25324273900078076,0.2790246440046982,0.3067326811386737,0.3085548128967224,0.3147738234863553,0.29143961078872493,0.27413625554725307,0.264839763460186,0.19070487014021964,0.15135192624201732,0.1526632804871504,0.18046007665552288,0.14889238708933483,0.17117105469912364,0.2225116364517099,0.3211869205697866,0.37543043724858194,0.38370110394822454,0.32939216712769515,0.2793927697385534,0.23040662611501794,0.19321511983549922,0.1580960183757325,0.1819354324167497,0.1992031870151747,0.25912147184459045,0.35800532403028296,0.47630688458998804,0.5925102345614484,0.6907886258667535,0.7793559898049436,0.8385105459669173,0.8349514565935401,0.7310577881925076,0.5935197631924574,0.46562109464833146,0.37734089095322165,0.3569622176344893,0.37371584125718904,0.42081391974161697,0.4347728156123303,0.3933170540146742,0.3229095423723658,0.30350744535833574,0.3476098323823571,0.38736227232673404,0.42636736228863903,0.4548145229388192,0.46242640578560756,0.48006867505763307,0.48057038725946644,0.48057042150886264,0.480558294588568,0.47592528910921317,0.46293272061381163,0.4361426356152256,0.4026328614582626,0.3976110166412994,0.37738911953533627,0.35688006765203983,PM
0.0,0.04941125008059455,0.14083921196807037,0.19728269383203356,0.14148927575444104,0.05308003584107368,0.009876749155786513,0.051277786504397405,0.12274900113720921,0.1053580399451941,0.04662997696437943,0.00522814438418262,0.02532631026225607,0.07894870064646264,0.12189307409983252,0.18526951075532638,0.2645460075936592,0.3009296015919487,0.24187487392004536,0.18580999688781707,0.1789721702146414,0.2297892058655413,0.2814641900308086,0.28674752362141787,0.2630884087854519,0.2980105978940206,0.38116195521283514,0.4287838570317999,0.3464142429175747,0.24984091089958937,0.22212606407514812,0.2971146130822686,0.3842633146400818,0.3905252755062971,0.3557077373862776,0.3408980680991154,0.365532983829965,0.381100377947738,0.43831100102371146,0.5043335529080153,0.5391467565456289,0.5084420948349826,0.4518721653625897,0.41482750469504115,0.39661986553672435,0.42044969586027436,0.43399929598078435,0.41913162061314946,0.38568862729240205,0.3848518299221455,0.4380183029144571,0.4863883687745032,0.5029910363019869,0.5180888013675427,0.567337471938719,0.6557414068969116,0.7514309555391914,0.793319453930291,0.7044350612931143,0.6040467728192724,0.5053304390737532,0.5027176447230404,0.5897218529829691,0.6680465243491365,0.6870454919780191,0.7014700194978443,0.7217899703277828,0.748712804038516,0.8054925649029125,0.8592345569977868,0.8981128723839569,0.8578613332773615,0.7865647708034214,0.7068206571562023,0.6527481967526128,0.6324810622491182,0.6128978135988752,0.5627256999561405,0.5082502545730696,0.44628558854203737,0.39252567068111466,0.38733967975910844,0.40490804259361823,0.38026428886405883,0.357169591907319,0.3873303588526582,0.4867365570523483,0.5693575225511003,0.514327491585604,0.4090667324482,0.3026881028794155,0.1993510766353821,0.17563940412562973,0.26438811744902857,0.3459411404439692,0.34217814445735373,0.3097883310078666,0.28985832086680974,0.3011216946732014,0.3429666379227303,0.40971187569894685,0.49499197899459846,0.5620874258741404,0.5584619279666838,0.5015284513524514,0.4471080237349021,0.4205641563423126,0.4102029458539831,0.4324753545981892,0.4248875697717538,0.381865908302915,0.35935102558046106,0.3878048797467315,0.41384708454459807,0.40462774876588714,0.42231374381521913,0.4984205559645991,0.5977558902711508,0.6171087743857866,0.5170599501844353,0.407636232332802,0.29992080008723,0.20283969349948583,0.1972546931818111,0.2846916057027924,0.35037532558950746,0.3462568003116866,0.3666962355105632,0.39949607978450263,0.42985515007898734,0.3967854613643911,0.39625218641226034,0.4955834638754295,0.6033199921785775,0.7086868358745098,0.8092461460852141,0.8505210686952265,0.7738396894799973,0.6744080461237734,0.5936956621702207,0.5010824123546715,0.45625463056570625,0.4588475288843039,0.445987819986581,0.41120260100287265,0.43200879737092013,0.47409089081463884,0.4862429415318599,0.464601781018799,0.46979839825736036,0.5104967275313839,0.5735557391595618,0.6285383494984638,0.6233923066868572,0.5761533667944203,0.49507889545153727,0.4077251887205011,0.3592595382985775,0.3373810188203139,0.3561033610578721,0.3931974661975586,0.4291625940016779,0.3966139637107031,0.34732872372744916,0.4249925008602493,0.5323030333567882,0.6380816364955453,0.7420191519214736,0.7944476848747737,0.7187523462609042,0.6116631345327495,0.5093198359944622,0.4275885391394243,0.4255256234038498,0.45580719132580727,0.4613856327384225,0.4474439603537781,0.4967333053641103,0.5606709465806854,0.6111420245602845,0.6588622470129724,0.6828688068498909,0.705835510053439,0.7585679229706548,0.8367149636640545,0.9113364934704649,0.9625634533352607,0.9393789825085772,0.8895735344148372,0.8365175229510236,0.7826172491427927,0.7666644582798177,0.7473682509144122,0.7536595804075188,0.7342458856308376,0.6919538347655081,0.7690723663402212,0.8764743599433631,0.9759764139597138,1.0,0.9192520132227435,0.8166798384728389,0.7151746064128086,0.6157691600413608,0.5694867427577153,0.5457781561573629,0.515941580605281,0.4555814840532477,0.44864694223112567,0.4829287907923008,0.5025416426365843,0.4773108573212661,0.4564069450598791,0.480426395767771,0.5334481814634873,0.586887639329051,0.5984883069857809,0.5619648758163285,0.49669162530367306,0.4411000165798775,0.4081082832856744,0.40127463409336395,0.43708074727117197,0.46517765644145603,0.4386821043632776,0.3911461528244531,0.46143190713683113,0.5628636704746377,0.6249524015596344,0.5607405748478307,0.4640528816791072,0.36751100403523296,0.32492095812927246,0.34869884010813923,0.33264567135852285,0.28619327938075445,0.23400121517678585,0.2532251451476393,0.31626433308706137,0.38804077730344755,0.4823849655802066,0.5188521191225361,0.4332409871580052,0.3249343761355332,0.2386740589735874,0.2516998713923013,0.19949730567364732,0.16131877513037018,0.23714479951459078,0.2959700611467282,0.2595129187320242,0.20383039054096574,0.24892942605607304,0.305431405544335,0.3219414627724886,PM
0.8280459523740109,0.8458440833444685,0.8552628449828052,0.8529658724449876,0.8437647168821762,0.8353112393617215,0.8377719333131108,0.8470627188726743,0.8560280219204004,0.8602380585422611,0.8688187809331425,0.8776266378376549,0.879716831389088,0.8794374933381433,0.8724337088562459,0.8697358147952032,0.8892887199773807,0.9177546022208827,0.9333391992369373,0.92921959413012,0.8749845820981152,0.8067064167340252,0.7364836436553297,0.6616000260439432,0.5866488625050552,0.5116976989661668,0.43675340133127194,0.363809987507981,0.29722051435696417,0.2231812571485592,0.1482673211793688,0.0774143309442421,0.024204794583411182,0.0428654022184205,0.10944105993622744,0.18421521865232804,0.2569866799493228,0.3236657623927015,0.39778843172183076,0.4727390315626159,0.547656384221372,0.618953734302373,0.6866510221843898,0.7612539930124296,0.8354869644152341,0.8965699559832496,0.9084401672163318,0.8916758549200254,0.871214075507277,0.8500423520090135,0.8266755164369601,0.7993497553005966,0.7613970623734534,0.7118731161320104,0.6641252320635027,0.615616608690424,0.5776624253365408,0.5736850392356736,0.6146177499222358,0.6671320023270988,0.7234703623066172,0.7745448248569669,0.816982079758221,0.8392495880380633,0.8463423810107353,0.8544215901989549,0.8528899686084346,0.8497214161725359,0.8461182193582388,0.845856826173067,0.845440101970939,0.8378274557656396,0.8309159969716047,0.8338491521909517,0.8345670988248441,0.8345676550731951,0.834661130057456,0.8398156347446273,0.8489297123620061,0.8542508882362243,0.8405644551310723,0.837321774747225,0.8620012385978686,0.8869857421616429,0.8908859907351352,0.8784836161833343,0.816479403340501,0.7416423790731386,0.6667321348365132,0.5958656365959494,0.5277998537578528,0.4531268823595864,0.37836896053656965,0.3097535320625966,0.23949716773702834,0.16461914777161923,0.09180409217035823,0.027846961168557227,0.0,0.04890873202772106,0.12267208567030163,0.1947933596979834,0.2618404923757107,0.3362510980542468,0.41120204555024964,0.4860103968718841,0.5550293975918881,0.6248532158072564,0.699712453088398,0.7728047921210817,0.8363236110642811,0.8643244783917137,0.8510954424848745,0.8357531126825166,0.8223764339269564,0.7999474051619455,0.7723636024322973,0.7330364673643988,0.689539302883118,0.6415488305851316,0.5976695787976398,0.5823050481600012,0.6126432795292971,0.6631552953081992,0.7199023626558076,0.7711074609157156,0.809989308449389,0.8237205090195538,0.8324971130503567,0.8417687611758313,0.8478540656009927,0.8453640368571025,0.8369166825832834,0.8410601514336489,0.8468241059546828,0.8553428360573261,0.860533257325931,0.8759355998143827,0.8942372583820415,0.8893040389148912,0.8835337558824203,0.8796127069378166,0.8714382818165185,0.8733283708620505,0.8792680655523049,0.8817825069075835,0.8802389361234815,0.8707713731486502,0.8585556233127452,0.8569916417644143,0.8400105494144205,0.8038048637454183,0.7504590634794037,0.6968477831309103,0.6455713825638538,0.6269305267925196,0.6699870687599301,0.719113902713288,0.7605826700618215,0.798676325947328,0.8279471913020309,0.8482023152693949,0.8624850373338893,0.8766980148550916,0.8934852047587871,0.9117512394390401,0.9134098533790578,0.855876250338554,0.7888378803171925,0.7143713491394246,0.6400408030994855,0.5897556133417903,0.6297471863687085,0.6957426736721604,0.7695396929661484,0.8403532270757845,0.8998261122212063,0.9275096310909616,0.9262609781256173,0.9167375500308936,0.8950542120524145,0.8679733123057471,0.8768287423561982,0.8933915283450442,0.8878674576319046,0.8726399976417278,0.8643748712796084,0.8648702491386753,0.8656926622179228,0.8619951400026526,0.8634522992783011,0.8651335418357853,0.871226194437174,0.8769370022050536,0.8751158055847335,0.8797913228746488,0.8841871827331569,0.8842241497023562,0.8813905283136196,0.8734843620870443,0.8705982307310951,0.8490322746809615,0.8084285366852446,0.7560646287658477,0.7043412962232489,0.6532099168806489,0.6143765715782077,0.6431700405736516,0.6926134851939467,0.739594826935696,0.7848314943413124,0.8245218877131157,0.8526922259561485,0.8762615909748366,0.8968682709709681,0.9168289904562923,0.9358840671740853,0.9672329275436464,1.0,0.9626705959893127,0.89796561538467,0.8245596796668697,0.7502360539550057,0.6832802378431391,0.6109864698566816,0.536048322126452,0.46404637684619554,0.45715885455830274,0.5270658859711228,0.6017031074023567,0.6695631966499043,0.7406629498968671,0.8152920169355973,0.8831645594507191,0.9461775465070688,0.9681938004612034,0.9628023821158442,0.9525108524875057,0.927092153833805,0.8999589578937217,0.9068178344047426,0.9123175659354201,0.9069905154100151,0.9067478476877353,0.9019746688983765,0.8956789784787658,0.8917752857118264,0.8825101145939225,0.8738161140284644,0.870397588857216,0.8720006384441665,0.8809293662372881,0.8842157584342596,0.8831481983799578,0.8733838008382475,PM
0.4045467953759614,0.4467534258377719,0.5174276254353769,0.552149799410949,0.5499960762829788,0.4722168651565348,0.3778749550330609,0.3033113445092024,0.1989307001212981,0.10505412904447331,0.04113271007329766,0.0,0.02073776022914764,0.07573110669909155,0.14815362969917567,0.2069987002194731,0.3028059819974098,0.358230886338315,0.40037023925150406,0.4974229230523992,0.59918321741175,0.6990107400223002,0.7897059936320643,0.7493433597168218,0.6529930831139277,0.5613159431916932,0.4961051431750736,0.4696963782577397,0.46198525679527247,0.47374052027409785,0.48354210888636695,0.488304952757626,0.5275160526888487,0.5648171336563008,0.5790541759330732,0.5586298077457652,0.5527991818083366,0.5527584336788687,0.5522798833245548,0.528479830256205,0.4633392920581607,0.40932810933383346,0.4188712914804764,0.4766338654642328,0.5113920898151729,0.4934137371180096,0.4096795796184405,0.3183635292579545,0.258659770441132,0.3110802197601976,0.412474459738843,0.5135123759656834,0.6116893802813053,0.6552602750181213,0.5718448783774961,0.4820218756644512,0.41941856766873453,0.39497333666089895,0.3839005368286075,0.38588373590544656,0.37058349341368313,0.3924892425400839,0.4188833626877275,0.4569045933244795,0.48694669165980864,0.4937478440582548,0.4944986838499883,0.5061614541465391,0.49746326031031973,0.4898217356956245,0.4666365789422793,0.417028406280878,0.38514560309384915,0.4401021428388403,0.512875345018093,0.5577024971427473,0.5396894558363372,0.5040884182169845,0.4109706607081818,0.3355966356386295,0.349679481993991,0.4307047811180018,0.5154833739314517,0.6259787901206315,0.7140978876824997,0.689212762626843,0.6070459718833043,0.5514181794084316,0.5328068700861461,0.521769504887541,0.5267860625710727,0.5158930391316168,0.5392968848706348,0.5835035635214472,0.6064726458457734,0.5928566222807676,0.5651741968967929,0.5438160041364624,0.5503577982593071,0.537406927810745,0.503602389716582,0.44756944616571515,0.38320075937608644,0.37186521516086346,0.427405286759619,0.4936156788956283,0.5109125331114934,0.4665998009744148,0.3690977495086174,0.2962090441926084,0.31402218685420724,0.4210826842185864,0.5221111105289147,0.6171508885118557,0.6534644202079316,0.5687624727048952,0.4921250241292463,0.43187290490764374,0.40269288365799527,0.3775702607942759,0.35743024784516164,0.36669247736406474,0.3835534085945742,0.4196035411792036,0.4555405216132966,0.4798941368684404,0.4800116201131348,0.5118701210273269,0.5452343974031901,0.552569135174354,0.5447159143265456,0.5671782533134131,0.5991120357747781,0.6119331535919939,0.6127867892295296,0.5787895588649259,0.5481368231353096,0.5389316208396351,0.5123232063694036,0.47136756414405756,0.4364061138664428,0.4186640170718796,0.4245130066155225,0.44413442679014414,0.466750681809299,0.5124153648754652,0.5960536243955636,0.6927227058307186,0.7970461603797854,0.8759600572307811,0.8563502882927065,0.755317618894169,0.6412774440872395,0.5350797224553836,0.4703465074622408,0.5281808064142997,0.5696455288427709,0.5686371383605815,0.5584060361247949,0.5043943749420206,0.45549977002758535,0.4921488704025925,0.5520049890468872,0.5853841352583591,0.5992797329603285,0.6016443360223009,0.6229337716431269,0.6553157361423136,0.6706953601824193,0.6699873867641966,0.6393868030697178,0.5970149885545162,0.5806339233071993,0.5871724823107454,0.5996219121220272,0.6196780817169656,0.6926388793295448,0.7822335227937356,0.8842479599419377,0.9695474651286515,0.9559008419754731,0.8464293123107662,0.7359280831396795,0.6399866033449904,0.5416541448948888,0.4751661836263281,0.5416661250808179,0.6054355352562721,0.6132256048075058,0.6108363121759215,0.5609537251062613,0.4984632448749795,0.48811980554424306,0.5350081065955732,0.5573855997327932,0.5540176561020496,0.5595437482597019,0.5524857092554738,0.5547823025396088,0.5423832204847785,0.535052784968272,0.5058282211200926,0.47094652638752654,0.4426622959672444,0.43816692002318414,0.45238052126629924,0.45546074950569304,0.4735937455955983,0.5360751356665894,0.6309550664847485,0.7426735924103967,0.8444837956109672,0.8991359956510983,0.841341783001436,0.7396269537563875,0.6307976249596825,0.5317030952305553,0.4553241106025041,0.5096565609881125,0.5573135801760705,0.5658925252933038,0.56225334252869,0.5031394424163813,0.48309268615484324,0.5384683034439006,0.5899862427139295,0.6052608170120242,0.6114208565409367,0.6042262047428566,0.6120353454768055,0.6255720873502977,0.6367339106772429,0.6172611606340341,0.575760988129205,0.5501690048287267,0.5479275169953763,0.5348571842579628,0.5413066405668507,0.5703761889517582,0.6454334269926427,0.7485796674776966,0.8578128252131956,0.9585411205591123,1.0,0.9280908754420074,0.8248337928227127,0.7195933972639899,0.612154353676452,0.5154821726536603,0.5583639322172953,0.6238445244486313,0.6235937875502056,0.6064601383490569,0.5589452533398824,0.49380728636899907,PM
0.7333653624404719,0.7245926370373863,0.7240207821325444,0.7240204641519781,0.724019844527005,0.7230739155528711,0.7024187505514159,0.6751290010375341,0.6547321877380794,0.6612260084517829,0.7017508551054834,0.7269293803580523,0.7231357506421867,0.6550663130257814,0.5758364802024558,0.4923890662353012,0.41218884259781086,0.32662963194047734,0.24774078318926818,0.16034412431200917,0.0769808363130251,0.025534442612997754,0.07132646031081524,0.14976359130671768,0.23471973754281694,0.32227164986899837,0.4013597831346196,0.4869803147425169,0.5747497442572518,0.6498084884867619,0.7148357717855571,0.7557499122025702,0.7242320905093629,0.7084611398519804,0.6946982353137767,0.6797271043449951,0.6607821066905322,0.6313226488020662,0.6039929065309662,0.6086156871778399,0.6483150557121298,0.6859679814503092,0.7101089475453266,0.7233613587193406,0.7342051715289193,0.7369474413413326,0.739016011086632,0.7486620999738216,0.7498847561181994,0.7498950377528804,0.7522094944374653,0.7537053860026872,0.7298865798182854,0.7127722262940086,0.7304075954959068,0.771684039456507,0.8006404425433904,0.7960591406036577,0.7245849444006542,0.6456027288099007,0.5603771434637081,0.48153572493392494,0.3947475016498698,0.3152255349383899,0.23029771490086737,0.14590390496078243,0.07633358784914335,0.08714504788896593,0.16545587230183312,0.24407841366847682,0.33071061793469725,0.4180165048074871,0.49682645966927774,0.5829823062583119,0.670579950114683,0.7497283791181646,0.833351359593578,0.8626440099418766,0.8124776050242799,0.7825709616039078,0.7710201982593001,0.7595084201934688,0.7393394423586335,0.7120067646084531,0.6707456915661596,0.6483413708210235,0.6694520395531871,0.7113433718987814,0.7415085890151696,0.7617456019545172,0.7734648806024573,0.7693191862114901,0.7520909024395519,0.7479726093315877,0.7383047634806834,0.7369556061379807,0.7369513519108342,0.7353139387064487,0.7133946259572186,0.6801583690109805,0.6633754140384727,0.6857583905031279,0.7233937481455164,0.7385517641365928,0.7093331821523585,0.6299028112103935,0.5512118647758935,0.464341779355236,0.38296029733686954,0.30019169653234745,0.21308664438790537,0.1343254869414925,0.050199548341371525,0.0,0.04478191237470974,0.1304801003979459,0.20941430217493995,0.29526703745148875,0.38363714181486075,0.4687995724380596,0.5481698707098628,0.6358424031319507,0.718241666420389,0.7661591908122722,0.7347059431556229,0.7197400052319813,0.7042036879677109,0.694248826645055,0.672555497069522,0.6388028275628588,0.6026450817197757,0.5797521842108946,0.6026480396461102,0.6456293730699318,0.6856941133622763,0.7127502695349341,0.7253346341223321,0.7513153742156158,0.7580631006485832,0.7485436008527873,0.7257264141477702,0.6899288536906747,0.6431507111060517,0.6379281059709823,0.6732482100271415,0.7056876521230837,0.7246091537983328,0.7367801859030285,0.7528469825937498,0.767140331781115,0.8260761562904446,0.8864632432282162,0.890518051816704,0.8206956289705167,0.7414133870367028,0.6711363857462831,0.5972829803481363,0.5183178972014366,0.4486616937842762,0.491085389732971,0.5781740050228616,0.6577593350375603,0.735980889544996,0.7925484328421821,0.7870169535252445,0.766688675565987,0.7391522716199566,0.7100435901769289,0.7289176269074242,0.7614403295966867,0.7798362406075734,0.7809240529135928,0.7807837827934554,0.7771190411697582,0.7803241647034405,0.7877655364529126,0.8050977333663969,0.8111674976980336,0.8068417170547697,0.7946076967082174,0.7680310674880464,0.7356451846017822,0.6957089492607711,0.6980041151117429,0.7394689643776906,0.7686814683774084,0.7901025161526762,0.8044815129892857,0.8177212611469549,0.8421017097715868,0.9022206520362861,0.9720112205629134,1.0,0.9500667589582288,0.869376657762881,0.788259763008667,0.7053709639693593,0.6171159138517917,0.537316095991841,0.5396961471097232,0.622839546069057,0.7091132410724295,0.7866532413418246,0.8513032611617692,0.8577138790629739,0.83587313239605,0.8069919308298474,0.7644367680990265,0.7542093346103331,0.7783093503632927,0.7930071958762213,0.7908222047430034,0.781627141096704,0.7809251856937958,0.7801565640919232,0.7709561608653255,0.7680065292045146,0.7674518783587065,0.7577455439173137,0.7428997663193977,0.720310505916181,0.682412539901811,0.647153541275876,0.6597825477087453,0.6904434045187582,0.7101913795680135,0.7264228509849455,0.7396701293469077,0.7558686097947098,0.7994176697153028,0.8660285796708806,0.9002083754552568,0.8544137057968433,0.7720119929249574,0.6927368334367565,0.6074559972535685,0.5192965627532111,0.4593853871034752,0.509832076290089,0.5915304524571012,0.6739352584458755,0.750388862765019,0.7961893061113492,0.7775274892140702,0.7575570295470486,0.7303540396792694,0.6974654345349478,0.7145269256905764,0.7456047772601733,0.7549522245333247,0.7550594382912656,0.7550594382912643,0.7550932093503371,0.7590932074832071,0.7675547308296258,PM
0.0,0.03290964501777305,0.09401526128785975,0.11527126969495538,0.14229009758343647,0.21577855058396778,0.28349625785335975,0.34849590021545707,0.42463261005052955,0.5003257514496329,0.583705307103727,0.6603791306813465,0.6520252427080728,0.5766856270638607,0.5019611017055117,0.43091399154540433,0.3820440535372902,0.3810046021436184,0.3907164248037067,0.36022400746080496,0.308477857011094,0.24987527765438378,0.18837197605327716,0.14154971399452654,0.13455635762428053,0.18133118422360717,0.23057632833246444,0.25448181668668957,0.2700437647857141,0.28484352502151045,0.2772770759791503,0.25718695634903255,0.2543667894922319,0.259072339423547,0.2755198848846503,0.29016937238825036,0.3001846421015748,0.3023649470985743,0.30981342780045606,0.31391141926893984,0.3133774076926237,0.30329376579339984,0.29136248501304385,0.2943224563929172,0.276942331382084,0.2157757826150164,0.16353815161293772,0.17737217613888134,0.24132811857648484,0.3016694292294697,0.36463289779448216,0.43719922818135837,0.5193522520067901,0.5945100306304325,0.6337640675223817,0.5757705960689021,0.4931581027501726,0.4182506447860068,0.36856297009583017,0.3772585707195506,0.4180625522503587,0.4207803087204125,0.37089838017094134,0.311157433445197,0.2528456227426996,0.1982387038152429,0.1576762898934363,0.16881708702433795,0.21677528716208028,0.2626587739452082,0.2884437983564341,0.2999380963558602,0.28949091235637736,0.2714500699386877,0.2701566636810535,0.27779275538315273,0.2791087722682204,0.2906261121071818,0.3013238877946294,0.3020678293199546,0.3062905874931965,0.3179147018258961,0.3251270649225695,0.3159693652618458,0.29959240067434,0.2904878027683251,0.2900893692480937,0.288379394278484,0.27947590451239623,0.27887711303656104,0.2873236418470928,0.29007920871581705,0.290103413010921,0.2929074227102373,0.31600366486610887,0.32763113752608386,0.31860498658912406,0.3034248358606222,0.2776954937770961,0.21425157327612943,0.1531905420054871,0.1344983948901095,0.18436768852247098,0.2520700638920026,0.31187854662664294,0.3854313078315612,0.46193244889353213,0.5455899058512004,0.6289305944757806,0.6749350658180568,0.6314921854176587,0.5618686778727522,0.48606105694831125,0.42090110236420575,0.39031617847714806,0.4093155355379774,0.4361308505282504,0.4106332060217417,0.3623347933835319,0.3732335913592144,0.43465694245163533,0.47023903870459094,0.4628257439236667,0.43800842545807894,0.4558140342962389,0.5302405382337523,0.6107459122076291,0.6859405624779185,0.7608542149541582,0.8399010962707303,0.9142267880434249,0.9728269034272383,0.951117163641424,0.8742194972265325,0.7933107860239716,0.7176216858526066,0.6342483438662763,0.5504157075898326,0.47245331947992675,0.39415563188423963,0.316483537439179,0.25928697055796857,0.21173274898639027,0.25134144643832457,0.30894852292660957,0.33189486936112544,0.34628875579180596,0.3618445841899076,0.3628524376439173,0.338499660555065,0.3223850775309476,0.31875303614678896,0.3186313292286047,0.31353218150629747,0.3122821546161969,0.31745081434409417,0.3187527264281922,0.3224136106293689,0.33044527813172286,0.3401030602078099,0.35884161104783274,0.360195329178854,0.35003807248500873,0.33825895668392825,0.33092558000463357,0.33064797034909654,0.32774593694089993,0.31052473445444106,0.30681161339751806,0.30710254758360467,0.3173759737773225,0.33446934550338425,0.3397860201140417,0.32535953677344986,0.30053179785672013,0.26090648562209573,0.21370233856074683,0.21710961485121572,0.27204905087336306,0.3289345065981917,0.3853607973004296,0.4392529333339099,0.4682421160034371,0.4559846625859332,0.42025818814613114,0.42148571249585,0.4890036699693532,0.5626838685703159,0.641486552778713,0.7164212075661087,0.7935580069982473,0.8713762757215142,0.9536754461140329,1.0,0.9544721237232361,0.8801197713806017,0.7970615525894478,0.7131133936962244,0.6328027744151674,0.5566316592770377,0.4739462341813949,0.40030349508187557,0.33410435539080297,0.2701295044422234,0.25126616675828517,0.3070997016918684,0.33743646014627915,0.32626080453422923,0.3249364873006857,0.34514659313807927,0.35240387870418655,0.3437332881493673,0.3414174728437094,0.3327745966155986,0.3355897459861459,0.32695257454384485,0.31532288061129443,0.2994386031894962,0.2901145323215504,0.2881866110095479,0.3092321205783435,0.3177773426905026,0.3085419605233777,0.29589555894955777,0.2808849816233645,0.2465760987959471,0.19471906090347813,0.20176399931153943,0.2557321322507886,0.3162612883709146,0.3731437016651,0.4164433677766395,0.43154116355026595,0.41657614034464663,0.42760102547761436,0.49269524036521606,0.5571299452032576,0.6221143300664136,0.6984068340857026,0.7737943183890996,0.848609236684688,0.9248296691017437,0.9624855311396758,0.9160564275575225,0.8342525271136676,0.7502769410780377,0.66629678500464,0.5823466832681272,0.5019856889902208,0.42628035266829256,0.35259464105292126,0.29479841091174497,0.2438991038580387,0.26871083901115744,0.31207170204760026,PM
0.8520091681637139,0.8498341164996304,0.8080316218488437,0.7974749140418385,0.7973808868933783,0.7973805400959915,0.7963727993175116,0.7692431945300204,0.7354688357660488,0.7697055031563731,0.8186376181549,0.8402944660129572,0.7960770774289365,0.7013643927375788,0.5973123554629263,0.4924412300552583,0.3860820300849612,0.3046973782818845,0.20116709158593116,0.11130509350694018,0.11309860580829811,0.21780339053022946,0.33304906686400493,0.43719903092646994,0.5495171387156046,0.6600264195393057,0.7654166470955026,0.8648096009133743,0.8710045484947222,0.8518535244556258,0.8486385439938786,0.8492026803962052,0.8594425943263477,0.8416975727003773,0.8044980629481935,0.8056736227270878,0.8163976556095967,0.8241052208026631,0.8239260839083524,0.7988422662915582,0.7466455927293305,0.7359409379073862,0.7758228510837255,0.8080906908246761,0.8056035687074652,0.7290599440788443,0.6279047663630144,0.5215267751965373,0.41356333098282416,0.30746041828909876,0.2032532435962322,0.11115233270813807,0.12274840567964596,0.22061763578631277,0.33152772369353967,0.44348059433897147,0.5478534902983965,0.6621319457136248,0.7658551619483247,0.8615328127804682,0.8617710020032945,0.8234146598817538,0.7988634776761567,0.7973928333877018,0.8004695388415684,0.8092402236918246,0.7759047303509594,0.7670717017505329,0.781291340751697,0.7958495566502983,0.8047389523687718,0.808470416126196,0.7658718102793571,0.7380292616029687,0.7645150385544381,0.7826084978639503,0.7548370799924573,0.6850259800307552,0.5815531464606907,0.47836869992789177,0.3686227124811623,0.2650567457658215,0.16101752623938337,0.05755904204662121,0.0,0.06356801430681269,0.17485243276172557,0.2809605058122506,0.39069090805394424,0.4996246956264887,0.6060437120857416,0.7113559795446078,0.8017882576299455,0.7978047628055802,0.7620240338507878,0.7515379186316067,0.7668365048508843,0.7689699989548715,0.7773558448674551,0.7520556289431499,0.7318882298566005,0.7437419410863848,0.7458703199161021,0.7365469433721548,0.7186182635483678,0.6851226918173978,0.7058463714175844,0.7485867769940584,0.7850741272702488,0.7657669519997423,0.6721355185878908,0.5687719251102044,0.4648559076624714,0.35674348735269756,0.25299983846333696,0.137978604157456,0.03327758154164506,0.02152994771492356,0.11540768473900975,0.22105034677069302,0.33348718074268957,0.4373461557193097,0.5515645352239336,0.6559606577530981,0.7672293399206391,0.8528358251328494,0.8454162434351344,0.831935406111751,0.8261616611258966,0.8221972657491476,0.8466369293087532,0.8429049299335687,0.8040864960862213,0.7974128265966671,0.797380886893619,0.7975289969489974,0.8114054464937115,0.8370331723377626,0.8383773663545306,0.8384729482252289,0.8475611138711119,0.8886587451286303,0.9094617343892444,0.8894046804939331,0.8741911529025654,0.8773774090520927,0.8825871011771969,0.9202963753518194,0.9647475450428966,0.9158404817264669,0.8157436998025789,0.7078000765798267,0.6007455605779564,0.485668510928591,0.39900585848546255,0.4452197190241858,0.5490872172306198,0.6596168954525425,0.7690651262440844,0.8405225699444543,0.8394113313559162,0.8120251214126282,0.7776144561883376,0.7519959575421646,0.7808735041782522,0.7870976940163352,0.7871316178250409,0.7869190162733566,0.7835466761817469,0.809557027543589,0.8340767395343267,0.82594903283203,0.81601273424925,0.8066193940714768,0.8296227637866975,0.8701883676252069,0.9142960522409802,0.8642148270899344,0.7618023426275529,0.6552329712177136,0.5465139261669489,0.5014699441426114,0.5878949053914613,0.6874449511959386,0.7763531771594563,0.8141397326633442,0.8299076166849262,0.8278209355063759,0.8010564754304532,0.8356576199717778,0.8647199587786387,0.8618936276388269,0.854044972906554,0.839815154419044,0.8241593251219466,0.8245195943828048,0.8645005368150973,0.8630662746084781,0.8580992093425373,0.8526666623392547,0.8609250589173985,0.8762338212231451,0.9238296197107676,0.9839846522394105,0.9766204111528731,0.8905561610886532,0.7845508568677997,0.6786461226679386,0.5644231812487681,0.5223974818874746,0.6096842477390578,0.7135113355176337,0.80873930803727,0.8746398323418756,0.8719066327189355,0.8416915644784635,0.8028056318784502,0.7903619306601604,0.845932112443001,0.8716837157251938,0.8723359790787586,0.8636834650225103,0.8533074345930416,0.8537200147695967,0.8931340963572989,0.9046535640110882,0.8920425184378984,0.889667147109491,0.8951937052737704,0.9308819480094157,0.9926665414085134,1.0000000000000004,0.9139198719463013,0.8009498179745278,0.6978404178846338,0.599095865209772,0.5132747702481537,0.5220191430652026,0.6209947238957167,0.7250783056400163,0.8208581499643133,0.8890528631441517,0.8990844890806091,0.8812161898478319,0.8456005634001316,0.8055613780676709,0.8292668091625282,0.8525043289675449,0.8557241589210047,0.8421736696255935,0.8442872905285426,0.8415030646179749,0.8725368115724992,0.9133257030832618,0.9113012297304977,PM
0.1753632581559199,0.18452083341266245,0.18080136810058023,0.16551985878940223,0.16655437320055388,0.1958995057437809,0.2160999572163671,0.25277235203859894,0.32198684375642683,0.3976455134135133,0.4704386222006691,0.5430085207302309,0.6188457158277805,0.6945873919652561,0.7747799079732536,0.8486178386185328,0.8687495126413469,0.8007417796017933,0.7222263857591091,0.644968317239619,0.5665555688349415,0.4922782574144944,0.4286804448739978,0.3571018608575709,0.2857514117937172,0.22043126375758537,0.1631037868390619,0.1252645974225426,0.09755717596850166,0.07551223000887597,0.07099032017541473,0.09377367341493881,0.13452733504889625,0.1811237515693005,0.2311552034264115,0.2478294792377207,0.2110274900896183,0.16846121682209314,0.12957757369288903,0.10951784415477461,0.10363512286946741,0.11553804898013209,0.11752354149742361,0.1128938616569819,0.11789272305778176,0.11943700206724484,0.10665214852094373,0.07938368907917881,0.06662069657505221,0.08504229741150993,0.10507495522866139,0.1163802453350824,0.17141657113294118,0.24343251839578306,0.30468612692955777,0.3735957105868193,0.448540444979151,0.5255942357407224,0.6027360712131875,0.6803059647712342,0.7535959718750869,0.7532334017273219,0.6789954660443485,0.6027450704423236,0.5222477500293565,0.44606578050332724,0.3637772521904401,0.286819340134963,0.21392834227288837,0.14464522228745147,0.08998982756038765,0.047388986936497624,0.01663656044935813,0.0,0.0008221234826997215,0.018065831380109643,0.05744770891117823,0.10484644089963235,0.1513167940167517,0.17540613482215872,0.14774537670391674,0.10562804211580157,0.06943765079053743,0.0670769691836075,0.08232416375147866,0.10460130584705096,0.11687820618852718,0.12344374437560202,0.12827297713779728,0.1324249124121215,0.12722695075072243,0.10673423412616123,0.1147250504572408,0.14412136415515553,0.16767825039077788,0.19368244996089667,0.2560898228641164,0.3303169916044766,0.40409096848427084,0.47697615568792395,0.5517825957865066,0.624968139439686,0.6814725430364228,0.7465267224661738,0.82193824207158,0.8403723116227102,0.7703580179596248,0.6914054083046071,0.6139265836263124,0.5366749989715265,0.4588929164009048,0.38426797108382904,0.3116269021741238,0.24268451125267032,0.18432777655468646,0.14241494463333249,0.11022227101487991,0.08730818110923155,0.08110401104354836,0.09834492484115653,0.1375976229108491,0.1844406542605015,0.2345701779988616,0.27504220424697423,0.261576572531772,0.28647646869024457,0.3154979589401108,0.29232840788546444,0.24271428192414923,0.19367668957883155,0.14586831718696147,0.11396352258435316,0.1134843616565322,0.13294088164534612,0.1657089621922354,0.20534523723067988,0.26788967796571805,0.3401815860615163,0.41464880244145097,0.49010654076865623,0.568892803676897,0.6452246580690248,0.7226948246082063,0.8012852376088602,0.8784790873602693,0.9538158226203901,0.9802815955298856,0.9242795382353117,0.8592577913219483,0.7819602312659883,0.7094649953296481,0.644564878960912,0.5701075713539558,0.49569136210408926,0.42172238234793746,0.34775729356397633,0.2742646827101527,0.21139431527305508,0.18785142203106897,0.16067484288045097,0.13984937536330855,0.15671166321008356,0.16367824941898879,0.16148681829321632,0.15765294356464699,0.15056373824523628,0.146762309930492,0.13375811418312722,0.11292621706253891,0.0959636751607762,0.11514617240797342,0.1542415488587674,0.19364015119006805,0.21450573204661993,0.18721124134838973,0.14426404902043122,0.09380474711190168,0.05042997214532985,0.027460866496776815,0.029592846213373214,0.05062267349944616,0.083876070987142,0.13511582531617972,0.1983106691701646,0.2699294979786975,0.34374628201299773,0.41957346967802667,0.49833749639942004,0.5745203711432612,0.6533351828431253,0.7295248357976303,0.8096744174783437,0.8492769399571314,0.8083696326409511,0.7327410382355177,0.6558012378262883,0.575944661678069,0.4998355487039945,0.4240448249078004,0.34354390610931995,0.26802380154946515,0.1962810922480147,0.14738261439432088,0.13111874070684726,0.10839408203490097,0.1026647403710017,0.12829856751795954,0.14639947174429668,0.14935415482349312,0.14270153383803463,0.14218781266899372,0.14192183154936444,0.13623316590938495,0.1397471362829834,0.16469359744715373,0.20640678050639494,0.24859340330812807,0.2842907505178065,0.27535045403280267,0.23211700368513966,0.18401041478126445,0.13757528011118758,0.1023334066274848,0.10215070933995785,0.12438920229651407,0.15342440499754106,0.19307674211438042,0.2522143237934569,0.3245480749008014,0.3983543166099661,0.4732955359827169,0.5493375763906503,0.6273344579000928,0.7041104405100946,0.7841097091552158,0.8630263426387677,0.9399717622535504,1.0,0.9747017405797163,0.9116408805526706,0.8412621374019849,0.7627888565161496,0.6864895391391701,0.6085035271920218,0.533490599772831,0.4606118073349881,0.3881314471957056,0.31322159601223953,0.2526588543596169,0.22933198309377434,0.20177067591841147,0.19369737183361124,0.20896876156898192,0.21102231664575322,0.2039392771481472,PM
0.8300230301141946,0.8674187211785667,0.8652195914146643,0.8212877115685531,0.7909527607241695,0.7733421015265811,0.7771485959300068,0.7894891614327479,0.7954297806890549,0.7929389649495178,0.7735634207326763,0.7398295882928612,0.7027566565880659,0.6886309462855829,0.7191180681750751,0.7524487381700944,0.7573984723346061,0.7740316240964058,0.8027293855534101,0.7421916373865278,0.6449957370023685,0.5505845862100707,0.463202804045854,0.3663515361075298,0.2689449466479892,0.17974712329749742,0.08775855778053354,0.0032216865014540463,0.0,0.0762704798185192,0.16681845068954582,0.2561018919213198,0.3479701843550753,0.4455948869422761,0.543190101131376,0.6344592581157367,0.7236287973890387,0.7806843308012612,0.7700623327355813,0.7614756820054882,0.754782075108422,0.7505029435351351,0.7451721037619545,0.7426515851291169,0.7662483848817796,0.8013126639047428,0.8193487647069679,0.7890184167467365,0.7607857493463854,0.7473406667627198,0.7543575231650348,0.7508630434387984,0.7408491362161331,0.7354262653418597,0.7172480170166973,0.6892247537722185,0.6706977138769898,0.6854765360618431,0.7288361358967561,0.7557426054417589,0.7698254173336758,0.7747878541066242,0.7111986376641399,0.6154385738325641,0.517737930248942,0.42099173171627835,0.33379424947455694,0.2390952632979122,0.14166170923601928,0.0559212323163536,0.03608916215628355,0.10438571381184514,0.1962667287157358,0.28394036174072457,0.37446253220020354,0.46453530141398613,0.5620453061610855,0.6597075576510691,0.7518834531607406,0.8013602862202449,0.7984805529805683,0.795287112472477,0.7846779809146611,0.7814486703653316,0.7706829839638794,0.7755876959369881,0.8052918806859932,0.8394183675042319,0.8315997109347746,0.7995307206159119,0.7745904732187976,0.7700148987585684,0.7768699811907986,0.786603252167082,0.789766329709108,0.7743721066169942,0.7552672968395779,0.7237271131755343,0.7013099091811446,0.717210583203679,0.7558487985972537,0.7837613192628761,0.7892193854181289,0.77412601146989,0.7046253889825274,0.6111546823951548,0.5137946898440735,0.4247649915041791,0.33248812707408604,0.2350111209679675,0.14556522921360915,0.09033702789544606,0.13022481485928306,0.2216072545625276,0.3086564922388435,0.4010406328079805,0.4879966426614797,0.5813237226262029,0.6685913194383903,0.7626162032552155,0.8098274686337967,0.8020609162135408,0.7871578506461667,0.7816988743143736,0.7741092223226416,0.775553410836314,0.7813558948886994,0.809030455081708,0.8467618969818107,0.8544070885406885,0.8220211639443893,0.7879276154592809,0.772573836344485,0.7992585005293937,0.8248645148153402,0.8279506712093998,0.8594748789686582,0.8948550868782752,0.9130264570294295,0.883076048990141,0.8452812531042462,0.8220422801215437,0.8257568435545213,0.825342785828229,0.8294944399386746,0.8390322131059078,0.8480109583316533,0.8667759298578102,0.8649609444375643,0.7960795756021823,0.705626999595262,0.618241705510185,0.5294996865578863,0.5295159544608701,0.6216970010947798,0.7193082107056974,0.8110277014420493,0.900231170932164,0.9800812622945474,0.9723427612663331,0.8947978723764185,0.8400691216495344,0.8249882721478199,0.8062251681578465,0.7666854898542066,0.7510937046351305,0.777584803521733,0.8053616324073285,0.823278949583609,0.8298188651745824,0.827140485257716,0.8165407459183991,0.8069950161401607,0.822559210032525,0.8458340319131288,0.8761013426274407,0.8866776729303625,0.8581376364478801,0.8228012444493242,0.8092243904940097,0.8209796818743713,0.8220073657453886,0.8304521920574619,0.8339000847143827,0.8533046036171956,0.8807896418198278,0.8348778629461553,0.7523319500730385,0.6615454883504752,0.5732719463640918,0.4913320484232757,0.5196939676196128,0.6117826747163144,0.7093387823974806,0.8004630663442189,0.8901214336795562,0.968748855546196,0.9584014522216846,0.8769286059324986,0.8226090194411773,0.8009116275977448,0.7820351967204544,0.7445104382243544,0.7113437245464882,0.7292415782851813,0.7625117330905187,0.7752832953395454,0.7850865946933274,0.7969791767929959,0.8023227877283137,0.7921174141566223,0.8028715077691919,0.8336371404095491,0.8657609553432872,0.8679567096470493,0.8333740344918061,0.7994537111219373,0.7853771683688684,0.7897706769573898,0.797782759936027,0.8004619358757685,0.8045797966542587,0.8252950167551212,0.8530332796904674,0.8007777551948678,0.7123210817227899,0.623101661740755,0.526891683108478,0.4697662073266853,0.5331971702826264,0.6224633479071315,0.7140833194544729,0.8116590696561781,0.9044627531945497,0.9849425836051526,0.9999999999999998,0.9217310674605457,0.8448315788017731,0.8130032089398582,0.8104209889102025,0.7879900216453934,0.7484921511784506,0.7500125221073024,0.7888889144112172,0.8197350853752619,0.8299788893681599,0.8455387352854691,0.842116634752011,0.8367151605422463,0.8287112281038806,0.8393915035733326,0.8670875807373644,0.9077497067444311,0.9144837655932812,0.8857747103785709,PM
0.4325951281727227,0.4747701040835701,0.5535443836778668,0.61789645385007,0.6598075122058664,0.6680863330606424,0.6210155872477219,0.5404718561285251,0.478940765991708,0.4393242401073918,0.449622484175785,0.4964470097784046,0.5523992681679633,0.6133140896118601,0.6873684632152468,0.7478733328077429,0.7955556467292055,0.8215560813591596,0.8370207094872568,0.8394216413997673,0.8443482298086122,0.8383765222747841,0.8209266405097164,0.7932517535509755,0.7916824981037842,0.8160131682772307,0.8594551955241938,0.8636396405977056,0.7898108907463532,0.6949310568480418,0.5982039479453158,0.4976163444311119,0.4042160344432526,0.3014613701108533,0.1982158102267606,0.1157517067812961,0.12855417731863406,0.21773597567072667,0.31502429486025285,0.410844125493671,0.5142815067357298,0.6124658594119627,0.7078021639077754,0.809232394905139,0.897500432733958,0.9448419652658719,0.9507698983202157,0.930225468017825,0.8956017287903921,0.8486288261829809,0.7960428042588927,0.7289274076794028,0.659765037828469,0.630753156947212,0.6679895508345317,0.7183760002891844,0.7437971262627725,0.7522503130181235,0.7525514981957557,0.7582749354448688,0.7686749854174932,0.7846241150092399,0.7686737366399483,0.7433317914761277,0.7441816175252502,0.7817699939157534,0.8041613161433814,0.7503757636243673,0.6594746858809186,0.5645140071853265,0.46761355014606387,0.3659842340122832,0.272951260540522,0.17127781271693854,0.07679571851593803,0.0,0.029581902351737854,0.11961806038908329,0.2190129463067041,0.31245109740862387,0.4152806487294394,0.5173444627044934,0.6103702279430712,0.7104396887135724,0.7785526572706223,0.8033326644846372,0.7927816102373408,0.7684357513633415,0.787798185971361,0.8346521325560037,0.796528400057487,0.744589662100088,0.704343834613713,0.7246297596448641,0.7750329393530948,0.8168984543961719,0.8365179346892608,0.8328562420775585,0.8372829225476375,0.8349234695741616,0.8280729313799355,0.832295548584336,0.809493528580727,0.7862287396881218,0.7907171316041115,0.8327957695132042,0.8451790198859572,0.7779638453143445,0.6857111908789024,0.5871117955390126,0.49391048204037924,0.39162439878635014,0.29645945152294684,0.20835470900296293,0.12524504101125067,0.04850238697113962,0.058308359564003265,0.1425333400933826,0.23814368608177916,0.33934406170623,0.43243762383619666,0.5347920404644366,0.6385350841931117,0.7418431801293113,0.8251682156060705,0.8608282302251151,0.8645119565144364,0.8446947499354462,0.819352434486373,0.7786023993898432,0.7185741589997643,0.6708208845007246,0.6736165602527597,0.7282817399435042,0.7832244568131252,0.8327671090835613,0.8608906505817444,0.8672526305043662,0.8706729696905589,0.8709793758915962,0.8774039348266007,0.8856820757500956,0.9110958495327366,0.9160919064372055,0.9161063661447257,0.9148121585975275,0.9041761362113312,0.89871808157495,0.8733558408096065,0.8249150973366746,0.7719128221439351,0.7308622079235665,0.7654140829497558,0.8169404731584948,0.8586398532461073,0.8811873381648678,0.9023182094453253,0.9134919204323206,0.8947517041768798,0.8479356943086489,0.7660951196453256,0.6724302284965269,0.5693522585786464,0.4712275400707222,0.4182171566807211,0.49188534901091785,0.5880914508656643,0.6848537028097259,0.7802693904966529,0.867556117340607,0.9079011493939291,0.8953237509709422,0.8540156002187422,0.8230284915157697,0.8419343805843362,0.8667215567358895,0.8709911405392554,0.8684962752834418,0.872984628412806,0.8769915799267238,0.8833492190318806,0.8696711880357499,0.8437337796171249,0.7981233169682556,0.7603415439870793,0.7906940721855391,0.8423613124206542,0.8935657840526123,0.8974262346834974,0.8407239311270214,0.8334727674440532,0.8433687467757012,0.8330425221326134,0.7954592702036218,0.7083811491953287,0.6050979939986125,0.5013633258754688,0.4048541532735288,0.40715300845424385,0.5022644447033615,0.5991007322825306,0.6940976242138679,0.7847509889028732,0.8468190373372857,0.8445437293123117,0.8223441117503998,0.7819157133947856,0.7913764473002995,0.8192184160442477,0.8244326372869248,0.8047684041832519,0.7990667258915569,0.7885087848819179,0.793344646849159,0.7893532772354392,0.7667981589002535,0.7230722992079586,0.6870057984608215,0.7345272892402868,0.8027616853071011,0.8616945443024764,0.9109068283626423,0.9526143340334627,0.9810901858737049,1.0,0.9966183032839764,0.9704436513128663,0.8939871781163617,0.7985812597348345,0.6986745796069509,0.6051502009101783,0.5318636565814221,0.5840777721481683,0.6848933042260947,0.7805580756592185,0.8754006589593715,0.9354329379889279,0.9247258918491643,0.8871314086455233,0.8432457113489704,0.8383455204649426,0.8653672470761906,0.8811098716020407,0.8800402129951079,0.8871477130229941,0.8827366542813713,0.8684732778414923,0.8520458149449763,0.8199739975399551,0.7694867073099405,0.7148017139932534,0.714124139457271,0.7634632116210884,0.81594934293111,0.8619208019520941,PM
0.5434787023729096,0.47495538710509166,0.3892985073941565,0.3049447367427117,0.21780582461706033,0.13389901661653425,0.04637263707323114,0.0,0.051804444494163104,0.1370213112213018,0.22845728985496538,0.31974231342255266,0.404869145457066,0.4920664686127042,0.5640241212878768,0.6343723655444607,0.7172379549826927,0.8062851104868854,0.884096946677316,0.9230737912141941,0.8811378509942479,0.8515954877460473,0.8432193960422093,0.8570899827856279,0.8899521144095924,0.9152195692234736,0.8857067728883382,0.8396088340985101,0.8147357846189739,0.8188207166394409,0.8132873607971994,0.8098541063853774,0.8153232839219363,0.8188325018662236,0.7991836583681767,0.7633205829060182,0.7503730305700965,0.7904135856343973,0.8003673274681115,0.7385873953024434,0.6570053743555867,0.5744684748794054,0.49094920439715584,0.4047110953226042,0.32059843997164605,0.23274372337609128,0.1488704706757854,0.06220155957361506,0.03690075585324204,0.10571312720493775,0.1949862870259892,0.2860716233014736,0.3706300698254906,0.45936977703857707,0.5509151031040113,0.6388560453872801,0.7239736230252006,0.8110824587874997,0.8926564331513057,0.931609434533364,0.8916804797095829,0.8662461741842301,0.8646188230419497,0.8851267923609375,0.9178132043325066,0.93338511750889,0.8930680422201179,0.8447512224761807,0.8215835752756785,0.8187598946576745,0.8092258752131686,0.8001861637874935,0.7991686541281268,0.7991274395131572,0.795422903415104,0.777794339037469,0.7422011274614112,0.7353293154927542,0.7729426044494426,0.755918383793423,0.6776653097173849,0.5941075490678124,0.5114994065449995,0.42737159933076063,0.3434385179599607,0.25432337889704926,0.1627366894599186,0.07352365513626236,0.003874315039783749,0.022839883595678123,0.10896237113119922,0.1950863957594019,0.2819684613987382,0.3734590345525487,0.46227164957609157,0.5467820460819738,0.63773270877651,0.7243747507350068,0.8078320053276687,0.8745159649108639,0.8647210260533224,0.8612958390192244,0.8781033886886355,0.902576329773131,0.934773766297368,0.9663721127712203,0.9424034995489566,0.8900952801219767,0.8569637156526034,0.8507936573969682,0.840448944849106,0.8241347346264526,0.820158699008582,0.8215684565421982,0.8285809912517582,0.8171426206952176,0.7845229934453432,0.7797689485691625,0.8198155497618805,0.8155720196528046,0.7433029087905917,0.6598743756034965,0.5754226866907929,0.49278418380096334,0.40959554794307984,0.3192486314195818,0.22785423342476274,0.1426698404724832,0.084604354248216,0.11772928661606585,0.19175017848215437,0.278114240832778,0.36384243125622706,0.4550693973542822,0.5411716241292294,0.6280803376204044,0.7173678821969537,0.8014287277194417,0.8868621780739184,0.9299369016477538,0.8940755493998674,0.8820156982737194,0.91312722228015,0.9621156118799942,0.9999999999999999,0.9552999807969226,0.8763661588285548,0.792962959768373,0.7054237568089731,0.617578545063138,0.5324016045475276,0.45327224698586,0.4752020583430049,0.5574547747346802,0.6412053093118396,0.7308194505667057,0.8127980570087546,0.8781326318980808,0.8752038953316289,0.8414576160196944,0.8156182487106197,0.84216723899143,0.8549392236486612,0.851534530864044,0.8455345862784326,0.8492561905528418,0.8655730426540272,0.8759686677805026,0.8831217322782207,0.9169782150992857,0.9671277677547038,0.9989539576612131,0.9817914807319806,0.946840852314821,0.9175775167746075,0.8973066950828142,0.9025377481118321,0.954660219571419,0.9544179909129628,0.8836290328608983,0.801513858795959,0.7182399653340031,0.6297431540469435,0.5458210759811958,0.45584822646583356,0.3652158120260637,0.32279883562654377,0.3912697995890634,0.4745564257677636,0.5581789336608706,0.6485601490759559,0.7342953198245182,0.8095467661179144,0.8312522587167238,0.8002511241497828,0.7717375162662833,0.7980874211166847,0.8212116852623964,0.8252105274719695,0.831775262478596,0.8302412498052413,0.8280224633585053,0.8381844078563708,0.8450412098355727,0.8513297933257854,0.8839722682081891,0.9359729141739696,0.9668849618374166,0.9519555824978073,0.9187995379377748,0.8930917369867125,0.8965101282846456,0.9321169072541041,0.9897700092195879,0.9912645524577509,0.9226599451179361,0.8393241936294807,0.7533206666644127,0.6618867370627323,0.5702906967250642,0.482405379201018,0.44811940011065376,0.5142198432229251,0.5831513536291196,0.6630609793504406,0.7457095223325118,0.8241436745518683,0.8629887056297206,0.8406348724208413,0.8044707275065005,0.806723219696024,0.8391949070077628,0.8536845888193908,0.8450331356961834,0.8361658119832484,0.8413699942948635,0.8452376823406306,0.8505178328718056,0.8855673985693652,0.9337590216983439,0.9545848132618432,0.9366242511142492,0.902550143285369,0.877789880961595,0.8784309627400669,0.9076115456476442,0.9659645580843664,0.9976900202204374,0.9467156967703491,0.8662549774547504,0.7796123679365826,0.7226838863361392,0.7490182320424054,0.808193713210822,0.8577739164388721,PM
0.4045467953759614,0.4467534258377719,0.5174276254353769,0.552149799410949,0.5499960762829788,0.4722168651565348,0.3778749550330609,0.3033113445092024,0.1989307001212981,0.10505412904447331,0.04113271007329766,0.0,0.02073776022914764,0.07573110669909155,0.14815362969917567,0.2069987002194731,0.3028059819974098,0.358230886338315,0.40037023925150406,0.4974229230523992,0.59918321741175,0.6990107400223002,0.7897059936320643,0.7493433597168218,0.6529930831139277,0.5613159431916932,0.4961051431750736,0.4696963782577397,0.46198525679527247,0.47374052027409785,0.48354210888636695,0.488304952757626,0.5275160526888487,0.5648171336563008,0.5790541759330732,0.5586298077457652,0.5527991818083366,0.5527584336788687,0.5522798833245548,0.528479830256205,0.4633392920581607,0.40932810933383346,0.4188712914804764,0.4766338654642328,0.5113920898151729,0.4934137371180096,0.4096795796184405,0.3183635292579545,0.258659770441132,0.3110802197601976,0.412474459738843,0.5135123759656834,0.6116893802813053,0.6552602750181213,0.5718448783774961,0.4820218756644512,0.41941856766873453,0.39497333666089895,0.3839005368286075,0.38588373590544656,0.37058349341368313,0.3924892425400839,0.4188833626877275,0.4569045933244795,0.48694669165980864,0.4937478440582548,0.4944986838499883,0.5061614541465391,0.49746326031031973,0.4898217356956245,0.4666365789422793,0.417028406280878,0.38514560309384915,0.4401021428388403,0.512875345018093,0.5577024971427473,0.5396894558363372,0.5040884182169845,0.4109706607081818,0.3355966356386295,0.349679481993991,0.4307047811180018,0.5154833739314517,0.6259787901206315,0.7140978876824997,0.689212762626843,0.6070459718833043,0.5514181794084316,0.5328068700861461,0.521769504887541,0.5267860625710727,0.5158930391316168,0.5392968848706348,0.5835035635214472,0.6064726458457734,0.5928566222807676,0.5651741968967929,0.5438160041364624,0.5503577982593071,0.537406927810745,0.503602389716582,0.44756944616571515,0.38320075937608644,0.37186521516086346,0.427405286759619,0.4936156788956283,0.5109125331114934,0.4665998009744148,0.3690977495086174,0.2962090441926084,0.31402218685420724,0.4210826842185864,0.5221111105289147,0.6171508885118557,0.6534644202079316,0.5687624727048952,0.4921250241292463,0.43187290490764374,0.40269288365799527,0.3775702607942759,0.35743024784516164,0.36669247736406474,0.3835534085945742,0.4196035411792036,0.4555405216132966,0.4798941368684404,0.4800116201131348,0.5118701210273269,0.5452343974031901,0.552569135174354,0.5447159143265456,0.5671782533134131,0.5991120357747781,0.6119331535919939,0.6127867892295296,0.5787895588649259,0.5481368231353096,0.5389316208396351,0.5123232063694036,0.47136756414405756,0.4364061138664428,0.4186640170718796,0.4245130066155225,0.44413442679014414,0.466750681809299,0.5124153648754652,0.5960536243955636,0.6927227058307186,0.7970461603797854,0.8759600572307811,0.8563502882927065,0.755317618894169,0.6412774440872395,0.5350797224553836,0.4703465074622408,0.5281808064142997,0.5696455288427709,0.5686371383605815,0.5584060361247949,0.5043943749420206,0.45549977002758535,0.4921488704025925,0.5520049890468872,0.5853841352583591,0.5992797329603285,0.6016443360223009,0.6229337716431269,0.6553157361423136,0.6706953601824193,0.6699873867641966,0.6393868030697178,0.5970149885545162,0.5806339233071993,0.5871724823107454,0.5996219121220272,0.6196780817169656,0.6926388793295448,0.7822335227937356,0.8842479599419377,0.9695474651286515,0.9559008419754731,0.8464293123107662,0.7359280831396795,0.6399866033449904,0.5416541448948888,0.4751661836263281,0.5416661250808179,0.6054355352562721,0.6132256048075058,0.6108363121759215,0.5609537251062613,0.4984632448749795,0.48811980554424306,0.5350081065955732,0.5573855997327932,0.5540176561020496,0.5595437482597019,0.5524857092554738,0.5547823025396088,0.5423832204847785,0.535052784968272,0.5058282211200926,0.47094652638752654,0.4426622959672444,0.43816692002318414,0.45238052126629924,0.45546074950569304,0.4735937455955983,0.5360751356665894,0.6309550664847485,0.7426735924103967,0.8444837956109672,0.8991359956510983,0.841341783001436,0.7396269537563875,0.6307976249596825,0.5317030952305553,0.4553241106025041,0.5096565609881125,0.5573135801760705,0.5658925252933038,0.56225334252869,0.5031394424163813,0.48309268615484324,0.5384683034439006,0.5899862427139295,0.6052608170120242,0.6114208565409367,0.6042262047428566,0.6120353454768055,0.6255720873502977,0.6367339106772429,0.6172611606340341,0.575760988129205,0.5501690048287267,0.5479275169953763,0.5348571842579628,0.5413066405668507,0.5703761889517582,0.6454334269926427,0.7485796674776966,0.8578128252131956,0.9585411205591123,1.0,0.9280908754420074,0.8248337928227127,0.7195933972639899,0.612154353676452,0.5154821726536603,0.5583639322172953,0.6238445244486313,0.6235937875502056,0.6064601383490569,0.5589452533398824,0.49380728636899907,PM
0.8980936484165366,0.882033797078987,0.8741517934276711,0.8738251159625815,0.8736684905522111,0.8686398323051535,0.869823134454161,0.868409600990334,0.8647571375218054,0.8647074804093825,0.8647186845355398,0.8669287860668794,0.8706423384046437,0.8566217279746199,0.8435705526670155,0.8379551102182045,0.8495247999748851,0.8724049252154006,0.8834950220756345,0.8858983265787742,0.8396589888837108,0.7858038958915768,0.7299950745441074,0.6706974627925274,0.6137785446072718,0.5606901184881828,0.5017387033372028,0.442385198538762,0.3830336736457539,0.32486855577283247,0.272403080108896,0.21408636705845863,0.15473707742671883,0.09660352209259238,0.04661437451102801,0.029350521662686924,0.07448745926235445,0.13355958897793485,0.18860746755006663,0.23751806092368877,0.2850168513704231,0.3437012489662492,0.4030545030252616,0.46240803641750927,0.5214521287189019,0.5748194644286425,0.6313720547534182,0.6907021381987625,0.7488167461496439,0.8006955574570399,0.841140656299968,0.853463171238296,0.8495425083752645,0.8479650480023578,0.8466452904697269,0.8518969078539981,0.862725918814265,0.8778337182943249,0.8968840329968027,0.9148011496851037,0.9039789422122196,0.8792992402269512,0.8602529848684434,0.8533007268154224,0.8472768800539773,0.8530020283949998,0.8555298684623543,0.8520437082966844,0.8468174754886638,0.8494552888527772,0.8468422503850247,0.8467178272077335,0.8513702970857707,0.8488599568638558,0.8414423588545982,0.8234744272248761,0.8063548950758429,0.8084491957538714,0.8286698604083923,0.8527041970930876,0.8640971628771389,0.8865648012028647,0.8773584960545585,0.8253571205063385,0.7700147930320539,0.7108073978357962,0.6558051395624301,0.601040281516254,0.5417845926547297,0.48243104407202175,0.4234017772850941,0.3700874340138499,0.313466319967853,0.25413418774009233,0.19492432457002484,0.14061529885604285,0.08513362785937961,0.027228581364339144,0.0,0.03867702251236649,0.09087957803412583,0.1484836601616074,0.20783123256738256,0.2671848276150267,0.3265383520717108,0.38555348276359946,0.43883294140468043,0.4955007270074371,0.5548352325296652,0.614188500865584,0.6730416526258521,0.7259027696882173,0.7812647144796957,0.8224564100778219,0.8364003146584978,0.8374174518198546,0.8413823146947056,0.846504223002121,0.8529415648015884,0.8685549499653838,0.8838014944823672,0.9067168366067097,0.9295834730419233,0.9209727344032391,0.8942034402328437,0.8788137274840381,0.8682832739142724,0.8722721250464188,0.8804851852778314,0.8829271666698423,0.8829426210566155,0.8829510078813144,0.8848453485707112,0.8914682195718192,0.8920513122325312,0.8896760708697459,0.8741540615160274,0.8570327173518401,0.8476302922391107,0.8550914344408026,0.8822061459310752,0.8984252563062848,0.9154464610129344,0.9585703809321756,0.9555805738395934,0.9258617047586976,0.9133873471993089,0.890394967093134,0.8796915241071454,0.891204265607293,0.9057888948632221,0.913603697633183,0.9139422690140454,0.9137259988939309,0.9091128594622916,0.9102018989730639,0.9118818765212303,0.9057886721100422,0.9046757330884568,0.8996016953593439,0.8963087355539449,0.9044116535674974,0.9238848402334935,0.9501680658417503,0.9630956445215758,0.9484307300020137,0.923059468483615,0.9021060981746342,0.8865262718958021,0.8769062715810189,0.8695717324059954,0.8681195118580481,0.8642189933159018,0.8636629135959423,0.8530653053240284,0.8156918329374697,0.762527876521418,0.7101103288997946,0.6522634579397831,0.5929417245210092,0.5432488958501486,0.5666045610967984,0.6252727780912993,0.6841988677769769,0.7371805074294088,0.7941506036362483,0.8491631163850256,0.9030168042945504,0.9536541070054773,0.9806304244014391,0.951351578415009,0.9077599147562178,0.8869505092367392,0.8709102800944343,0.842681788537946,0.8364512534605028,0.851747639415562,0.8690942247498422,0.8771214482578532,0.8774720064843623,0.8774720788624352,0.8774720788624336,0.8774723469293738,0.877981894740241,0.884447119418113,0.8832820846878947,0.8741780784978154,0.8750494977816047,0.8816624581829865,0.8995416003287878,0.924489576097527,0.9428492449318943,0.9415897500524212,0.9214461666667465,0.902193846227345,0.8865907016294446,0.8759401168207289,0.8762421867269555,0.8774693484072397,0.8785045564463291,0.8813636809597983,0.871734405723143,0.8367107129503447,0.7804334240799095,0.7211986272916865,0.6669696669279556,0.6408161606138943,0.6809741523307168,0.7387752080954187,0.7950937752357473,0.8486307738442819,0.9057381929593246,0.9575857758598582,1.0,0.9950828846449974,0.9461789610071355,0.9096257358068057,0.8988589075374008,0.8783757049461648,0.8625403450254708,0.8751806301565678,0.8875207977986982,0.8953362870552702,0.8910382048734572,0.8930116505997822,0.8941051251194491,0.8878228863610952,0.8935146973049922,0.8956963675460908,0.8957072195095629,0.8957072195095616,0.8958552274881951,0.9011863458761961,0.9132167595085775,0.9310368384413875,PM
0.705071463863578,0.6971590916078902,0.6781868244768487,0.7126384590835122,0.7640520911852686,0.8102764219039593,0.8291730331440852,0.8044005608181304,0.7179169450532266,0.6148075628605429,0.5141076419398503,0.3992438039138073,0.28941904673995067,0.18641369219345538,0.10038624233602178,0.11637507210299214,0.2127832493159687,0.32935711207461216,0.4464078715691264,0.5630066223984338,0.6671169693103671,0.7760059235798309,0.8715143790919546,0.8795293244308797,0.8467019437266234,0.843292471716977,0.843287000894986,0.8429027266195606,0.8281961640304245,0.7905224537816684,0.7638437451292717,0.7774747710579302,0.7803786781034425,0.7934099245181936,0.7969046664925008,0.7812957406689955,0.7799165104253398,0.7792943647813684,0.7653682461211875,0.757199289435099,0.7412124610176907,0.737677588839126,0.737667947341615,0.7376681030415959,0.7383425970620352,0.745935973291159,0.7420636830089742,0.7657551700264364,0.7849691901577276,0.780913589237453,0.7490440087361367,0.7186412573524419,0.7214120765905383,0.759171135310301,0.8176907710678316,0.8404114979268269,0.7961319712619046,0.7086570007471495,0.6051569461448931,0.5039276568417548,0.39248664101127284,0.29185883274824453,0.21067186239895408,0.22786065882584916,0.31870298364054817,0.4299548528623287,0.5315342088594153,0.647457391401157,0.7642539344503763,0.8653268956693516,0.9039165503718811,0.8896534225293187,0.8799871309197518,0.8703179979199676,0.8718606582989343,0.8598717161621852,0.83332954077509,0.803694710795122,0.7846783298206415,0.7866850953115105,0.816365105077419,0.8334947746136763,0.8231175178680239,0.8221634237346018,0.8218178606272946,0.8064190600564598,0.7809350118564993,0.763787582826168,0.7511758507023423,0.7439137377234202,0.7421781192249304,0.7551655911090118,0.7561385823916851,0.7404267978954975,0.7549160700618862,0.7779705151296388,0.769439931686307,0.7769535689909874,0.7764551747051485,0.7450104658687309,0.7122266324706197,0.7091843072147279,0.7322093970271109,0.7577748975192815,0.7652577990674638,0.7173479771932403,0.6226307645330831,0.5239090471913443,0.41020591989208954,0.30539031740400713,0.1968097605280108,0.08323928015884752,0.0,0.015374867403225245,0.09030243257382464,0.18866001948487732,0.29931650486122274,0.41373252035529307,0.5145929764379691,0.6291501588230992,0.736004281208479,0.818919514268162,0.8106284471818039,0.7966782587465104,0.7811410422586897,0.7797926481545936,0.7694561514367821,0.7390304387937556,0.711065346534137,0.6909284101307853,0.6754616457227449,0.6881160814658753,0.7176161830970704,0.7355030031189562,0.7377332207841887,0.7501059139716388,0.7856427735006903,0.7883629605969933,0.7877447592717619,0.772589395270296,0.7509044067643673,0.748058573288116,0.7670713330905046,0.797516225253041,0.8303968430342237,0.8455102166161126,0.8321410258977817,0.8451486079417001,0.858434608379584,0.8974200549048117,0.9448918835739701,0.9162649134156267,0.8227653700254676,0.7188811150518779,0.6025670959257585,0.5271716211065667,0.5982582579670437,0.6958514384684431,0.7934218136172491,0.8819179942483162,0.9014041189215583,0.8498354296718742,0.8290548070317634,0.7991620842268619,0.7864541423065217,0.8004371076880124,0.8356892188275369,0.8513612231436882,0.8514377264917719,0.8396306741271293,0.8298242448905206,0.8158928623005184,0.8213032222186785,0.8107281396892003,0.8094895536364235,0.8094900275058934,0.8113247023365471,0.8286263214386436,0.8540832844509638,0.872266237974106,0.873186415812135,0.8853039984301416,0.8942312003514852,0.9045915035700887,0.8931162165973765,0.8563743906234831,0.8434098939758217,0.8631272709199238,0.8953353055091577,0.9148408015343485,0.9304731769047723,0.9365115843539051,0.9485136844987849,0.9573576269098738,0.9693307759543108,0.9834852325390395,0.9098856873982988,0.8129456535692561,0.7112751018392274,0.6300770456884353,0.6911575323665162,0.7860288106929092,0.8779162449288385,0.9543291981759601,0.9455225868747275,0.8993178363523424,0.8749295618876158,0.8231318076634344,0.786279200246947,0.7877858356660625,0.8262981219206926,0.8578592456912473,0.8494556302038214,0.8298433113839487,0.8118842499326053,0.8094817538039125,0.8057230084005873,0.789887864784756,0.7883800853732708,0.7927068339214416,0.8082224476990647,0.8118167886532981,0.8280821578634092,0.8384911169481577,0.8513042796473913,0.8517365657967213,0.8525106139653023,0.8599992256496187,0.8371853651083008,0.8358142026640465,0.8409590682137402,0.8582827081266413,0.8835938559569185,0.8938213753547712,0.893984146600669,0.8940659518505725,0.9046095169965871,0.9479861886112029,1.0,0.9914730503103959,0.9000762183462161,0.7933272084235687,0.6931619152602306,0.6279111417838079,0.7037045199478174,0.8017886785928479,0.8966051243197306,0.9620902319788862,0.9339821787856843,0.8914656634845572,0.8535184560897853,0.8032854960156666,0.7593311430406735,0.7591588692369857,0.786982480723347,PM
0.5467023126929265,0.5524218683270705,0.520761215397223,0.4718962717802171,0.42556035022015504,0.4070806952116337,0.3871845402348857,0.4104707386956239,0.43884214287139756,0.41083447489704117,0.372256285216058,0.38098828361018633,0.35914354530692805,0.3513297708470011,0.35129967535421436,0.3513076983647956,0.3569889461739466,0.4053896542942166,0.41032663424715743,0.39101790422864724,0.4459268982886311,0.5404687964246424,0.6521767613673699,0.7213251340102573,0.7341630111693407,0.698867405897901,0.5455922240097957,0.3894000422412791,0.21448623815157752,0.09896506047223852,0.13916659792306252,0.2752113754988974,0.4175865320425993,0.5038214413793298,0.46875187030222065,0.46021090239020257,0.44459952683166737,0.39238698551183404,0.35411764764222564,0.30833469367209787,0.24041380519979505,0.21615291287473593,0.24231905365636308,0.2929450325052434,0.3511604436522351,0.4157551994915014,0.4083087442011628,0.3623662571394508,0.36030328640514053,0.38962569772584654,0.41717267166524596,0.43336335615632393,0.47271620267735326,0.45337481219330744,0.42447405145108075,0.4198730789047671,0.41998232230116095,0.43265101451902144,0.4576548004857601,0.4847611742924718,0.47305264453985085,0.41884375717181044,0.368496377911538,0.32062342140433575,0.293115489472509,0.347895830265041,0.4427012295283115,0.5163757680721659,0.5511469684215502,0.640324926020198,0.6542467670660912,0.50932854032009,0.34634736378917896,0.19731888246330698,0.13703521298220345,0.21865239740617692,0.3529964491126236,0.49365212568916306,0.5827422971494345,0.5733518392228385,0.5330887994314493,0.5099196972075735,0.48913422548383156,0.5034521019613001,0.5643803045374343,0.5594789685768431,0.5578946189997396,0.5976447643206368,0.6544672092753787,0.6718104757931185,0.630026195294608,0.5899082214417559,0.5514907952307242,0.5244594358613117,0.5293148759741575,0.5548509126213652,0.5652887400173725,0.5989428980895264,0.6243468220841679,0.6207928712441007,0.5819952608442316,0.5187584060154551,0.4893093347926305,0.4907310017138622,0.5270533642934003,0.537883063597203,0.4648384740493192,0.3751498344290445,0.3738657599085107,0.4267488660489658,0.5370163309527234,0.5887582024813085,0.6028544233405508,0.6118465010207128,0.4707557717371129,0.3134669352989219,0.14614769902202518,0.01275118781880824,0.0,0.12255759343702533,0.2906868551772632,0.3964830623009483,0.3662622279696146,0.3647749212010867,0.35790728211899747,0.27823015996871625,0.22544173658172895,0.24288199978149372,0.2336512768292618,0.274879816401981,0.33938393874172146,0.33714386855911815,0.36277922170347576,0.43120801064488123,0.4668012254464138,0.47509060477569953,0.5137347633660614,0.5080193098504271,0.4137232248860023,0.48161947312518194,0.6279485443819901,0.7730481829728593,0.9034719816750485,0.9172271840402653,0.7857495970354265,0.6843309113907035,0.6707727030284287,0.6093508597024941,0.5135939836662242,0.4930373491348181,0.5747223996073609,0.6547598129123537,0.6672236708956385,0.6079688948692024,0.572586247208851,0.6007358288388636,0.6640155686902762,0.7031703835984295,0.7162203868777812,0.7373982209192143,0.7001693525742052,0.6736161419977709,0.6520943021221619,0.623369623453299,0.615025640681675,0.6609170328925025,0.6970269186853972,0.7327909826914834,0.7720678338270472,0.7472981284178992,0.7033623395947881,0.6556013882850156,0.6725692534526102,0.6681785652586374,0.6199014630241297,0.6053066179359332,0.6235720765732466,0.6733403176051365,0.7055214041745659,0.701827397860507,0.6357758842594272,0.5743846427016859,0.6889192967057953,0.8390917517963441,0.9538664292972054,0.9336707469484944,0.8079716128443932,0.6754025083179505,0.6083923999240746,0.5667771354591844,0.4759599948288358,0.42139575864709755,0.454158215901292,0.5048572780054386,0.5458651245295929,0.5700043891164759,0.5680933885984603,0.5417057029150891,0.5175097233242552,0.5023332373094949,0.5034563084279622,0.5294864950620708,0.5628138440164525,0.5579709186139175,0.5175390166972313,0.5021081602872268,0.4857793683224729,0.44985793867368074,0.4848766828708211,0.5323837022858156,0.5060641671065227,0.4375085879369571,0.38520071444228865,0.3357707975700315,0.3207202000391449,0.38542403248264634,0.4432280838104381,0.4754312036619499,0.5305780044682207,0.5840754309281841,0.5623686578153757,0.573543563975063,0.6278187449779766,0.6088425107982864,0.516490411125134,0.5803800706554236,0.7292201758009274,0.8914564201921387,1.0,0.9658965630669609,0.8510799398888347,0.809736848602542,0.764953570141599,0.6671793654374758,0.558202268469536,0.5058654818217327,0.5242562982774084,0.5119123613465941,0.4566443497201993,0.4339722927253886,0.4335801403416708,0.4360665535480246,0.47280872566267984,0.5012557133124673,0.5059568198889153,0.5439648302652742,0.5382929904590084,0.5033536714807871,0.4785358118775189,0.5072659948078249,0.5433630176765849,0.5911299973494382,0.6296624737582404,0.6635156088582033,0.6430680281205738,PM
0.9214349278714615,0.9154475730243552,0.9013033199437344,0.9102586032283198,0.930342425978181,0.9509767567566121,0.9391670775455296,0.8855578776589663,0.8288241164385809,0.7683592515784046,0.7095507344644418,0.6531082040884582,0.5927195727245075,0.5327875035837116,0.4768172124024067,0.4170901889043729,0.3565265121403475,0.2993254296806338,0.24141288201090702,0.18080199856522308,0.12232187895976673,0.08331277164980994,0.11137406758652954,0.16825037444101978,0.2288621697066526,0.2895468345455413,0.34919903545569764,0.40518653637452795,0.465176594909131,0.5258639521908575,0.5865528744815471,0.6472417967722373,0.7078570981936639,0.7655445294796851,0.8221026918369906,0.8748750600018851,0.9201080161708839,0.9489597629827207,0.9537773444578348,0.9549970260984417,0.9526542198166132,0.9343370873407975,0.9170616862052403,0.9128335087887862,0.9144532037916213,0.9038499171868888,0.8991503696808514,0.897770965301592,0.9089481155783921,0.9187318682293413,0.9266174480320051,0.934102613344111,0.9280820758571469,0.9204186394790528,0.9354393973466575,0.9542742805165256,0.9581826264276312,0.9170413383929836,0.8610261548336802,0.8006900150507698,0.7413953834399535,0.6852649274572797,0.6250575457765795,0.5643987617519691,0.5059316488165553,0.449218657240666,0.38874533492432783,0.3281030615836267,0.2700149613407421,0.21297436056921262,0.15243524663274235,0.09259871289026048,0.03704123823860592,0.0,0.0360422807104788,0.09614015867525036,0.15675549785631157,0.2119687566257258,0.26016623093960056,0.3195701335337525,0.3802560174859394,0.4409449328183951,0.5015020911093515,0.5586556100628361,0.6166227379023483,0.6771742509378985,0.7347274762420164,0.7916499088283652,0.8447496105711865,0.889352027446688,0.9257956613657565,0.9387655512459614,0.9467121138805572,0.9505015967092536,0.9512714178180388,0.9312017246583066,0.9123656240569151,0.9070304403303098,0.8996540654625085,0.8974449326912122,0.9048057273970638,0.9158241738637563,0.9238965798371093,0.9278418118364222,0.9253984784691955,0.9109801498841865,0.9058017118565218,0.9210125325060727,0.9393582434701586,0.9349334467285859,0.8916572802488025,0.8340025202369409,0.773369648593714,0.7126807263030238,0.6519918040123348,0.5913086636877336,0.5317967124056495,0.4757665435946732,0.4156777383467197,0.35506715732547567,0.2974401948428699,0.23999688546360295,0.18288558938251095,0.13137201394521905,0.07602136464176781,0.01918371998855853,0.0023272293671403044,0.05010422907746759,0.11052149205897685,0.16861193536252608,0.22565010416796313,0.2861907145349796,0.3468796368256699,0.4075682842308528,0.4679151563202668,0.5242619515312863,0.582933729929975,0.6364090585292808,0.6841823246770031,0.7339190315499833,0.7936435418299688,0.8496447148132384,0.8944450535744795,0.929635247823694,0.9452417298910007,0.9521918732318775,0.9480815834993674,0.9334930888463069,0.9128469637962533,0.9030082274724249,0.9087848548342217,0.918632047772822,0.9303130023977855,0.9509297159934436,0.9638230820730853,0.9687310792214168,0.9671654781438388,0.9596874999490781,0.9375722942257898,0.8972015268865479,0.8485507511206696,0.7949119825826036,0.7373901640872219,0.68043041965457,0.619915707462426,0.5608534659376792,0.5118237134539148,0.5268313415039768,0.5827225212477688,0.6402761329322796,0.7008788611921279,0.7607266898970607,0.8166860948505308,0.8759803232303431,0.9317658039671171,0.9786639063246139,0.9747530071586312,0.9577743813823483,0.9403489160337597,0.9243824489197472,0.9341702221494617,0.9462770150041595,0.9437505343089623,0.9416016996493255,0.9355469364480631,0.9259330172383164,0.9186234586242163,0.9212434337982931,0.927764304675524,0.9348135655188452,0.9556557517707136,0.9720922077098093,0.9712677895308597,0.9668330346104841,0.9589360527459121,0.9474838843874387,0.9221118104302555,0.8813102526306682,0.8341779415553974,0.7777887332139174,0.7217654621449586,0.6616366326169578,0.6046637427360659,0.5966376858219234,0.6510747242729856,0.7117024077673199,0.7698423533259336,0.8268329365200157,0.8866615743157877,0.9425115326210889,0.9941483975094905,1.0,0.9821206954785136,0.9678445706490388,0.9495269053842637,0.9453810563382576,0.956185004227317,0.9515534741848517,0.944404019053428,0.9340234152210285,0.9249639264944138,0.9167278519365778,0.9198690413451569,0.9295901206601249,0.9350897963438916,0.9351487090561745,0.9497199940122922,0.9694255014866142,0.9737751387374238,0.9705534161850833,0.9744673020256311,0.9639670158769349,0.9283774055937157,0.8791472450509417,0.8245225564693226,0.7688070046532177,0.7087949982044701,0.6508837029425507,0.5939820981823685,0.5557676145525519,0.594093265343527,0.654442581851992,0.714935586206642,0.7717220161895393,0.8300934629472781,0.8895233402025136,0.9452551920137171,0.9946596535592014,0.9943860814297412,0.9709128140331726,0.9487006567483358,0.9300674375896831,0.9266684168343249,0.9388117966446357,0.9419085239440854,PM
0.29600533833842,0.33205844965997455,0.3981552803725745,0.4506836910054717,0.4880496600124733,0.5260945507765693,0.555923595633738,0.5780866962206928,0.6133598610444808,0.626958867694231,0.6381932470193399,0.6565461279927927,0.6589651620551329,0.6377203225111436,0.6408041156076687,0.6635745140594411,0.6998177538976809,0.7219089806832601,0.7360001966714511,0.733577917314564,0.6628310019186177,0.5839104993624806,0.4980132750856001,0.41940211925482473,0.34188004321396437,0.2668503514297844,0.23171666003448355,0.291008541394433,0.368716865576453,0.4538663647792356,0.5397398363979133,0.6177553365750437,0.6894114161018272,0.6993917059531507,0.6830578177717579,0.6760455931640215,0.6776557343757237,0.6985602525650683,0.7412247361798439,0.7955958724704606,0.8528051114559998,0.9120487186333268,0.9571729938026949,0.9387228109413954,0.8749533611743947,0.8125663290510514,0.7518661009108325,0.6924375073977249,0.6402334090374382,0.6051767876843848,0.6013338916885573,0.6112270233523247,0.626785570127518,0.6168672710155931,0.5943345533900535,0.5843127213141974,0.5763630934936521,0.5542230437528877,0.5274694454671081,0.5073690459268851,0.5150172494946692,0.5550336513863858,0.5684094766600307,0.5702269587467763,0.6103297864557209,0.5995863523471534,0.5245574280556891,0.43803577342152655,0.3511786922034781,0.27058606856930334,0.19164164163631248,0.11928285651389747,0.103637669854864,0.16806734671513346,0.2520913255226567,0.3379535459386205,0.41615860485713885,0.49717640682326913,0.5575823641168527,0.5628969989925598,0.5514527599809527,0.5507277176013994,0.5704347518238553,0.6100260792287211,0.6623916432747146,0.720113612006583,0.7753216659435729,0.805618897702961,0.7658467947099019,0.705310866542159,0.6440972113604257,0.5834720973896705,0.5304113303857338,0.4936522074291849,0.48251544481895947,0.4998881519600611,0.526024901057808,0.5461084039438062,0.5414665042139171,0.5207535894545485,0.5107311549573772,0.48670095850612505,0.44676314611220236,0.41228332461327866,0.4004226110045934,0.4206937456104145,0.4607105592874008,0.4763271530850617,0.4971692004293302,0.5321473131914014,0.5397593884236334,0.46564748725677485,0.382898257965419,0.30321419963871477,0.22021855213394326,0.14200433245752353,0.06466709493630263,0.0,0.016413940381505565,0.08920999063494084,0.1587540659661284,0.22157150329791309,0.29967609316695776,0.3859529953380292,0.46414037664941943,0.5273059213963822,0.5505857791052011,0.5564599814457614,0.5752598462014424,0.5943635464468784,0.6215174520320816,0.6736344450410463,0.7318761777544862,0.791503082121823,0.8538441382621353,0.8826347955316847,0.8378188842549321,0.7791832441280693,0.7202924217035218,0.6607188774004962,0.6277244293019959,0.6069143616864423,0.5934683421918427,0.5901077272820794,0.5691148736567266,0.5091839503931674,0.43153586705807556,0.34868587773170456,0.3203950268324507,0.39321500800294307,0.47129754705093196,0.5523756097610264,0.6239865095693125,0.6588648495491929,0.6090378554509914,0.5516390115386285,0.5248253251967672,0.5067206166083615,0.47229497829090894,0.43970214461450063,0.4559521267202735,0.4958744142787075,0.5309629549136108,0.5488215518838477,0.564183676963613,0.5774613467959402,0.5823823427282935,0.567248942252147,0.5408520738823175,0.5234340628571463,0.5389693814399892,0.585003419781255,0.6405022746980558,0.7066151497418927,0.7681844465311294,0.8237120399220534,0.8548694485658765,0.8298514439899904,0.7797628700948371,0.7217650545565395,0.6623895652800946,0.6169662895630088,0.5865346207483806,0.5823716574873681,0.5945342364890047,0.6060920170418767,0.5834488978567889,0.5167439103979101,0.4366511948182594,0.3603049861786465,0.3407170594339022,0.4169284720308648,0.4950807817096954,0.5793315695694496,0.6553381287954878,0.7195835183129964,0.7105050804113959,0.658303035919624,0.6134341329077504,0.6003670985439551,0.5858203299775548,0.551598073344272,0.558014141274846,0.5816174907909708,0.605407356715695,0.6166455724676574,0.6264518173173133,0.6435180074036009,0.6584043525769199,0.6537849784345531,0.6386951797181306,0.6421218746885955,0.6784046211941168,0.7390254977281538,0.7984935884280768,0.8588432064685809,0.9191941827945163,0.9783053422311754,1.0000000000000002,0.9685516890984307,0.9096440749449413,0.8553095276556786,0.7991222875147861,0.7460064155647659,0.7229152335228284,0.713604473041231,0.7212167139374241,0.743009844371193,0.756501307602796,0.7130172094609597,0.635615043201808,0.5489967071319741,0.4859891864409436,0.5285177251510305,0.6120343358367133,0.6933792797771428,0.7681599955374885,0.836609719929559,0.8435065501930537,0.7890745266718711,0.762709233499937,0.7436448845171413,0.712901739723107,0.6847839788499683,0.6830939413745536,0.7019086122455833,0.7010427134094772,0.6789324628220894,0.6672594496379809,0.6549953183996651,0.6366954876136472,0.5989429970367861,0.5763027946123782,0.5520619482689044,0.5441655660971678,PM
0.8680344202496072,0.8735038906882878,0.8656120115148066,0.8433899295118349,0.8106067361018868,0.7645572491144211,0.7054850292423457,0.6887984039030216,0.7307994357956317,0.7854136030386824,0.8300357991289483,0.8768497124666211,0.9257942862097063,0.9285498785171759,0.9073540599418591,0.8885177299936423,0.8672503250517744,0.8536327782455019,0.8476155072357564,0.8528374777981812,0.8567820611516962,0.861562777780054,0.8667166726533112,0.8658920616112148,0.8730851193187849,0.8664103950796788,0.8486079974774033,0.8234929476909533,0.8288633384497411,0.8577886231673112,0.8602337083619901,0.8643194434460674,0.8411409191146918,0.7780635354057709,0.7109758496670423,0.6375235616796912,0.5685198091639209,0.49943102401235506,0.42552684404394403,0.35180602804840244,0.28409493005265396,0.21360860969306839,0.13963821536898846,0.06566817799341518,0.0,0.0030600756178422728,0.0661414679957717,0.13444351938313415,0.20827534428895234,0.28227231496807115,0.3540534816037232,0.4207994253233115,0.4941645164695069,0.5679718352547453,0.6361854654010276,0.7057911966384024,0.7731695787211686,0.8357208173262994,0.8601036980467743,0.8614232882305574,0.8604512833337498,0.8671162008609089,0.8679770067055884,0.8431188777206803,0.8109186144872208,0.7976913749857842,0.8290772730558308,0.8801079599238403,0.9281829749508875,0.9457265535817131,0.9292397009219101,0.9173229982193994,0.900703640783462,0.884803235304812,0.8701249064579658,0.8670769655117255,0.8715317337934813,0.8857868316566181,0.8856364555816832,0.8799428823209056,0.8858268672709438,0.894581545055296,0.8962760448485548,0.878798831284343,0.8560395779423172,0.8651675785533387,0.889581199086147,0.9076448364140751,0.9061321519950857,0.8572024855779329,0.7895744757384232,0.7303407741153226,0.6600694491046827,0.5860801791261762,0.5131846236001035,0.4467589283373631,0.37419448486555773,0.3007748877767892,0.23392881244597452,0.16240682561044384,0.0953236439048476,0.07106817918221253,0.11089240999823968,0.1796827036522518,0.253598809781559,0.3241561995391057,0.3918057236536808,0.4655142157326623,0.538679179592141,0.6052211303021621,0.6772316574957401,0.7457052531697278,0.8153274813109533,0.885168263583788,0.91616509094861,0.9153585305787403,0.9167308848401347,0.9093807275763127,0.888005923747654,0.8523019510171844,0.8156890286335089,0.822810457901841,0.8640280123783702,0.9102575249837962,0.946780893417463,0.9462165322413961,0.9224839972077125,0.9096892032713518,0.8844486884988124,0.8629603882975191,0.8568145197233704,0.8616135574073985,0.8686858082805805,0.8701206323613903,0.8703090674460293,0.8815046226400253,0.8769501778783312,0.874259113546629,0.8544004312768226,0.832917058400302,0.8556319477019797,0.8877192006782949,0.9101115314072362,0.9135601589356416,0.9153352451561102,0.9126567829433178,0.9118316094496371,0.9029375596241066,0.8998526233027154,0.8917184750189254,0.8988552215923976,0.9176473765321916,0.9446649488291253,0.9634973493941575,0.9848201896952654,0.9911845460289977,0.9673052490211772,0.924377620437374,0.879114649623106,0.8738242028056015,0.9069480420954371,0.9344117551532113,0.9503078316992252,0.9531956338575606,0.948423710031841,0.9441967639770569,0.9056345754630312,0.842092618693934,0.7758256074545468,0.7042448953609114,0.631874292532982,0.5653921388162199,0.49368579657016987,0.4695836592606978,0.5302050579534224,0.5977445906593263,0.6714168567706021,0.7432359665866944,0.8099236258174219,0.8792973511544732,0.9400445031150563,0.9569865464407404,0.9454601372621284,0.934190243233005,0.9083801408883126,0.9022459420142815,0.9272894787097626,0.9392236099765382,0.9327707855910191,0.927257709246042,0.9294369211281647,0.9276492800016592,0.9240080345364879,0.9072922989227022,0.9050165152662136,0.9126171124212047,0.9326448311361267,0.9539064112775212,0.9724230785698041,0.9854925760416212,1.0,0.9810968456302295,0.9346207919350623,0.8830308568821087,0.8412230139099323,0.8409814422026055,0.876416068078464,0.9018018892603944,0.9077743422775743,0.9119641075393324,0.9095627735447992,0.8982456769899675,0.8539757768879969,0.7903579389665966,0.7222517305598676,0.6545651405531451,0.5842446934836233,0.5111481760258537,0.4465785432943917,0.4320862995982896,0.49835811939270924,0.5719413939288817,0.639185784146077,0.7102454808777084,0.7842192068513888,0.8556193467451615,0.9056961401332192,0.9126665913695243,0.9038900240320021,0.8998690232041001,0.8769585374058514,0.8741727422287756,0.8943845178253981,0.9081092416037405,0.9087718364645468,0.9026196941376178,0.9022804767063352,0.9010808041853494,0.891323467187156,0.887126596323991,0.883383847408404,0.8915903400540891,0.9073315429577832,0.9323142126971006,0.9565324072576439,0.9719615745840416,0.9529826747183162,0.905505037821137,0.8594156848716333,0.830078058732736,0.8531262922840795,0.8841795054489546,0.9027643244632276,0.9099203774788368,0.9050678683646146,PM
0.128180771600777,0.10196442842639897,0.1033719913128972,0.17568073507085868,0.2932838244423981,0.3483586553890081,0.3879423220139566,0.48944845878677556,0.5977516043298405,0.7083604319921633,0.8184265096270238,0.8453638238217676,0.808949046135417,0.7906407893415683,0.7892062950863394,0.7877181389122749,0.7676195157930241,0.733300115279738,0.6922990167524032,0.6782328039851993,0.7070458563716784,0.7421913552219923,0.7724844692288007,0.7997751316778121,0.7991264193481245,0.7768728369383031,0.7503667295763625,0.7256200205627072,0.7207811152035797,0.7364867872419891,0.727629873126129,0.7104321138910601,0.6675256604544226,0.6381852645640493,0.646230076138893,0.7034190176541393,0.7349695644630825,0.7447102246826209,0.7107150404485618,0.5929696091586765,0.4664391581329852,0.34806240714876546,0.21808818482140468,0.10231549628243908,0.0,0.03929530953229454,0.15079447979798388,0.27180083331556704,0.3894283705679178,0.5001012301320147,0.6123854473887378,0.7183797281899627,0.7317725663826966,0.6922655372701647,0.6675196675327766,0.6532624057347611,0.6708753864392891,0.6851848991006642,0.6724411381001767,0.6386299227343524,0.6100538693308843,0.6272202319814046,0.6619918784915448,0.6942277891794069,0.7168468044377327,0.7197355295300798,0.7151221246450397,0.6981149782363905,0.6966039196178722,0.6966024244966884,0.6953937276368647,0.6787650430219814,0.6731589439924206,0.6589165680338969,0.6288941260639658,0.6131161981836835,0.648027630693405,0.6945933481587372,0.7185773108046272,0.7404560051305022,0.7272490830411846,0.6020839931413566,0.46899314081946475,0.35038069996321175,0.22444135918075325,0.11217925984764499,0.09499233749528457,0.1902599377039187,0.30460969836794893,0.42116850608294376,0.5261651624213526,0.6382746376572221,0.7505472836259677,0.751005892920845,0.7230198681508435,0.7195012908380312,0.7091781527058507,0.7161531423875758,0.719707633144437,0.7130244090211768,0.6849195349456298,0.6871893845646175,0.7069455211536777,0.7428033950602582,0.7647333335143038,0.7660407801286464,0.7612751064555265,0.7443513610661459,0.7429056678915935,0.7429047039632852,0.7429047039633012,0.7429047039633168,0.7429045337292544,0.7422131032665051,0.7255382812530171,0.6968226335586301,0.684778525688448,0.7201778346982346,0.7693505547894057,0.7773155230036397,0.7792097779879392,0.7151842313226129,0.5959148541239063,0.47210390918910594,0.3462649851880477,0.22766435054838707,0.12101872437212569,0.1168608471476591,0.19445003710620457,0.3149690116608532,0.4271507494131397,0.5321492985579188,0.6521592623294175,0.7723277380142921,0.8481747006443845,0.7842390615012951,0.673065188912572,0.5598100473320513,0.4882430998153038,0.5699240841101556,0.6903325247540613,0.8111047518251557,0.9061594726130315,0.906193323472062,0.8516214846286938,0.8405661599803795,0.8033547660914921,0.7648209667281689,0.7803207537785197,0.7976520937800484,0.7984800273138091,0.8030223442578825,0.811812552113738,0.798975687890517,0.798467363284824,0.7998364285183182,0.8242650398388967,0.8302734334704249,0.8332863335937915,0.8269532170874991,0.8343589033803784,0.8124898396096003,0.7786240156478135,0.7558889635061665,0.7680171792692101,0.7898070692917245,0.7958637173620651,0.7782463860280813,0.7753238114115706,0.7777314754708651,0.8003435154941845,0.849494417637505,0.8734191175754131,0.805154604197222,0.6979844836043352,0.5814955183206023,0.5020775075941804,0.5816013962082249,0.7001810592002711,0.8178935834514793,0.8957019219415865,0.8640540242589179,0.7914342915195207,0.7699218253456772,0.736846730532652,0.6937505631949343,0.703542964968773,0.7287185124716564,0.7464095877496622,0.7521396673356251,0.7521650667948352,0.7521650667948188,0.7522921648658838,0.7620377503031088,0.7749992751005661,0.775314933120677,0.7738162054382749,0.7555618035818439,0.7299512612571504,0.7039139611384551,0.697336533265787,0.7242813866653179,0.7460133996764142,0.7518018254902028,0.7357462008403801,0.7232978841510858,0.7438924136885179,0.7830717579660185,0.83704702937949,0.8133726979954226,0.724965235421752,0.6078493080773386,0.4921896540431554,0.424257651757745,0.521532580151868,0.6399807583318333,0.7635336287040997,0.8614952457044209,0.8762166419016206,0.816745695660742,0.7973996069233893,0.7657884394461756,0.714838611016483,0.7260222008197434,0.768579208778247,0.7919034018904951,0.7984227478377814,0.7956823123646575,0.7922907814920457,0.8121162650304301,0.8343543240682871,0.8564073135753354,0.8671070203289215,0.8514571154658412,0.8228272356887598,0.7929599623233061,0.7602885884121466,0.7686659999820442,0.8106637153426113,0.8440912672553784,0.8601725358754528,0.8650090264548611,0.8573820557431961,0.8714789423032072,0.9115820863801098,0.9673476328955872,0.9432929748346246,0.8465802725488998,0.7291092938652879,0.6208526819179014,0.591277316906131,0.6940581050451451,0.8184301829004426,0.944864451205548,1.0000000000000004,PM
0.0,0.03290964501777305,0.09401526128785975,0.11527126969495538,0.14229009758343647,0.21577855058396778,0.28349625785335975,0.34849590021545707,0.42463261005052955,0.5003257514496329,0.583705307103727,0.6603791306813465,0.6520252427080728,0.5766856270638607,0.5019611017055117,0.43091399154540433,0.3820440535372902,0.3810046021436184,0.3907164248037067,0.36022400746080496,0.308477857011094,0.24987527765438378,0.18837197605327716,0.14154971399452654,0.13455635762428053,0.18133118422360717,0.23057632833246444,0.25448181668668957,0.2700437647857141,0.28484352502151045,0.2772770759791503,0.25718695634903255,0.2543667894922319,0.259072339423547,0.2755198848846503,0.29016937238825036,0.3001846421015748,0.3023649470985743,0.30981342780045606,0.31391141926893984,0.3133774076926237,0.30329376579339984,0.29136248501304385,0.2943224563929172,0.276942331382084,0.2157757826150164,0.16353815161293772,0.17737217613888134,0.24132811857648484,0.3016694292294697,0.36463289779448216,0.43719922818135837,0.5193522520067901,0.5945100306304325,0.6337640675223817,0.5757705960689021,0.4931581027501726,0.4182506447860068,0.36856297009583017,0.3772585707195506,0.4180625522503587,0.4207803087204125,0.37089838017094134,0.311157433445197,0.2528456227426996,0.1982387038152429,0.1576762898934363,0.16881708702433795,0.21677528716208028,0.2626587739452082,0.2884437983564341,0.2999380963558602,0.28949091235637736,0.2714500699386877,0.2701566636810535,0.27779275538315273,0.2791087722682204,0.2906261121071818,0.3013238877946294,0.3020678293199546,0.3062905874931965,0.3179147018258961,0.3251270649225695,0.3159693652618458,0.29959240067434,0.2904878027683251,0.2900893692480937,0.288379394278484,0.27947590451239623,0.27887711303656104,0.2873236418470928,0.29007920871581705,0.290103413010921,0.2929074227102373,0.31600366486610887,0.32763113752608386,0.31860498658912406,0.3034248358606222,0.2776954937770961,0.21425157327612943,0.1531905420054871,0.1344983948901095,0.18436768852247098,0.2520700638920026,0.31187854662664294,0.3854313078315612,0.46193244889353213,0.5455899058512004,0.6289305944757806,0.6749350658180568,0.6314921854176587,0.5618686778727522,0.48606105694831125,0.42090110236420575,0.39031617847714806,0.4093155355379774,0.4361308505282504,0.4106332060217417,0.3623347933835319,0.3732335913592144,0.43465694245163533,0.47023903870459094,0.4628257439236667,0.43800842545807894,0.4558140342962389,0.5302405382337523,0.6107459122076291,0.6859405624779185,0.7608542149541582,0.8399010962707303,0.9142267880434249,0.9728269034272383,0.951117163641424,0.8742194972265325,0.7933107860239716,0.7176216858526066,0.6342483438662763,0.5504157075898326,0.47245331947992675,0.39415563188423963,0.316483537439179,0.25928697055796857,0.21173274898639027,0.25134144643832457,0.30894852292660957,0.33189486936112544,0.34628875579180596,0.3618445841899076,0.3628524376439173,0.338499660555065,0.3223850775309476,0.31875303614678896,0.3186313292286047,0.31353218150629747,0.3122821546161969,0.31745081434409417,0.3187527264281922,0.3224136106293689,0.33044527813172286,0.3401030602078099,0.35884161104783274,0.360195329178854,0.35003807248500873,0.33825895668392825,0.33092558000463357,0.33064797034909654,0.32774593694089993,0.31052473445444106,0.30681161339751806,0.30710254758360467,0.3173759737773225,0.33446934550338425,0.3397860201140417,0.32535953677344986,0.30053179785672013,0.26090648562209573,0.21370233856074683,0.21710961485121572,0.27204905087336306,0.3289345065981917,0.3853607973004296,0.4392529333339099,0.4682421160034371,0.4559846625859332,0.42025818814613114,0.42148571249585,0.4890036699693532,0.5626838685703159,0.641486552778713,0.7164212075661087,0.7935580069982473,0.8713762757215142,0.9536754461140329,1.0,0.9544721237232361,0.8801197713806017,0.7970615525894478,0.7131133936962244,0.6328027744151674,0.5566316592770377,0.4739462341813949,0.40030349508187557,0.33410435539080297,0.2701295044422234,0.25126616675828517,0.3070997016918684,0.33743646014627915,0.32626080453422923,0.3249364873006857,0.34514659313807927,0.35240387870418655,0.3437332881493673,0.3414174728437094,0.3327745966155986,0.3355897459861459,0.32695257454384485,0.31532288061129443,0.2994386031894962,0.2901145323215504,0.2881866110095479,0.3092321205783435,0.3177773426905026,0.3085419605233777,0.29589555894955777,0.2808849816233645,0.2465760987959471,0.19471906090347813,0.20176399931153943,0.2557321322507886,0.3162612883709146,0.3731437016651,0.4164433677766395,0.43154116355026595,0.41657614034464663,0.42760102547761436,0.49269524036521606,0.5571299452032576,0.6221143300664136,0.6984068340857026,0.7737943183890996,0.848609236684688,0.9248296691017437,0.9624855311396758,0.9160564275575225,0.8342525271136676,0.7502769410780377,0.66629678500464,0.5823466832681272,0.5019856889902208,0.42628035266829256,0.35259464105292126,0.29479841091174497,0.2438991038580387,0.26871083901115744,0.31207170204760026,PM
0.7685974878764585,0.7085062571430694,0.6492482975771128,0.6090748963894688,0.5733229891552052,0.5093350279457869,0.46264788516426725,0.4527085330247915,0.4865600601370541,0.5309582052541075,0.5831688633542618,0.6136860197172711,0.6240489179144166,0.6217031291209325,0.6271477324176804,0.618594310426624,0.5962890765889095,0.599438755553803,0.6229850326515141,0.64253959733511,0.7040941377159153,0.7719445387359212,0.7458271014018765,0.6713366400087151,0.5903867126506455,0.5131763483830194,0.44088451812111673,0.36631777908425356,0.2866435467044768,0.208972255237714,0.1266111556837961,0.04873875886031176,0.0,0.04500960508012808,0.1266442419462802,0.20941365397947265,0.292183774051501,0.37495389412353,0.45772272448057727,0.5397820808525673,0.6166383655115752,0.6947617110977298,0.7145996527213889,0.6658326011153626,0.6294716336431452,0.6151197587881854,0.6120435018671633,0.6380214123478192,0.6851247742481468,0.7448882836080695,0.8062801546927383,0.862162281930847,0.8587468883106044,0.79703248352611,0.7347524187662136,0.6780461133208473,0.6372063322293637,0.6333545182494584,0.6486823584715244,0.6542264065103305,0.6414945409345107,0.6330178888954001,0.62740076239216,0.603773227033731,0.5943590441892257,0.6226019206803775,0.6338969034731063,0.6692852245667384,0.7370519978161518,0.7398614158167225,0.6676752784724289,0.5910662194762291,0.5094432037287626,0.42667711715994083,0.34392368376174787,0.263257841158805,0.19252058171107045,0.1843558430025709,0.2533682857750603,0.331057501446109,0.41064281964070504,0.4815448104832629,0.5621966643077858,0.6394841106628297,0.713559797452447,0.7133944204843317,0.653124001361425,0.6059667734354526,0.5785102629448784,0.5698927633694857,0.5714524922918098,0.6042023204352809,0.6533475321552211,0.7095237177345219,0.7752138347696542,0.8348154850764637,0.8367409073822716,0.7769921306833865,0.7088046378280553,0.6498014275058293,0.6065069819837756,0.5946176331976658,0.6146262664143947,0.6295435314229714,0.6322697171291529,0.6367447675370581,0.6337668458647163,0.6090134070531863,0.5936458307977017,0.6209484211675902,0.645050237016747,0.6803972313711757,0.750405541194787,0.8157304862813723,0.7836031451975745,0.7022598466455898,0.622590598499384,0.5446985766183294,0.4623277369022598,0.38401382535182393,0.30483853972034614,0.22467189817488753,0.15260466292501407,0.14147163171125698,0.21275590795764987,0.29315421427636057,0.3643041097233599,0.4367381141714226,0.5189754053849509,0.6017445511848472,0.6839433591050101,0.7567573650177686,0.7612825218318207,0.699708969405054,0.6517857628123451,0.6270169820519071,0.6187148757575696,0.6270744540007351,0.6430718195132934,0.6470480743444289,0.6641973133048367,0.7110820179892174,0.7747972072352596,0.845286914682807,0.9210778230767964,0.9940394401884192,1.0000000000000002,0.9292733259721999,0.8470952786906776,0.7699517220206735,0.7085475667015448,0.7460398315664984,0.8220371808122373,0.894299750441707,0.9557609688968602,0.9373665714819202,0.8652067231000833,0.7888475955520702,0.7153151345369053,0.6727710637815489,0.6520926310521142,0.6259902544250251,0.6405175358073696,0.6635774994582373,0.6628409601033525,0.6599434792665848,0.6597147180465164,0.6419415728645625,0.6244504294117394,0.6419349652044817,0.6939450480395706,0.7558427231317852,0.8227675604093907,0.8822830767881606,0.8852501610468331,0.8310360081697017,0.7672153754320281,0.7061012823861488,0.6510843665896235,0.6050648865028805,0.597427417255884,0.6083865595895657,0.6433792204645146,0.6963420307688295,0.7622150219012722,0.840307579899934,0.9182849152338344,0.9822341755267427,0.9663126631390366,0.8908457327480177,0.8083122443742796,0.7310555773537946,0.7011481032919398,0.7624533774415514,0.8401511790212801,0.8909678174412636,0.8531792686755939,0.7806343881444493,0.7055747686671643,0.6630338781510545,0.6496214236805606,0.6246458361846843,0.6394601503082911,0.6555249515648724,0.6616623224684672,0.6687921597465774,0.6801358812416392,0.6731706776542032,0.6576332529891631,0.6683106180289526,0.7202913304657672,0.781033764160523,0.838696935616303,0.8950255032543726,0.9170261498029013,0.8735496690005482,0.8135755005787271,0.7492855106872791,0.6927863189286787,0.6491614203482536,0.6353228653610439,0.6489521052370013,0.6857125351526239,0.7444252035097421,0.8127222340122122,0.8818171300924109,0.8975671822418612,0.8280697260194081,0.7458681724951215,0.6686881690673003,0.5884928033204551,0.5356805842082437,0.584207039360334,0.6645774795012984,0.7421436694845935,0.8162965089193301,0.8863928478373837,0.9082471823226266,0.8463784645391201,0.7696864793546128,0.6960315173785041,0.6557232199366878,0.6416530528028868,0.6219577725682162,0.6371256142265587,0.6482559037079969,0.6486340786808205,0.6501647673433526,0.6465689273964661,0.6306899527853755,0.6332034015842127,0.6681900478392759,0.725137936919451,0.794083949841146,0.8520057480249239,PM
0.128180771600777,0.10196442842639897,0.1033719913128972,0.17568073507085868,0.2932838244423981,0.3483586553890081,0.3879423220139566,0.48944845878677556,0.5977516043298405,0.7083604319921633,0.8184265096270238,0.8453638238217676,0.808949046135417,0.7906407893415683,0.7892062950863394,0.7877181389122749,0.7676195157930241,0.733300115279738,0.6922990167524032,0.6782328039851993,0.7070458563716784,0.7421913552219923,0.7724844692288007,0.7997751316778121,0.7991264193481245,0.7768728369383031,0.7503667295763625,0.7256200205627072,0.7207811152035797,0.7364867872419891,0.727629873126129,0.7104321138910601,0.6675256604544226,0.6381852645640493,0.646230076138893,0.7034190176541393,0.7349695644630825,0.7447102246826209,0.7107150404485618,0.5929696091586765,0.4664391581329852,0.34806240714876546,0.21808818482140468,0.10231549628243908,0.0,0.03929530953229454,0.15079447979798388,0.27180083331556704,0.3894283705679178,0.5001012301320147,0.6123854473887378,0.7183797281899627,0.7317725663826966,0.6922655372701647,0.6675196675327766,0.6532624057347611,0.6708753864392891,0.6851848991006642,0.6724411381001767,0.6386299227343524,0.6100538693308843,0.6272202319814046,0.6619918784915448,0.6942277891794069,0.7168468044377327,0.7197355295300798,0.7151221246450397,0.6981149782363905,0.6966039196178722,0.6966024244966884,0.6953937276368647,0.6787650430219814,0.6731589439924206,0.6589165680338969,0.6288941260639658,0.6131161981836835,0.648027630693405,0.6945933481587372,0.7185773108046272,0.7404560051305022,0.7272490830411846,0.6020839931413566,0.46899314081946475,0.35038069996321175,0.22444135918075325,0.11217925984764499,0.09499233749528457,0.1902599377039187,0.30460969836794893,0.42116850608294376,0.5261651624213526,0.6382746376572221,0.7505472836259677,0.751005892920845,0.7230198681508435,0.7195012908380312,0.7091781527058507,0.7161531423875758,0.719707633144437,0.7130244090211768,0.6849195349456298,0.6871893845646175,0.7069455211536777,0.7428033950602582,0.7647333335143038,0.7660407801286464,0.7612751064555265,0.7443513610661459,0.7429056678915935,0.7429047039632852,0.7429047039633012,0.7429047039633168,0.7429045337292544,0.7422131032665051,0.7255382812530171,0.6968226335586301,0.684778525688448,0.7201778346982346,0.7693505547894057,0.7773155230036397,0.7792097779879392,0.7151842313226129,0.5959148541239063,0.47210390918910594,0.3462649851880477,0.22766435054838707,0.12101872437212569,0.1168608471476591,0.19445003710620457,0.3149690116608532,0.4271507494131397,0.5321492985579188,0.6521592623294175,0.7723277380142921,0.8481747006443845,0.7842390615012951,0.673065188912572,0.5598100473320513,0.4882430998153038,0.5699240841101556,0.6903325247540613,0.8111047518251557,0.9061594726130315,0.906193323472062,0.8516214846286938,0.8405661599803795,0.8033547660914921,0.7648209667281689,0.7803207537785197,0.7976520937800484,0.7984800273138091,0.8030223442578825,0.811812552113738,0.798975687890517,0.798467363284824,0.7998364285183182,0.8242650398388967,0.8302734334704249,0.8332863335937915,0.8269532170874991,0.8343589033803784,0.8124898396096003,0.7786240156478135,0.7558889635061665,0.7680171792692101,0.7898070692917245,0.7958637173620651,0.7782463860280813,0.7753238114115706,0.7777314754708651,0.8003435154941845,0.849494417637505,0.8734191175754131,0.805154604197222,0.6979844836043352,0.5814955183206023,0.5020775075941804,0.5816013962082249,0.7001810592002711,0.8178935834514793,0.8957019219415865,0.8640540242589179,0.7914342915195207,0.7699218253456772,0.736846730532652,0.6937505631949343,0.703542964968773,0.7287185124716564,0.7464095877496622,0.7521396673356251,0.7521650667948352,0.7521650667948188,0.7522921648658838,0.7620377503031088,0.7749992751005661,0.775314933120677,0.7738162054382749,0.7555618035818439,0.7299512612571504,0.7039139611384551,0.697336533265787,0.7242813866653179,0.7460133996764142,0.7518018254902028,0.7357462008403801,0.7232978841510858,0.7438924136885179,0.7830717579660185,0.83704702937949,0.8133726979954226,0.724965235421752,0.6078493080773386,0.4921896540431554,0.424257651757745,0.521532580151868,0.6399807583318333,0.7635336287040997,0.8614952457044209,0.8762166419016206,0.816745695660742,0.7973996069233893,0.7657884394461756,0.714838611016483,0.7260222008197434,0.768579208778247,0.7919034018904951,0.7984227478377814,0.7956823123646575,0.7922907814920457,0.8121162650304301,0.8343543240682871,0.8564073135753354,0.8671070203289215,0.8514571154658412,0.8228272356887598,0.7929599623233061,0.7602885884121466,0.7686659999820442,0.8106637153426113,0.8440912672553784,0.8601725358754528,0.8650090264548611,0.8573820557431961,0.8714789423032072,0.9115820863801098,0.9673476328955872,0.9432929748346246,0.8465802725488998,0.7291092938652879,0.6208526819179014,0.591277316906131,0.6940581050451451,0.8184301829004426,0.944864451205548,1.0000000000000004,PM
0.03673448484733188,0.11541775367075102,0.20951956162194207,0.29606193048710927,0.38974863964464235,0.48391445347459383,0.5699778691740898,0.6521399695764618,0.7044682234482185,0.744540358066689,0.7441642540427615,0.8001826785713948,0.8590249379837065,0.8723597914138335,0.871979230576295,0.8632979189821421,0.8688667352055064,0.865741892220417,0.8636997368046466,0.88588901790625,0.897036315069593,0.8863614940396825,0.8930532184356106,0.8922513377348329,0.8961682640592419,0.89182529328207,0.8308331774661313,0.7430837790891645,0.6526081695994737,0.5607014200872373,0.4731688485841652,0.3781254001766654,0.2878661688202868,0.19890459993731469,0.10826084327727536,0.024105647034847077,0.0,0.0733299841230397,0.1613069776380751,0.25659322592186085,0.3486440409303213,0.4361275539632452,0.5312212990049325,0.6228676981073962,0.7105220771643399,0.7979414534429032,0.85084437107116,0.8557231579413855,0.8490041916512943,0.8549019607818429,0.8563539113304666,0.8312157971269931,0.8344867773860236,0.868785233877762,0.874933090164896,0.882255878505902,0.8868882256416812,0.8780319494907722,0.8742315225288468,0.8859995020010887,0.8896213510146325,0.8938466465089983,0.9010914049237821,0.901479885157884,0.901906511576255,0.913951938632612,0.8956161561601603,0.82303286205115,0.7368788644285076,0.6449792670267593,0.5581706881435058,0.46339540186164463,0.367751522956522,0.27211040926284835,0.1780580066261901,0.09182245170288894,0.01126647356204269,0.0016576969611694636,0.07628886901244392,0.17117661120423522,0.2618734432991572,0.35049819383091574,0.44588802569407004,0.5411721373504503,0.6291995697067139,0.720300199432252,0.8079787948205546,0.869786325999824,0.8729127482771029,0.8693120964448418,0.8817380474876289,0.8712845157559199,0.8566759471699443,0.8335782049092253,0.835498405962634,0.8692647274848762,0.8834634443739819,0.878698467747228,0.8910256308925599,0.9087580307405649,0.906090136673741,0.8386876360712936,0.7499937382017279,0.6621439443973087,0.5745804314045011,0.48303278276573725,0.3879206136440936,0.30035682302636824,0.20844258687483852,0.11663393544568246,0.03367952536441332,0.0119664372040027,0.08528484200289821,0.17612730039372582,0.26623363090262453,0.35535592538544414,0.45079794682372953,0.5441717413415976,0.6308027628592916,0.7225567909329713,0.8026698103931833,0.8557429023535565,0.8742919422555082,0.8617691907837881,0.860624645858068,0.850368607165966,0.8225289490445564,0.834528219058603,0.8695136848062894,0.8954698142516744,0.8917580279607451,0.8970536228536843,0.9047588171423309,0.9099858945762382,0.9092796981066216,0.8781391086777979,0.7906854795175562,0.7040890141591911,0.6181522494702805,0.6163141964587857,0.7045507882727204,0.7952787594174207,0.883839414955522,0.9731577131561973,1.0,0.9546496932119557,0.9433317252343536,0.9496553772951435,0.9387403595104433,0.9300205495031926,0.9340625390357453,0.9228501479582882,0.8917147160366947,0.868614408413765,0.8827651406988068,0.8911533994360732,0.8969373929798472,0.9033989597471215,0.9096433896109648,0.8782785165114815,0.825035029611985,0.7444792330807568,0.6580270608795014,0.5685850329751523,0.4735955478481777,0.4176892176508764,0.4857428371905508,0.5794260231816539,0.665896314725684,0.75683195545,0.8437109496892563,0.9300231501799345,0.989407748013301,0.9691844234953058,0.9461058033500458,0.9224121845700344,0.9150682964391792,0.9141111252722469,0.894214642021534,0.8669744911407142,0.8826048863055069,0.8980577610014997,0.9200697125607133,0.921914251458285,0.906294966412994,0.9205545661041912,0.9208024617391675,0.8760584897622703,0.7939666024650092,0.7024970306198814,0.6156443815578097,0.5227372164829571,0.4381660533660914,0.45584558556812316,0.5439278102335583,0.6370518978933604,0.7235644715604661,0.8114072814682372,0.9014529175951282,0.9730136126536779,0.9649099081801102,0.9472179669492484,0.9398501959099512,0.9376840307058538,0.9328682186319126,0.9284128350860428,0.9222419769012267,0.9082990098747934,0.9112088074164486,0.9273016810753187,0.9241782216929657,0.9125446358044207,0.9122616404838988,0.8870732284662268,0.8632718705552556,0.8899124973561672,0.8914829237585975,0.8845758548326565,0.8895726397456802,0.8939144094767961,0.8966604254349382,0.8699370339778807,0.791245478069009,0.7005338165436001,0.612960667111714,0.5178026196464305,0.423356703969451,0.38421019131451795,0.4627471229647291,0.5576532847796203,0.6447578495085327,0.7364158029217129,0.8230704107260811,0.9102795465427844,0.9799422194253848,0.973908111546173,0.9408428694267812,0.9295433606095398,0.9265639068954394,0.9251929562935022,0.935191562519389,0.935251495653302,0.9083903501185904,0.8953650985215114,0.9040446511992575,0.9026718231152691,0.9038480483998446,0.9112495116813282,0.914399829686424,0.9116690941663497,0.9015569638246705,0.8356442564053612,0.7502693385837536,0.6593261884376749,0.5949998323130348,PM
