0,1,2,3,4,5,6,7,8,9,10,11,12,13,14,15,16,17,18,19,20,21,22,23,24,25,26,27,28,29,30,31,32,33,34,35,36,37,38,39,40,41,42,43,44,45,46,47,48,49,50,51,52,53,54,55,56,57,58,59,60,61,62,63,64,65,66,67,68,69,70,71,72,73,74,75,76,77,78,79,80,81,82,83,84,85,86,87,88,89,90,91,92,93,94,95,96,97,98,99,100,101,102,103,104,105,106,107,108,109,110,111,112,113,114,115,116,117,118,119,120,121,122,123,124,125,126,127,128,129,130,131,132,133,134,135,136,137,138,139,140,141,142,143,144,145,146,147,148,149,150,151,152,153,154,155,156,157,158,159,160,161,162,163,164,165,166,167,168,169,170,171,172,173,174,175,176,177,178,179,180,181,182,183,184,185,186,187,188,189,190,191,192,193,194,195,196,197,198,199,200,201,202,203,204,205,206,207,208,209,210,211,212,213,214,215,216,217,218,219,220,221,222,223,224,225,226,227,228,229,230,231,232,233,234,235,236,237,238,239,240,241,242,243,244,245,246,247,248,249,250,251,252,253,254,Target
0.15830123410348595,0.1507776693282914,0.14735067677086566,0.14197536938660882,0.1345979604164831,0.13195383131874094,0.13941161283267678,0.15022846152899394,0.16136032635410613,0.18290410609129482,0.2049595296528206,0.22701452400283761,0.2478308453373359,0.24642031445316848,0.21925730711701208,0.18942378870357524,0.15468551275171194,0.12141295190489632,0.08906564083908974,0.06010251425535951,0.040783595554138685,0.04860673160449047,0.065852317881546,0.08071821078450059,0.09585235379001111,0.11592884214817722,0.13429004033142933,0.14822140344558532,0.1606568859186388,0.17644908293915207,0.1976699507485553,0.22165665740795215,0.25420790408373306,0.28774417458270296,0.3139581167546135,0.3487609865334895,0.38992148243915015,0.43340554554719257,0.47022032623944643,0.5127022964245536,0.5566460353955465,0.5948200283066223,0.6355119533215559,0.6791114882474767,0.7161362368802335,0.7582907583130163,0.8023964184720807,0.8457211642831133,0.8824106069195989,0.9250836151526196,0.9609642372709228,0.9577054438991437,0.9240471519756148,0.884825651113071,0.8407945529586571,0.799146490290241,0.7617730846220037,0.7181954775253601,0.6833327613338473,0.6486946811018328,0.6093346975742755,0.5700965977955847,0.5260565223112279,0.4819453255822561,0.43783631408358437,0.39515981172339276,0.3584494404289389,0.31504073143745326,0.27107690736848045,0.23268329129257515,0.1982755549608648,0.1960136771712,0.19088998560015846,0.18066688786711804,0.16348736749514492,0.14411994103026382,0.1220923380926271,0.13244910221836248,0.1543902461556692,0.17439744305377536,0.1794095459447227,0.1794525134077436,0.1794525134077425,0.1794525134077416,0.17974319937305405,0.18636569802868497,0.1889809448977504,0.18899270271749002,0.18819920933078182,0.1808198005765751,0.17726731308860932,0.17032255132281549,0.1699141621809701,0.17139597451681632,0.17994449090142495,0.19551132722632247,0.21747974169122664,0.24100565749076286,0.26621853503507653,0.2822902686721809,0.2702843115879421,0.2407040697656626,0.21806745233896607,0.18712864976630694,0.15307207145849366,0.12195267159209267,0.08999314497509103,0.06403504173316454,0.05043947251531988,0.06870186888125374,0.08468030780506797,0.09942963353714451,0.11635500342699956,0.1307041129765294,0.14333800048692247,0.1531715316377793,0.16286600723279077,0.18462009143093971,0.21316435256808908,0.2460423372956584,0.2795775988580782,0.30880124061685654,0.341137646236398,0.38273371307940685,0.42603545700940737,0.4627219098376112,0.5055177614692219,0.5489605244387077,0.5856798651580049,0.6283114754777921,0.6722371533942322,0.7102103037622778,0.7511195327893672,0.7952070747627655,0.8370275338056612,0.8742497563043352,0.9180064860268657,0.9620307120745946,0.9986405928394564,1.0000000000000002,0.9677770967486341,0.9245699350321541,0.8869522914889532,0.8456010483781735,0.8014989568478292,0.7574235620320715,0.7171316134554526,0.6785760197126216,0.6345947595552557,0.5904835628262834,0.5463724483024164,0.5025990725965623,0.46531484009084867,0.42357270848026696,0.37946816880473877,0.33536740372056606,0.29367588024971925,0.25635004546615514,0.21626813814378942,0.20259470244854372,0.2071371410502434,0.197223604367891,0.18313835716289661,0.16761752028988885,0.14363663058934595,0.1524158383006875,0.1728670234692058,0.19308447058568246,0.1984807953230836,0.1985336926543413,0.19853369265434018,0.1985336926543393,0.19853369265433862,0.1985336926543375,0.19853369265433662,0.19853369265433596,0.19830006963020907,0.19159469739365642,0.1814117542129834,0.17445297214946542,0.17001189351610058,0.17467435153619681,0.1837030183680901,0.20104965071854486,0.22897600182108868,0.2529141843752536,0.26383962726596577,0.24815417929186334,0.21707586934769707,0.18395551794938148,0.14891240782795068,0.1153760146195566,0.07767212973310111,0.043684866502919695,0.01573873129392589,0.0,0.00721200570492031,0.019445386172015855,0.02746767144019957,0.035249775459136545,0.04076265733681095,0.04779608308167815,0.06146522581135372,0.0836279858845077,0.1150368866686109,0.1503739507921893,0.1896281836869287,0.2330531634575299,0.2698679441497833,0.3123499143348911,0.3564209293659786,0.3964420847083361,0.435233592783288,0.47925091109383033,0.5224437147641503,0.559100269509542,0.6020461241121564,0.6461429296950134,0.687340512588223,0.7250918856504691,0.7689487127323253,0.8129171042022525,0.8513321081649632,0.8917705887616483,0.934537728489427,0.9579244401678768,0.941610433230218,0.9074696915068687,0.8646930855386608,0.822346925207093,0.7854462485391778,0.7418981848575406,0.697787135530824,0.6537021614554754,0.6131786475724625,0.5748439806269647,0.5308829382382505,0.48677174150928026,0.4426669479519314,0.4006160549036255,0.36352449828979827,0.3198675442167067,0.2757563474877336,0.23165355162139245,0.19019687474188762,0.17109162918086285,0.1653295153399077,0.1556658539388518,0.13581204057692475,0.11295272434893033,0.08500910324068389,0.069107909300542,0.08522162196731808,0.10586904283309817,0.11258655646926474,PM
0.11405577088076235,0.11387406797719968,0.10597278538857191,0.08389312215964528,0.06293734263054906,0.04649611794720143,0.03064195062541275,0.03425972740195227,0.049193508248481344,0.06658285125537589,0.08356456174818416,0.09944145715970287,0.11530554610878996,0.12897521070929185,0.14046231822400923,0.15991655666099192,0.18402626995835458,0.21617543662063787,0.24880101089082762,0.282057936108403,0.31839659509764284,0.352578477015413,0.38920878855291474,0.42310032788503626,0.45942890738546405,0.4922499302489769,0.5250261904030795,0.5548887511351281,0.5847427080066203,0.6145992659908217,0.6467963037409079,0.6795434341144906,0.7146081781412283,0.7491332476819885,0.7867258627768903,0.8202139247284979,0.8596211845534076,0.8976406102119456,0.9309206957522276,0.9651922682442848,0.9742242599837023,0.9513884094453682,0.914054250748985,0.8793612602766256,0.8430381609510296,0.8033117801128313,0.7635571040049205,0.7238024278970099,0.6840477517890986,0.6442930756811878,0.6045409017353924,0.5663748850393113,0.5331550369001636,0.4939091769471875,0.4543298071747477,0.4200279125597559,0.3832603798339138,0.34365823404291285,0.30905524429542,0.27263352789540796,0.23501035212723953,0.20243674846574167,0.18577565800287932,0.19667490642017516,0.21311822489060517,0.21765674819696557,0.21696668140921305,0.2076714380228526,0.19438913643553657,0.1781774870381474,0.1660932138525415,0.15602933276254238,0.1490382531636174,0.15498859698609557,0.1557564270875651,0.14916042083146452,0.15117949786288953,0.15897174010679316,0.16694131209390872,0.17619809202944814,0.18274597706819518,0.1778106159932149,0.1679393018419777,0.1580124388145605,0.14962568177630264,0.14859630779537936,0.14873875188529695,0.15355806573473796,0.15016963441478026,0.14701288653274447,0.13523985106235648,0.11427080392140954,0.09218834372163354,0.07000207935690983,0.04814381981007432,0.028247995698901684,0.00858864420209926,0.0,0.0023803040141467946,0.011478682237777482,0.018805454350454553,0.01910599235532162,0.02383747332481745,0.03924212170353836,0.06521517708930435,0.09688379406040504,0.12897755638609798,0.16217536144787337,0.19872480827158379,0.2326962367433132,0.26971288618468936,0.3049387889332116,0.34033779872685743,0.37375686290740506,0.4090274615997149,0.44206185882433124,0.4734024753407975,0.5015130486726278,0.5308710723226036,0.5603002010331204,0.5855301347714919,0.6205886840364969,0.6547748367489798,0.6915618377426413,0.7270417839715395,0.7625362132216951,0.8020631884815701,0.8362450924875071,0.8728951524015549,0.9061166959758589,0.9232752645307845,0.9055656877964864,0.8706450428403099,0.8364364254349159,0.7968441731899183,0.7575920771232203,0.7243552910536579,0.6862112981665744,0.6465862032679546,0.6144999788139263,0.5866083022663255,0.5529030410208988,0.5133464551451159,0.47371025924991406,0.43900490718827845,0.402688957469193,0.36296515811169416,0.3247720456698431,0.2915695813612622,0.25233346852633765,0.2125790440676414,0.17314724488819433,0.14358641082754886,0.13187043623445627,0.1306940689873506,0.12804806843378658,0.12480078603502509,0.13057204353697416,0.12535723748711303,0.11981218261265991,0.12451800283263714,0.12199640150345625,0.11808251687710825,0.13379982180732242,0.13984938638934286,0.14252398523197485,0.15499399690597881,0.16147688115778625,0.16587789209956116,0.1705052700400307,0.17426161921497285,0.16843859094736024,0.1584889213501084,0.14512371918102085,0.13468595849948173,0.14901270881661466,0.15613641135124845,0.14947016195739082,0.14859617463920727,0.1485803351768069,0.14579641839486146,0.14509378403645878,0.14168897712141493,0.12423160905069452,0.09958845190326326,0.07852862112866998,0.05715829720971555,0.036818840153398646,0.02411382520596317,0.02707876247948926,0.038108482595166526,0.04644950076897181,0.05444993680039367,0.06257679719968534,0.07534866963603704,0.08953004409295451,0.1094383625494002,0.14044795025940293,0.17236139247482107,0.2066595688883779,0.23965415590554073,0.2772676819919,0.3102885558866344,0.34795002326721436,0.3809178116037637,0.4173494493642236,0.450662651931252,0.4787602739224659,0.5057827610894716,0.5369977191469197,0.5637612285580187,0.5923821424415916,0.6227124065866292,0.6601138446507759,0.6982829469746703,0.7314978829675309,0.7704534030445884,0.8041551815802899,0.8415979900074857,0.8782183445338132,0.9126372795168487,0.9503131360669823,0.9821355252749375,1.0000000000000002,0.982110985207983,0.9456942504528703,0.9124163203780966,0.8731363455119416,0.8333912698162453,0.7958468790440805,0.7622051105539687,0.7227526877271109,0.6830739991270891,0.6479450181545561,0.6120866432521532,0.5723689427567247,0.5326213982037875,0.49483085170773133,0.46136762994065816,0.42198519778633803,0.38229553133994876,0.34686435275322847,0.31130830013015687,0.27160145281595205,0.23187374685540396,0.19550250392204105,0.1668021553446466,0.15035775218195724,0.14974956763746117,0.1600577101124263,0.1719498722900945,0.17431926591060032,0.16794316579224478,0.15173515165600215,0.1366596748370581,PM
0.04283156708495994,0.059678008943762295,0.08643507073126044,0.11320723363537966,0.1301872907564845,0.15282255737155082,0.15528109697438985,0.14513895325576487,0.13081961441692969,0.10618722253618262,0.09177107986686872,0.09645271998846694,0.12388266454116292,0.1452633365282432,0.1590979717590869,0.169461863422951,0.1644687387513264,0.15920864475576113,0.17241437768967416,0.20167501320901715,0.23666960095426093,0.2678457143694021,0.29693477203793817,0.3347646615881078,0.369962514876074,0.4061663574718285,0.4448369606604846,0.48352226116531194,0.5202283018061206,0.5549826724810466,0.5935032761566829,0.632205117136922,0.6709069972728646,0.7096088774088075,0.7483107575447502,0.7870126376806931,0.8257145178166357,0.8644163979525786,0.9031181873995816,0.9412627373547843,0.9571666782742482,0.9266658494191259,0.8899026570403176,0.8552458602051628,0.8167554746451321,0.7780536461370914,0.7393517660011485,0.7006822232731599,0.664516640043526,0.6292824248634458,0.5906854811945562,0.5519836095247114,0.5133400669870588,0.4776131724291327,0.44195928119958305,0.40332274190559303,0.3659370843089099,0.33168191031897687,0.294385907260741,0.26532358888857266,0.23357767796831974,0.1959265885417295,0.16152143090288373,0.12764486370969153,0.09720864308470756,0.07348536244350834,0.05611219960261182,0.04408505202321111,0.038471890446060364,0.03123416577767224,0.03667228332791417,0.056804054290852,0.08470353662461139,0.11228736912782122,0.14126950550410033,0.16866074742206416,0.19194236927865804,0.21921117661344336,0.24649387973570247,0.24929691474087423,0.22708885061462858,0.20489613263813322,0.183556489413517,0.1641597065855488,0.14847591302709662,0.14576527689322083,0.14673778480023214,0.15194855216158876,0.15474637823295578,0.1584947072532774,0.16250337757502797,0.1556622704697881,0.1485443107648452,0.156450153158759,0.18824810939605474,0.22071730080638574,0.2554361169554039,0.29212610139229034,0.3267680517627508,0.36526576381371456,0.4039504229351262,0.4406193664917596,0.4754054130091133,0.5139320121102594,0.5526338589109406,0.5913356035324545,0.6297719370946911,0.6642394453951707,0.7013095470579899,0.740002015387378,0.7786986943435229,0.8160756116121847,0.8451429143346073,0.8349008729183419,0.7974874337901182,0.7587869976562257,0.720085117520283,0.6814809420399256,0.6462758527084048,0.6100861634312488,0.5714188411797884,0.5327331987307605,0.49602952196337513,0.4612717712430615,0.42275253428197146,0.3840720318825718,0.3475352655456384,0.31271148449380004,0.279013556323057,0.2475714843072413,0.21310405670425359,0.17638924311762583,0.1384375612084361,0.10460157583430374,0.07275882576032866,0.04854468164265591,0.03660481559804585,0.027795679229281833,0.01951788152008649,0.007292692985619853,0.0,0.00803017874204881,0.030655130246893814,0.0589789900042772,0.08738962257240024,0.11881550862189838,0.15155161067161915,0.1842951971488508,0.21396319725404955,0.22522185848525667,0.20943983485483197,0.1885729778788291,0.1685729290054353,0.15277641622272353,0.14000439683467103,0.13629581359140464,0.13948887523128073,0.1414562262363579,0.14008673027911,0.13877360570333774,0.14522414597232247,0.14020195449429285,0.13461831906745314,0.1470377690444944,0.17601428530180874,0.21088323145944432,0.24496291130358727,0.2825648272446025,0.3204015820190612,0.35447485387524924,0.39252881863557965,0.43122716704235964,0.46895795261887974,0.5030478200595309,0.5411949341833752,0.5798961665113701,0.6185980466473125,0.6572351471290184,0.6928402449052128,0.7271571565046401,0.7566763830242546,0.7936675537472547,0.8260547437793383,0.8136191660429336,0.7781738950482752,0.7395203491753609,0.7008184690394171,0.6621165889034747,0.6234366343798438,0.5869187635633392,0.5520098525060951,0.5134502898103411,0.4747507541141164,0.43696992502903764,0.40290049679261697,0.364783639251279,0.32654412238585795,0.29240254394051546,0.2548176009601594,0.2169566253086469,0.18291238438998814,0.14603641763810882,0.11267236179157036,0.08170781128905591,0.056015745045203014,0.04018873878944895,0.0350621154869889,0.03029233289904898,0.024380843601154778,0.031118272043246464,0.05219686126386225,0.0815142658926129,0.11059799852906749,0.14046075878502007,0.17128430141882323,0.20076299977944478,0.23079107731974002,0.25893654943491995,0.2652584232343672,0.244613088695402,0.22339290001297074,0.2034214519210794,0.18685128066359813,0.17352526234823595,0.17078095234612478,0.1744589254236849,0.17099236697478737,0.16788031534234915,0.1693136914822626,0.17583018345693124,0.1747607238603366,0.1717906500077735,0.18813541063106565,0.22029108223803406,0.25409437929639134,0.29194012369098765,0.32796406017544666,0.3633281067941968,0.4019436537265152,0.44004400312113934,0.4741075858897047,0.5119111762810543,0.5506108608204537,0.5893127400304167,0.627929412546241,0.6633476395326269,0.699317513539348,0.7379790172968909,0.7766808974328333,0.8153827775687771,0.8540769890472918,0.8912722084891801,0.9256535582823197,0.9640466450942918,0.9999999999999999,PM
0.21147161979964846,0.22431766580301193,0.2133264801714181,0.18840625122600185,0.1582148232359475,0.11900684395310712,0.09173718611833781,0.05926010048606134,0.03425999133483115,0.010851662083097846,0.00017728835326025205,0.0,0.004841052363477871,0.013471526838512826,0.023532647994564115,0.029702708740201533,0.04222139666587621,0.06399825467168263,0.09654145807030767,0.13439174610311477,0.17244023693778399,0.21551173166768178,0.255574049342826,0.30431147207943976,0.3533316724753788,0.39324877269582004,0.442736915818315,0.49240519073321476,0.532602057850728,0.58116321168312,0.6317196532496916,0.6810806660485977,0.7211445507440115,0.7697814913981182,0.8065787675805445,0.8449405706387005,0.8917490411607694,0.9329818335012883,0.9764852094723011,0.9896840091525654,0.9625374134164315,0.9135573542401652,0.8630000939909181,0.8124416628878741,0.7618832317848296,0.7113248006817847,0.6607663695787411,0.6102092990495311,0.5613259269056141,0.5212262837452393,0.4717825232694648,0.42124593235722596,0.3756201874186047,0.3331806275710196,0.28279922893789244,0.23229667808286436,0.18749417303471771,0.1473489785582811,0.12745638287247463,0.11190981522257948,0.12116402010436822,0.13183593407993532,0.13247304950867367,0.1304021086592182,0.11820133286980683,0.09958736580639105,0.08002874810761762,0.07623728902116778,0.09208533425599086,0.10379771564830298,0.11764920415235514,0.11922566216022856,0.1211391082959814,0.13166115774342124,0.13375953898467774,0.14429222231715322,0.14572654100164506,0.14784395046802068,0.15825845190979093,0.1590269005534326,0.16551690275233755,0.1721367342527489,0.17222539400744896,0.17222539400744719,0.17222539400744497,0.1722253940074432,0.17222539400744097,0.17222539400743875,0.17222498645140316,0.17148370300730287,0.16100199426287842,0.15845547718472774,0.14871321991928976,0.14567414001343426,0.1400179715324028,0.1399593137230175,0.14938032174082183,0.17110587756725426,0.19620029997087052,0.21131221785638443,0.20945172681362223,0.18880735408360572,0.16060796799104393,0.1305670203101128,0.09775592433114966,0.06789981635761988,0.042570144434264545,0.019287931895866084,0.013256727250019473,0.013386624023844718,0.021386370623375228,0.02644650081844757,0.026478295827871978,0.029791912690821043,0.04906926723145766,0.06972424161961532,0.09617533501030495,0.13035236018620067,0.16848734717327618,0.209758391169943,0.2530327184524168,0.3016473445385359,0.3416548989208006,0.39134685291216176,0.4408728259923045,0.481008184075709,0.5297731903092697,0.5803242339134669,0.6272050214800431,0.6685632585243488,0.7187553264770323,0.7693137103538286,0.8198619666636664,0.8665424889149689,0.9080594589505226,0.9580280760837847,0.9898543051967819,0.9716093983356258,0.9251904666053163,0.8746560830891998,0.8289003645294728,0.8023743348014003,0.7625896022706766,0.7121561828991987,0.6615977517961555,0.6110393789723099,0.5609228716122119,0.5198265440034606,0.4726089954653907,0.4220752611860683,0.3762580016238575,0.33399171400307415,0.2836306111553055,0.23312030653660543,0.18889727288779667,0.1636682990299314,0.15147049270940371,0.15851822503415125,0.1589751789569247,0.15894137469027791,0.15359016924183422,0.13716161004290317,0.12023877848097442,0.10032615637161069,0.09818325570218311,0.11820325573477009,0.13509184071899538,0.14535566240588293,0.14572503826267225,0.1457268676797363,0.1474757892885492,0.15805581884233044,0.15897465115195963,0.15897523991560147,0.1589752399155997,0.15897523991559748,0.15897523991559526,0.15897550786593495,0.16006259593424632,0.17051213361856998,0.17438376460692684,0.18476792029263978,0.1854752277911662,0.18547554809908906,0.18547554809908684,0.18546794462113292,0.18267444169426694,0.17197571248391608,0.15916022522219242,0.14660030285821524,0.14211392254308164,0.13279276621290714,0.1324819050203141,0.13626098237583717,0.15214444961464002,0.1710637472622012,0.19595891939455434,0.22123727103818913,0.24500455102049168,0.24959321737320117,0.22980671011104326,0.19818751740326324,0.1664844260534788,0.13575488359692223,0.10872408732542915,0.07842386311856142,0.05792292710491065,0.041047588950168024,0.044141595551809854,0.05275484786213225,0.05134797956521808,0.050021685912592595,0.05298399075425397,0.05768797558802685,0.0716983200292205,0.09992162052586906,0.13156376844229767,0.16607862561770137,0.20737572575873786,0.2497190896690844,0.2929612533064727,0.3375773914561515,0.38711440233423966,0.4272815070158926,0.4759412991069163,0.5264981414487644,0.5767526914233958,0.6181092998534594,0.664936617305599,0.7154817117691876,0.765974737221792,0.8094519957113708,0.8539734870102142,0.9044623655155775,0.9527200663253423,0.9878803593989063,1.0,0.9674928552011979,0.9176633180418099,0.8671050436897141,0.8165466125866709,0.7659882658879837,0.7160503562921758,0.675573087349286,0.6275595583331359,0.5770046111632023,0.526446180060157,0.4758893444297021,0.42723612822258783,0.3870670393785427,0.3374630298083714,0.28788284306767986,0.24793723845554538,0.199175667308217,0.16272232716381918,PM
0.268017289178891,0.2703116114549631,0.26053389762024004,0.2622884234277114,0.2826732963839209,0.31209469737675,0.3449960628406219,0.37856714363452615,0.4138278591154858,0.4405696902049314,0.44432311999912133,0.4150110397428348,0.37654058062871587,0.33090614511360017,0.2879599424611521,0.2454797774919435,0.20338809562830562,0.1597711944278184,0.11862729312801301,0.08016617577983709,0.04430601339491336,0.01488646366680424,0.0068856741299447854,0.02145827350206586,0.03996255187129405,0.06724833567705191,0.10516878233407345,0.1484180924222671,0.1929646049672904,0.23967513429537535,0.2868951574932528,0.3369920847437273,0.3824596407044274,0.43293515761864,0.48421745461400634,0.5333315036942949,0.5793821609630583,0.630364959222969,0.6809670536909012,0.7264661628060507,0.7764995352120958,0.8266447636015932,0.8721228565522874,0.9224722851455291,0.9683711745355155,0.9955005215342174,0.9703364424399261,0.92415168373901,0.8765922143582545,0.8257486857340894,0.7798639007484869,0.7305170787116382,0.6792363719182046,0.6295553286856215,0.5839183782259401,0.5358947904354079,0.49275924969369655,0.4479137227549206,0.4022395849822413,0.3557776362289433,0.3232474964070742,0.31646429948942,0.3021280536572748,0.28527715756366834,0.28226530612530487,0.28694034963018256,0.2761870828160986,0.26231952532990754,0.2742553612652081,0.29737481811021804,0.32731869983561945,0.3619259765898979,0.39160167680546354,0.4204270445522693,0.44593656051247765,0.4360867934295438,0.40137099679253607,0.35980911691769024,0.3179962476086102,0.27559030451254296,0.2330480544459428,0.19139230439458776,0.14926642771503196,0.10715571826731307,0.06361653763744246,0.02460332049210634,0.0019201376160327133,0.0,0.00836722633042064,0.02593949420189845,0.053811605053748934,0.09044459901676194,0.13202352794026284,0.18042682478444494,0.23153613753315017,0.27820565787548013,0.3265642968046363,0.3776867468638996,0.424524061258019,0.4727024878591424,0.5239454606106426,0.5729437251143388,0.6190811720212617,0.6695769140062262,0.7152178052881424,0.7631171811029507,0.8088865618159815,0.8577700092631539,0.9036315490928146,0.9499198822622825,0.9640807393499646,0.9284605266201522,0.8819348834014269,0.8338407411422384,0.7825877294167198,0.7312889289214612,0.6799901284262029,0.6287032132371246,0.5794750145799581,0.5345459904372301,0.48986815524170213,0.4450081303055373,0.3989917901387443,0.35327173866947725,0.3177584362951582,0.30428142251530854,0.2885849472306248,0.2660456744975226,0.245647752052639,0.24664573352520214,0.25614994620976517,0.2499765333542039,0.24656339197897448,0.2654538565348137,0.2948383006630322,0.3268782275153834,0.3592924182173638,0.3914274119404004,0.41828700464247337,0.4208039048266221,0.39260445896791274,0.3534769900373145,0.31231969890828304,0.2696672692295541,0.22598555972494272,0.1846884489773677,0.14155715469530672,0.09549526917681872,0.05658831507911066,0.02219623624093625,0.00488340831251044,0.015485792502581086,0.034329496675292726,0.05533575386371736,0.08549581971522158,0.13015340122775676,0.17528349609576233,0.22074396432811905,0.26970832984945114,0.317436682276901,0.36468159539168044,0.4155837986305424,0.46167562628193504,0.5107348185207963,0.5617526334047698,0.6079662096202227,0.6568720067369545,0.7076680788907963,0.7533416681094907,0.8003421413719993,0.8465421095306624,0.8928239668991782,0.9408680742899995,0.9814727783269719,0.9800353079967574,0.9370879715898655,0.8859464402068515,0.8346476397115938,0.7833525320346486,0.7333949582500205,0.6878599227220992,0.6373032185176479,0.5899399562364105,0.5432803450078063,0.49809469571962994,0.4524478496868136,0.40549836885126633,0.360656668159804,0.323239675729023,0.3163948174048081,0.3098129592177228,0.29187462384791596,0.2714918681123213,0.2654687716660111,0.2713829838710331,0.26612467868638423,0.27248274773924863,0.2934495636581551,0.32224778266264287,0.352802142178539,0.3847771734220067,0.41745536311273135,0.44487313429101416,0.4416470744177319,0.41088166033869333,0.37105102285720926,0.3275555124617826,0.28457085463623333,0.24069448909348434,0.19480999740800575,0.14995862425739093,0.10721686607007497,0.0666549365857041,0.029738549709855233,0.002326191758177387,0.0013031726825880607,0.01740026900567848,0.03626663157641952,0.0641865258156753,0.10439787106436471,0.1462133518494111,0.19116433166034996,0.2379300319208919,0.284652671402454,0.3328117135531863,0.3840538003621057,0.43307136229523335,0.47919461361351523,0.530203780955111,0.5813363588439895,0.6279499478357222,0.6763681437774569,0.7269666728116992,0.7724473118642305,0.8193086341300191,0.8661001946060853,0.913904019860637,0.9607731542555893,1.0,0.9878842004011505,0.9412037569173772,0.8946875370888518,0.8461884006639502,0.7949200244748165,0.7446354636739547,0.6991913950223487,0.6487835004029179,0.5979642981093445,0.5526498948757592,0.5086881148923872,0.46452156152154034,0.41750329013923215,0.37221175794668127,0.33487921192329284,0.3269467677209106,PM
0.32997060122314403,0.3248226737312345,0.3311749800721904,0.3552815848518598,0.3848372270275171,0.4163945328936487,0.44952884343368815,0.46744718289673304,0.4591633015335772,0.4307695410629375,0.39965636630691637,0.36739926306864445,0.336333716568634,0.31036565320643184,0.29753972924566185,0.3007073807448055,0.3089230292736129,0.31736687263898977,0.3327155158169659,0.3603196423167023,0.3938771831913619,0.4294636368650544,0.46470811782469834,0.49387055153633974,0.531906607840946,0.5731569582901348,0.6101123587165771,0.6493447134065871,0.6907909715794931,0.7299213809315346,0.7669784347292667,0.808272597303608,0.8497412524055192,0.8891169730277104,0.9259687527824945,0.9670936090171598,1.0,0.9912367348588726,0.9568105499255379,0.9162535028169461,0.874771746424853,0.8332993695244919,0.7937589512675691,0.757043622228943,0.7158257596909929,0.6743426195177917,0.6328594071955371,0.591376194873283,0.5498929825510288,0.5084097702287742,0.46692655790652005,0.4254435524956792,0.3843251972072439,0.34784638025909365,0.3079745359621757,0.26649743099945833,0.22501421867720417,0.1835310063549498,0.14204856003855715,0.10219521296023804,0.09858982025440388,0.1322214384550794,0.1728457406744448,0.2135992753375382,0.24978974651337915,0.28904561578807364,0.32465206953991443,0.3551568194750263,0.3655286233692021,0.364081325941763,0.3494401987313087,0.3384647608042213,0.3412246173357596,0.3568048365837746,0.3654574637565158,0.3647379161357651,0.35946880416118954,0.35759778200915626,0.3474908290111569,0.34011519316332484,0.33827561882716894,0.3462594754260784,0.3518718137944603,0.3543441935774003,0.3471346309944483,0.34532037702983565,0.3666735619197452,0.3973551589450588,0.43230475898601806,0.46454305514971717,0.4905450602501764,0.4937144146610979,0.4700849536466898,0.4389692871916888,0.40325296504443964,0.370271556180513,0.34067116015619536,0.3132776967623847,0.2922064006700942,0.28249751979254123,0.2849631004128612,0.29231952833662866,0.30686447866110544,0.3313573261593381,0.3642694873359362,0.3982689091974394,0.4278306069989284,0.46290412769149003,0.5020410315136223,0.5420638909126387,0.5784500150361347,0.6194886619854172,0.6608400368166829,0.698222170085167,0.7369819367150845,0.7784342467384957,0.8198838203358052,0.858538172680017,0.896006096824111,0.9362999389679256,0.9607689454522417,0.9429792607261254,0.9037235277767468,0.8624988097701651,0.8257175929676432,0.7862575465963375,0.7447873611825313,0.7033041488602774,0.6618209365380225,0.6203377242157677,0.578854511893514,0.5373713149453034,0.49603692577013736,0.458793842370983,0.41988574635751474,0.37842538498645295,0.3369421726641979,0.2954589603419435,0.2539757480196896,0.21249253569743565,0.17100932337518104,0.129526111052926,0.08804289873067206,0.04656016937530061,0.006335337220594206,0.0,0.0375800560177042,0.07379147737988545,0.11418478445201152,0.15557509746816367,0.1932563084550012,0.23167866071257315,0.2714527793542474,0.30698610332765974,0.33699166835022387,0.35086965430335204,0.3497683500544635,0.3363146978073983,0.31995245330319344,0.31951137377927363,0.33179545820600453,0.34361771592191426,0.3448664811236608,0.34341071610939267,0.3360274774442431,0.3303764065083352,0.3248568087542072,0.32490157188782876,0.332862309954681,0.3377361639100378,0.33603140967843736,0.3368436447196044,0.3589156779975333,0.3881395482791725,0.419217448972363,0.45174445575863587,0.4747914338384447,0.46676812883904883,0.44011301732735464,0.40982905634986877,0.3785880768794547,0.3450689574786392,0.31661805460562387,0.3035615706722503,0.3056204916057532,0.31238309769344563,0.3181347291000727,0.33478982552435665,0.36305789925235366,0.39737523271399433,0.4337199693297975,0.4723171054127131,0.5088567441743517,0.548613789721569,0.589975461678441,0.6274925446491064,0.666102860354038,0.7075511091706168,0.7489534842496424,0.7867049354860318,0.8250596710339142,0.8664756054771328,0.905464194251119,0.9425721051133342,0.9774562801665736,0.9772738629096269,0.9405393393647994,0.8990753192977996,0.857592106975545,0.8161088946532902,0.7746256823310351,0.7331606398753923,0.6939323243995705,0.6569732766838792,0.61567976774623,0.5741965554239752,0.5327133431017201,0.49123013077946553,0.44974691845721115,0.4082637061349592,0.36678049381270483,0.32529728149045023,0.2838140691681952,0.2423380044121941,0.2024409843081716,0.1659717680421492,0.12486797881086131,0.0833849422611348,0.04190336379496662,0.0025319804412585745,0.003228723809208467,0.04286174507303264,0.08434255974399307,0.12493395791087303,0.1610942288105176,0.20180674861888703,0.24248935354181955,0.27861429851613173,0.31579486567096504,0.3460894185031431,0.3603158356097813,0.3618627893272537,0.35108269001468684,0.3340933895487119,0.32240487247668037,0.324434325921904,0.33637081211740183,0.33787267747303407,0.33586930530668235,0.33052085678354914,0.3221218153584664,0.317041627013104,0.31773000894167436,0.3244467673284088,0.3304396841935471,PM
0.9999999999999807,0.9861759207577194,0.9714820811515881,0.9567882415454569,0.9420944019393256,0.927400562333194,0.9127067227270633,0.8980131094222603,0.8841943387037994,0.8742384020088576,0.859804244893724,0.8451104543195471,0.830416614713416,0.8157227751072846,0.8010289355011535,0.7863351558229668,0.7719184328018203,0.7639005596331132,0.7539098644660795,0.7393055967167779,0.7246117571106465,0.7102966685560992,0.7004086781890762,0.6864030174669178,0.6717093283092621,0.657015488703131,0.6423216490969998,0.6276278094908687,0.6129339698847371,0.5982401302786062,0.5835462906724747,0.5688524510663437,0.5541586114602124,0.5398681449290079,0.5299944125884983,0.5159498768454016,0.5012561826588278,0.48656234305269663,0.4718685034465653,0.45717466384043415,0.4424808242343028,0.42778726792390875,0.4140382026105107,0.40403444155033474,0.3895783606495662,0.37488455582678726,0.3601907162206561,0.34549716996809865,0.3317604056085357,0.3217482049544944,0.30728825515037816,0.29259444781314015,0.277900608207009,0.26365117838137575,0.25380120941838924,0.23969188197372904,0.2249981794056245,0.21033137500112276,0.1991104428868049,0.18677775500330074,0.17307774122772457,0.16304897820781383,0.14956706806918496,0.14000013040271786,0.13045101763586409,0.12121195980947708,0.11281351941272177,0.10358072436051502,0.09517853638576534,0.08594948891155274,0.07754355335880869,0.06834726987501483,0.06348408379057424,0.05606286977859842,0.04279343642129907,0.03305625151130798,0.02558838336321645,0.018307269007507454,0.01107051285509808,0.005892136926068603,0.002088916440312061,0.0,0.0046645120117206895,0.012088478818723103,0.023692356043176876,0.03335263865589122,0.0429882698336832,0.055289065964030826,0.06337373907997201,0.06929104391113183,0.07825182860374369,0.09056789721794023,0.10057308590965897,0.111946286667992,0.12363944760578915,0.13328053356221825,0.1425611022671217,0.14999610975893152,0.15745242043552476,0.16487175394080755,0.17497764119476622,0.1844907460073174,0.18970164265037848,0.19702530967942256,0.20606548628208576,0.21138900982393838,0.2159185226211796,0.2204105362849934,0.2249414167870326,0.22880503666500818,0.2250276632297653,0.21836905657555283,0.21604431208397568,0.2090323969221184,0.20541486086724037,0.20652265058945185,0.2111645325236533,0.2114372715832047,0.2159650151365342,0.2171326190614209,0.2170610229402561,0.21183387354267458,0.20190567249756586,0.19646178575801065,0.18814725481444516,0.1877780816721376,0.18976570282518646,0.19378810068571017,0.1987484788883359,0.20597555232428155,0.2115457007454934,0.21773231165221174,0.2229336695332843,0.2229681992071335,0.21902352047393459,0.212417880682641,0.21126034026414053,0.2112217739006268,0.20734968007130838,0.20283568729661994,0.1995328545372369,0.19970701073974229,0.20469524358421098,0.21069631344297612,0.21126013030679835,0.2112601303067987,0.211256586604591,0.20865635621914147,0.20582165209342662,0.21070902509181533,0.21129402912436523,0.2147666787156841,0.21713224692146438,0.21709196824083765,0.21190797400382755,0.205520425476862,0.2014208419551402,0.19952279860732092,0.19951427106052044,0.19952508952599524,0.20155220883547098,0.20075196391802042,0.2048012794342342,0.21073738367467387,0.21126013030680202,0.21125963914910406,0.20992377415588936,0.2028331373012222,0.19953181448081347,0.19951427106052244,0.19951427106052244,0.19951427106052277,0.199514271060523,0.1995142710605231,0.19951427106052344,0.19951427106052366,0.19951427106052377,0.19947025405208318,0.19547663224060075,0.19360475603900462,0.18959722260915102,0.18777605255381635,0.1877706578098426,0.18912418200256365,0.19356745892617966,0.19083233145506562,0.18758190104606287,0.17929081822471082,0.16619756700848598,0.15578486321849228,0.1427034892149669,0.1358864998613296,0.135531986843488,0.14429579960569672,0.15454050782111084,0.16917080134096874,0.18386464094709987,0.19855848055323133,0.21325232015936235,0.2279461597654936,0.24263999937162484,0.25733383897775597,0.2720276471531471,0.28648833173438204,0.29496879764752393,0.30449690007012253,0.31905717776213205,0.3337508769776243,0.3478342877416589,0.35769376205565506,0.3719596065635167,0.38665344616964803,0.40134728577577894,0.4160411253819103,0.43073496498804165,0.44542880459417256,0.4601226442003039,0.47481648380643526,0.4895103234125662,0.5042041630186977,0.5188980026248287,0.5335918422309598,0.5482053260058457,0.5590843233843306,0.5718011237406475,0.5864942710323446,0.6011881106384758,0.6158819502446067,0.6305757898507383,0.6452696294568692,0.6599634690630005,0.6746573086691319,0.689351148275263,0.7040449878813941,0.7187387826463363,0.7331793879337161,0.743149390618433,0.7569476597471692,0.7716412562889108,0.7863350958950419,0.8010289355011733,0.815722775107304,0.8304166147134358,0.8451104543195669,0.859804293925698,0.8744981335318294,0.8891919731379605,0.9038858127440916,0.9185749676347463,0.9317038814938237,0.9421500231824398,0.9567882415454763,0.9714820811516074,0.9861759207577387,1.0000000000000002,PM
0.2362865114517656,0.2466502092167877,0.2635343997595614,0.2971610554132966,0.3375962140477853,0.39449099829473555,0.45318784396795664,0.5192339420585639,0.5854155410335045,0.6505285088375903,0.7177139528795657,0.7818525464032908,0.8548255732214574,0.9256805640492844,0.9729261497286776,0.9607636430248219,0.901810667482275,0.8381045134484459,0.7908301108010067,0.7278367795864464,0.6548903453795387,0.58169869992996,0.5085070574157298,0.43549469728818746,0.3708480092261386,0.3040394861987328,0.23091435039722308,0.15772271962438733,0.08489704765179473,0.044161437131634784,0.09387945097665984,0.16664675697623288,0.2381766797449023,0.2976484903563841,0.33981052576938753,0.3591967473719273,0.36021230219202094,0.35270831126658964,0.32085239707613233,0.2772118438948348,0.2458323620825893,0.2690537478855952,0.29507931964593404,0.2867151272121693,0.284389515924782,0.28720711424258294,0.2986558546589162,0.3004840895654306,0.3160922340323751,0.3421916155559148,0.3575464868892855,0.3357602077442099,0.29313593979282704,0.2452546710479262,0.20910156235577526,0.1971149650120645,0.20924672084194818,0.22979454803168853,0.2487215661661053,0.2772333358390102,0.31659565560544234,0.3752230884330081,0.44498451858621335,0.5067087724708155,0.5745549421343221,0.6374411881467537,0.7039623110781901,0.7682993650956496,0.8331747981541926,0.8985148990681933,0.9523025359580193,0.955052288408575,0.8999763004573387,0.8278616216739079,0.765886239732656,0.6959392631448318,0.622757427865039,0.5495662627090931,0.4772073786182811,0.4154049114778706,0.3451571695132163,0.27197307833230244,0.19878143288272332,0.12559489477598795,0.0574712064759515,0.06931965086101854,0.14074650252858412,0.20964003400702236,0.2714552939374686,0.3163737662451602,0.34112084433938694,0.3558425164704917,0.3509779338524215,0.33088063877247054,0.2990653011755504,0.26557410153325467,0.2835556384640028,0.3121572358868798,0.31472344942334773,0.3147890754193132,0.32099584254057056,0.32974375023075053,0.3351467861700588,0.34987123737789716,0.37514867095351123,0.4017312238235884,0.38573072483716375,0.34713833257261495,0.30819199800665986,0.26809600491012153,0.2563585708740641,0.26778735630245887,0.26936648186977497,0.28091091434250925,0.3172904529686451,0.3670012582313946,0.4256540409844538,0.4885064716330043,0.5544876247514994,0.6157858176234798,0.6860158734801058,0.7477077969944492,0.8180120335533667,0.8823011457813474,0.948185218581096,1.0,0.9928902616955413,0.9266558438622741,0.8635991396513778,0.7950056072592879,0.7218339235345406,0.648642278084961,0.57559379137613,0.5107272864017989,0.4608265564860101,0.4011879037096029,0.3282056751764917,0.25501403853296,0.18182239308338088,0.10863497029826696,0.03778057341697183,0.0,0.0516358349220396,0.12438095785944858,0.18793068315780337,0.25573173024524376,0.3181048703103291,0.35541815338288796,0.3744447219118898,0.3749304460214007,0.36328464065060784,0.3366960797327496,0.2927267863283647,0.2792538117773713,0.29715349802453206,0.29822964659846285,0.2813621932193944,0.25930937759921235,0.2553286937009527,0.26823920723089856,0.28292669877757914,0.30181329673859025,0.33268039111197023,0.3425269853193553,0.3158583300818716,0.2734880315399031,0.23745997167413613,0.21312058536404743,0.20871922836842982,0.21781508206732791,0.2403848945597935,0.27019927597612625,0.3091770828856162,0.36254767967874235,0.42254318610272623,0.4886848658991587,0.5524169833604482,0.6178965725476786,0.6835647462230523,0.7529355732266829,0.8151090112143757,0.8792963402331595,0.9333665475830255,0.9298492244294296,0.8743561744187147,0.8083271970626251,0.7352226479715549,0.6622193297630559,0.5977450936882787,0.5307602153599595,0.4576299350823523,0.38443828963277316,0.3112466441831945,0.23805499873361624,0.1650155656852199,0.10072502303253561,0.07628517768565102,0.13202959710129436,0.20462329718587835,0.2659946883157627,0.3062400323574961,0.3268625147362254,0.32956532720475984,0.3177413533858706,0.2870626944646282,0.24611817557895588,0.22978477454402535,0.2571493109178222,0.26902844343121224,0.2696345565111713,0.2766898015206558,0.27449607747765503,0.28810743914214765,0.2990873080268259,0.3070818579904744,0.3362873076695889,0.3410322646655355,0.3156486645884091,0.2776330850756703,0.23264862251312302,0.21025679025093735,0.2197427755264063,0.23239870113923677,0.2534708822060101,0.2765731994276641,0.3125579972269028,0.3643012935483152,0.42284010321419263,0.4889681297044257,0.5620619170042711,0.6350447978370557,0.6994902434620838,0.7661097763783205,0.8288574538188409,0.8953722578118835,0.9469991140317382,0.9554475169125651,0.9017349554245833,0.8325599826628927,0.7702965706242417,0.6977340592776913,0.6245425899490251,0.551367979933937,0.48203732415098033,0.4196075698783841,0.3469497567105293,0.2737582404162868,0.20056662725554375,0.12777692868076063,0.08670253605085465,0.14174613148415682,0.21038108092718044,0.27248190934397654,0.3224091904253372,0.3413515132742364,PM
0.10855549201698844,0.11464757615765109,0.13874304641362345,0.16783470609620044,0.19820860728730771,0.23101110185568086,0.26224501306879744,0.29723661070536456,0.3335511320309281,0.3677831981127271,0.39961449323291376,0.4345376431637318,0.46079152532211554,0.49277846808264414,0.5189123547904386,0.550541053683927,0.5834325919353642,0.6197004086503746,0.65603142978031,0.692362450910246,0.7286934720401814,0.764942126925271,0.7976026244550614,0.8281717902678947,0.8218632607873766,0.7885861828469576,0.7567493996763277,0.7206050485251834,0.6842740604603077,0.6479432123410622,0.612041567407517,0.580760084392058,0.5457536235162155,0.5094260160803823,0.4730999880693758,0.4382311318465375,0.4068782425442865,0.370908784877926,0.33457797170045733,0.2982469505705214,0.26192105789995757,0.22706973616479442,0.19576123095185083,0.16311602085204902,0.1328894657478914,0.111652838961803,0.09781047191280434,0.0914119016231405,0.0911645538125141,0.07009578551038897,0.04476322264929711,0.03068178510218056,0.026605456060548427,0.041346469225273186,0.038376813640062846,0.027879388139695038,0.02148596510826617,0.014240375052380405,0.0063270147150727984,0.0,0.00122946076174979,0.014732223107736364,0.0329875357522178,0.05384504940629942,0.07653344727090405,0.1006714574916967,0.12394035481577226,0.15010071458119323,0.16713995886399569,0.16004834169174398,0.1423455317358695,0.12917887385938642,0.12234166017087267,0.11646829995167596,0.11580789254677559,0.12236254937178348,0.1302041220736616,0.1359495343652639,0.14138053937069417,0.1425096448112657,0.14251206646178827,0.14251132172118308,0.14182392101338293,0.13299527928106447,0.12032104829217527,0.10630675406643397,0.10632421739163056,0.1194969066430902,0.12248542680615482,0.12750438088705995,0.12582440394429772,0.12857169932723944,0.14942151980594853,0.17780817141936844,0.20700718006236674,0.24059049416918188,0.2744139859566017,0.30657162843557884,0.3427729929718377,0.37877959132512995,0.4102285995500088,0.4449649017503039,0.48129016283213644,0.5176211839620717,0.5539287242579738,0.5877384228776816,0.619929624097076,0.6561382072120618,0.692469228341998,0.7287972698259524,0.7634788114297575,0.7896702165764877,0.8241314194683078,0.8555188130276368,0.8526777871331614,0.8180919397029403,0.7817618555864043,0.7454308344564693,0.7090998133265334,0.6727687921965972,0.6364377710666624,0.6001067499367265,0.5639445275035995,0.5319733224713823,0.4979063739397165,0.4615897266867368,0.42525882637831613,0.38923399362071587,0.35782384095045705,0.32306712448791286,0.2874873223513479,0.2564130446445809,0.22148716534297552,0.19038658764959449,0.1569020378856627,0.12588451936254308,0.09793158609061092,0.0741842319262116,0.059221061725716284,0.0502357420216053,0.042846811474075874,0.035815651866988096,0.03205351284929292,0.025220365121689126,0.020378395337158905,0.026822041166189692,0.04349413520384604,0.06211077064217463,0.08488026886047662,0.11161126660032816,0.1354801952350433,0.1553968735679121,0.17076508942048507,0.16517061714888137,0.14852724811861728,0.13516082736348145,0.1231333601595519,0.11571187315216669,0.11529207304418776,0.11698925808214033,0.12404144124380978,0.1334366280184205,0.13569583367206217,0.13682593009808097,0.14198122409321767,0.14241968158162766,0.1384095790068074,0.1293185433215014,0.11881047321456961,0.11970223406898173,0.12842073951828437,0.1330020801266596,0.13887959499841318,0.13929838565869623,0.1397589032800639,0.15925464988087934,0.1884918128616071,0.21944841970248952,0.2529811246213176,0.28417735022425683,0.319954847703368,0.3530461841467065,0.3859222246904417,0.4221884010748933,0.4579490617827575,0.48911047730813095,0.5243767819182825,0.5607058776459868,0.5970368987759229,0.6333679199058586,0.6696989297758016,0.7059089543148533,0.7382023758937739,0.7719092100801785,0.8082159642857845,0.844546985415721,0.8808780065456565,0.9172090276755915,0.9535400057315857,0.9892733001689573,1.0,0.967815566646564,0.931490509163114,0.8951596031353324,0.8591284899029417,0.8276970168878712,0.7929666017435268,0.756642464783188,0.720311443653253,0.6839804225233177,0.6477547446439584,0.6154768041552454,0.5817673893995208,0.5454633992733271,0.5091323781433921,0.4728013570134555,0.43647033588352047,0.400139314753585,0.3638092742244956,0.3282346924236612,0.29715725664604276,0.26222954730296877,0.2311233730038158,0.19623363702119545,0.1650185063952172,0.13286078029986292,0.10763776495320121,0.08518908680828097,0.06948525557963614,0.05815812691391864,0.05339441769730069,0.044302289337956546,0.0393377247137634,0.030713735465403458,0.027052945066221135,0.03399643861188317,0.04797212512828719,0.06707208080401572,0.08796171723132473,0.11142806054810106,0.13897964387791273,0.1613234473991214,0.1728381538964523,0.16119499596709086,0.14458464595937914,0.12896608065300974,0.11412815322501291,0.10219792325787669,0.0982304918541097,0.1027192908213359,0.11068332624578692,0.1202686186162294,0.12194732630043226,0.11774284878629593,0.11530436946805622,PM
0.8552092876490045,0.8484346890577514,0.8439579811994946,0.8336903012958816,0.8223020417987998,0.8104037717772501,0.7973381766136816,0.7865271447898423,0.780326253677915,0.787900667325995,0.8036723593764774,0.8231618620408558,0.8272873319422982,0.8214923581502176,0.8212476337203616,0.8212476337203634,0.8207258459999212,0.8140764651404475,0.8128289544709713,0.8194257091379502,0.8219530877409269,0.8239987667287136,0.8113792163191769,0.7961094128681805,0.7851978750781987,0.7782561327473223,0.7875577954213098,0.8095790030029746,0.8262689457061443,0.8375517874636071,0.8387621558315497,0.829423949966217,0.8062039650217849,0.7680170234195927,0.7260106070722709,0.6839845511121152,0.6419584951519601,0.600011407700682,0.5626970337624622,0.5246980428779551,0.4827256655744512,0.4406996096142959,0.39867355365414037,0.3566832928184167,0.3183493400686396,0.28136665805608063,0.23944072407663153,0.197414668116476,0.15538861215632083,0.11341716944465252,0.07584619013631821,0.039856547340486825,0.027689593633879128,0.05754840615078827,0.09309665506431919,0.13475827177190847,0.17678432773206398,0.21881038369221895,0.26083643965237446,0.30280976477881827,0.34082949666071294,0.37812410929041107,0.4200692692298842,0.4620953251900397,0.5041213811501952,0.5461474371103507,0.5881733138512861,0.6296710070765101,0.6649859542339125,0.7053839947336897,0.7474063226480157,0.7894323786081712,0.8314584345683262,0.873203386968848,0.9091499091067581,0.948674117473987,0.9899712785842658,1.0,0.9672762544246645,0.9292635066929018,0.8977552602964367,0.8775201633489713,0.8636578225005749,0.8568338271351148,0.8552932588174678,0.8480531030840555,0.8398852485349779,0.8277063213780922,0.8135805580609758,0.7972112506963134,0.7830652290176927,0.7770092529910664,0.7787067149983977,0.7848810753392956,0.7818346502642248,0.7963156056177327,0.8036572286999599,0.8097991030863261,0.811577518090876,0.8046668637038179,0.8035066238865689,0.8036939903980118,0.8093206422417545,0.8123484919496389,0.8094407295988808,0.7946819086986927,0.7827031056645506,0.770776749802438,0.7687205531264591,0.7794759746335813,0.8015779961695524,0.817243614413391,0.8258925627981377,0.8292047137521752,0.8169036115997155,0.7860460865496086,0.7485168560420155,0.7065656361295032,0.6660409457684966,0.6307696901770354,0.5893561211152682,0.5473302896788195,0.5053042337186642,0.46327817775850866,0.42135422044888515,0.3842731174197842,0.34602909935978254,0.3040453481810005,0.26201929222084486,0.21999323626068934,0.17796718030053393,0.1363645692683989,0.10083125386171765,0.06075630066522453,0.020256562251580235,0.0,0.018688369038419417,0.05895385492230942,0.10071650107731034,0.13676255771599066,0.176167788707423,0.21818416762664572,0.26021022358680124,0.30223627954695564,0.3442623355071113,0.386288391467267,0.4283123072700601,0.4690578828482963,0.5041867539299112,0.5455216021354605,0.5875472770049324,0.6295733329650879,0.6715993889252436,0.7136254448853978,0.7556515008455531,0.7976775568057088,0.8397036127658641,0.8817296687260199,0.9237557246861754,0.9655450060609101,0.9885394052404972,0.9609261021597781,0.9281880054816334,0.9002982488925662,0.8799944580725534,0.8685237708553932,0.8593173719030269,0.8527396418420985,0.8552199625256924,0.8444124474411459,0.8328447958142633,0.8192205847452709,0.8076227130391074,0.7941247685764361,0.7862306024493844,0.7913653105947964,0.8013595193949954,0.8118390987273008,0.814720971962057,0.8209547164987612,0.8212476337204755,0.820886770569454,0.8144937971250659,0.8123842504411489,0.8126149006989325,0.8184854120695624,0.8210173553376467,0.8135767475962128,0.80004883768873,0.7883965664830797,0.7730896159147527,0.7722134582733486,0.7879115914081574,0.8047356508036456,0.8191869480128402,0.8212420830758393,0.8200745854967502,0.8036190665981406,0.7707015894356253,0.7291415454908994,0.6874800706929527,0.6518526891548495,0.6119270542145545,0.569908857823034,0.5278828018628783,0.48585674590272276,0.44383879958359285,0.4041716967095359,0.3683446159725505,0.3266239010016371,0.28459786036505796,0.24257180440490256,0.2005486215451736,0.16006118114335222,0.1247770750913203,0.08333876362853632,0.04138935389116061,0.0067206680429889865,0.008986581649901626,0.04509726899392419,0.08146041033717222,0.12044412397028759,0.16245093778550235,0.20447699374565975,0.24650304970581327,0.2885291056659709,0.3305551616261242,0.3725811409683957,0.4142554327900141,0.44985358417522714,0.489794462199302,0.5318140471637878,0.5738401031239453,0.6158661590840986,0.6578922150442563,0.699912001294799,0.739933455707722,0.7755009769803736,0.8171250446217668,0.8591511005819203,0.9011739458922392,0.9410489425853763,0.949895307773428,0.9211677314557671,0.8948499739070908,0.8788115158540502,0.8642203491704381,0.8508201129071682,0.8533087409787325,0.8474602524938302,0.8379532509282634,0.8289740618069288,0.8199633939697233,0.80195193807445,0.7896417920762355,PM
0.20973439501194235,0.2320708525460642,0.25463262930297414,0.25973366369164896,0.2840591681983575,0.3290643979940242,0.4041442048409909,0.4781708461216043,0.5593955050115937,0.6333225576409953,0.7234202351387191,0.8123028654622129,0.8821314337487678,0.9615525841980226,0.9777693488886117,0.9113738013283879,0.8212759469448079,0.745557001090746,0.6659164297053719,0.5754328950273209,0.484911240910197,0.39438958679307046,0.3040345752298794,0.23276818470375193,0.25410117710090585,0.3248341753358748,0.40581439546406184,0.4687905901030467,0.4871298236553061,0.44292140152474246,0.36807476202252243,0.3161099895247945,0.2920234103160322,0.27668987632776876,0.2400052694075656,0.21158861038020493,0.20520518451924197,0.18573180500058495,0.18227226903040972,0.2138108814003301,0.24608676998862045,0.2681522231160036,0.2836029744570405,0.28193668642097514,0.2612643796591243,0.2579474498610699,0.2579459924131058,0.2579459924131031,0.2579459924130987,0.2579459924130951,0.25794599241309246,0.2579459924130898,0.25829255755025127,0.2843728900689797,0.3244421142390692,0.3675455905667748,0.40030506455884574,0.41314707586481436,0.3946592621787941,0.350453439977616,0.3051020071894195,0.2520996763342902,0.20752365284411756,0.16940511330594177,0.13282906655171356,0.1368049339071824,0.16603488741051997,0.18059258053853,0.1996031603644779,0.22197300405838494,0.2372235692250202,0.25759092585350274,0.2890092086181566,0.33617794746392704,0.42162228724164663,0.49684831088340253,0.5770343299028164,0.6651628395877003,0.734606000449415,0.8225487529719038,0.900347343037879,0.9300790981662388,0.8902543339741662,0.8224320713180875,0.734607401541389,0.6440869585429922,0.5535653044258684,0.4630545521981322,0.3789961611661328,0.3072763574970345,0.21741466750778038,0.12689301339065562,0.037041578729122726,0.0,0.07944626852824133,0.15612122408693896,0.23480752096734658,0.32519416426120884,0.4058934671107952,0.4718610259015801,0.47652712589790625,0.41708781253543403,0.3503782832766742,0.3108937903426954,0.3094878745071492,0.29048373413428585,0.24782785196786605,0.23145094779897502,0.21117198264110915,0.18422303349161773,0.1891610222539688,0.22009409829420346,0.2542721324211019,0.25794124915819694,0.25794599241299476,0.2579459924129903,0.25794599241298766,0.257945992412985,0.25794599241298144,0.2579459924129779,0.2579446706218347,0.2552880625263745,0.2368466948282224,0.2555864089309505,0.26043998908334043,0.28677319079823693,0.3268210605045381,0.37586777602310395,0.42821364519654015,0.45745417948005773,0.4463704501744763,0.4112557250106823,0.3662015850345961,0.3159618889716276,0.2619994409816764,0.2057946582759307,0.16309425928395616,0.154418547548822,0.1688182080390881,0.18439827884940652,0.20509100428854055,0.22388440564433587,0.23233890407303281,0.24986293720506492,0.27245171715047256,0.31270221038960155,0.3791055952325566,0.4581340646012242,0.5330256184511448,0.6232233740795294,0.7073380546553816,0.7790899234802673,0.8685406254579755,0.9376758029650096,0.9539044700488377,0.9071910717850429,0.8305770952698524,0.740202647464983,0.6496813577098477,0.5606882330353464,0.49053155269261506,0.4040954209509575,0.33331733417087683,0.3833111480154665,0.450955666359218,0.4889939588002141,0.45829266636912713,0.39095467289289765,0.32561139258852023,0.29106348149664285,0.28117453529177716,0.2555090447886865,0.21577538130348994,0.19041286886077824,0.2049696919580395,0.18759207244937315,0.18159424532280433,0.20983673912292478,0.24298606596707284,0.2577958920286836,0.2555248305983868,0.23450128613658894,0.23201114187143812,0.23201001286245138,0.23327266473019748,0.2535039611895229,0.2574505791948942,0.24031187827388756,0.23203523891435118,0.23201188085911717,0.23636309314330006,0.25905613784116355,0.30322152314973927,0.35103068674227966,0.40333062413829257,0.4364001730436664,0.4604099660891521,0.4327245859541007,0.3875221204588888,0.3331707025732227,0.27142399725157684,0.22322032292451865,0.16796306144001427,0.13205898234815105,0.13780122857154709,0.15415892772873452,0.17112372159809208,0.18039780868159294,0.1977433288518906,0.22629375963276477,0.24877854955374534,0.27255560699970705,0.31597117675396547,0.3755730860780746,0.45529744564853036,0.5290862138658428,0.6185081121017477,0.6902279157708442,0.7742863068028436,0.8645324101226892,0.9392065818993727,1.0,0.985554397212919,0.9123937778376128,0.8220789750651818,0.7316392297684073,0.6517415366068438,0.5762293843296931,0.4859283381470938,0.39540668402996904,0.3048850299128443,0.21443767526396584,0.13412664549060782,0.06350786033298483,0.07182201918156395,0.16045751473632386,0.25094075689841056,0.3305804456040349,0.4040943206041936,0.45676263883146184,0.4518220122906884,0.3932938622995046,0.3262506401145,0.2853621754307021,0.2666996029990676,0.25132967680482476,0.2157613700285106,0.2158439753298902,0.21404039750909742,0.1863287624657577,0.19593491032198518,0.23260563324173855,0.2562949829684058,0.25794560752332796,0.2579459924127514,PM
0.11358728156927422,0.09613126436233599,0.09409665227183539,0.11003429775921103,0.1232666338802606,0.13036449913371384,0.12603974781148541,0.12744127083265044,0.13626364981174532,0.1349496052992898,0.13345379935087132,0.1285607898166221,0.12056881700959998,0.11704145314846404,0.1238696151574139,0.13400670981444773,0.14569969980783237,0.15033131355787832,0.14625110313944023,0.14206184960465462,0.1410675995031727,0.13039888388048326,0.11150207925282896,0.08867928139825909,0.06447969031738632,0.04630928192904049,0.0432748890408825,0.053087263661225625,0.06499560062324994,0.07518037656791576,0.0852781472711237,0.09440162644953487,0.11589292916144434,0.14613092845448028,0.18026830245839975,0.2157215483210746,0.2560064386773393,0.29040563141483,0.31644392709665925,0.34742960738898576,0.3779450267030451,0.4097400943370413,0.4490108281492684,0.48960243729639785,0.5294341524661412,0.5634266530985077,0.6029326275103064,0.643525739524232,0.6841206521162693,0.7244460140362818,0.7591164443232974,0.7974592782846246,0.8380433176874584,0.8786122415262034,0.9160287481992722,0.9514942999430533,0.9885785531151194,1.0,0.9744576553500739,0.934462963058404,0.8958527171225601,0.8613646166402784,0.8211286452698845,0.7805337728391986,0.7399388000051337,0.6993438271710688,0.6587488543370041,0.6181538815029397,0.5775589086688748,0.53696393583481,0.49636896300074507,0.4557739901666802,0.415179017332616,0.3745840444985511,0.333989071664486,0.2933940988304211,0.25279916113753886,0.21244448013108985,0.17958007095405204,0.16608647345958016,0.14743653742611817,0.13364837801271312,0.12056414057591192,0.09741483516878824,0.09216090359805307,0.10385812769074265,0.11786772924683331,0.12488959750401785,0.12864454180371165,0.1333164585215887,0.12829857224380348,0.12483147059516275,0.11893276593939683,0.11406427005855146,0.10838825378420136,0.108861174508871,0.11973841815352193,0.13058133702042074,0.13298256666284058,0.12645833773645254,0.11974370233157372,0.11146387539960467,0.1002749143781303,0.08277041209077529,0.06248216561605968,0.039986202027415985,0.014799860065055181,0.0,0.00794665678771822,0.018285781648300414,0.031375055427255605,0.04715172839618509,0.057233423192094124,0.0691192044828659,0.09750315834138701,0.12994246052079172,0.16316370424513305,0.19682411001679423,0.2338651746239262,0.26828680350119116,0.303974524736184,0.3360250118740782,0.366043537164223,0.4050330499817618,0.44486129239511896,0.47885374784596535,0.5180262486493377,0.5489101850736449,0.5827260114372925,0.6232253880136842,0.6623245097178123,0.6965104552796497,0.7365562366370648,0.7771508584363072,0.8177454650996427,0.8577134101044788,0.8917944633102755,0.9310751029271174,0.970578260949881,0.9920403086018394,0.9699450816419981,0.935819993535663,0.8992270301490239,0.8712597569764222,0.8329644866325538,0.7923739732490809,0.751779000415016,0.7111840275809511,0.6705890547468867,0.6299951367648378,0.5903161603011153,0.5563137772736939,0.5166654217911077,0.4760714765836591,0.4354765037495947,0.3948815309155296,0.35428655808146514,0.3136915852473998,0.2730968431149041,0.2329286791871139,0.19863439076025236,0.16325503209799463,0.15577411024511356,0.14266778501500332,0.13746495353485066,0.12774817495735435,0.10795984062736319,0.1011523046306555,0.11476044704240551,0.13138523182630535,0.1415476826281017,0.14200844860175232,0.14199357805698232,0.13942719910440715,0.13375297499841943,0.13145964756988193,0.12052710366266695,0.11354209827605577,0.10452437287686589,0.10966060125833743,0.12100641704028559,0.13091918386674606,0.13353629204987105,0.13355139329620558,0.13356793987055982,0.13607471086635137,0.13128820861644908,0.1114951487137752,0.08690542628296138,0.059370663961857195,0.03810231397977493,0.02731207117073642,0.03586609755899506,0.04567646014844806,0.04922465713643942,0.05483434867705661,0.05252695515105521,0.06795437586070463,0.09730898984051906,0.13204220933275135,0.1658799906317583,0.201188832365234,0.23529667459075898,0.26642584998823815,0.29874736888136444,0.33412355744048927,0.3745751305835656,0.41286797142885323,0.4476053898488095,0.48791172217506174,0.5285066498276068,0.569101622661671,0.6096965954957354,0.6502915683298005,0.6908865411638652,0.7314815139979318,0.772075128477435,0.8115401242728644,0.8456036948117558,0.8854018258542822,0.9242243414852127,0.9426951721318009,0.9219795380417284,0.8820212950610924,0.8418532716980316,0.807553886937729,0.7686886860417204,0.7280985995950897,0.6875036267610273,0.6469086539269611,0.6063136810928946,0.5657187082588322,0.5251264022130291,0.48584473496957337,0.4517636817637758,0.411795736758938,0.37120113009560485,0.33060615726153886,0.2900111844274762,0.24941621159341,0.20882183046067104,0.16902084938519346,0.1352299938987953,0.10514996918153185,0.08463012883551846,0.070560235043166,0.05760011293383083,0.04765169859353535,0.030553345714886104,0.03635517066716254,0.04064581394390121,0.046935141819506976,0.05632816504864846,0.06412343383121022,0.06588882651488448,PM
0.268017289178891,0.2703116114549631,0.26053389762024004,0.2622884234277114,0.2826732963839209,0.31209469737675,0.3449960628406219,0.37856714363452615,0.4138278591154858,0.4405696902049314,0.44432311999912133,0.4150110397428348,0.37654058062871587,0.33090614511360017,0.2879599424611521,0.2454797774919435,0.20338809562830562,0.1597711944278184,0.11862729312801301,0.08016617577983709,0.04430601339491336,0.01488646366680424,0.0068856741299447854,0.02145827350206586,0.03996255187129405,0.06724833567705191,0.10516878233407345,0.1484180924222671,0.1929646049672904,0.23967513429537535,0.2868951574932528,0.3369920847437273,0.3824596407044274,0.43293515761864,0.48421745461400634,0.5333315036942949,0.5793821609630583,0.630364959222969,0.6809670536909012,0.7264661628060507,0.7764995352120958,0.8266447636015932,0.8721228565522874,0.9224722851455291,0.9683711745355155,0.9955005215342174,0.9703364424399261,0.92415168373901,0.8765922143582545,0.8257486857340894,0.7798639007484869,0.7305170787116382,0.6792363719182046,0.6295553286856215,0.5839183782259401,0.5358947904354079,0.49275924969369655,0.4479137227549206,0.4022395849822413,0.3557776362289433,0.3232474964070742,0.31646429948942,0.3021280536572748,0.28527715756366834,0.28226530612530487,0.28694034963018256,0.2761870828160986,0.26231952532990754,0.2742553612652081,0.29737481811021804,0.32731869983561945,0.3619259765898979,0.39160167680546354,0.4204270445522693,0.44593656051247765,0.4360867934295438,0.40137099679253607,0.35980911691769024,0.3179962476086102,0.27559030451254296,0.2330480544459428,0.19139230439458776,0.14926642771503196,0.10715571826731307,0.06361653763744246,0.02460332049210634,0.0019201376160327133,0.0,0.00836722633042064,0.02593949420189845,0.053811605053748934,0.09044459901676194,0.13202352794026284,0.18042682478444494,0.23153613753315017,0.27820565787548013,0.3265642968046363,0.3776867468638996,0.424524061258019,0.4727024878591424,0.5239454606106426,0.5729437251143388,0.6190811720212617,0.6695769140062262,0.7152178052881424,0.7631171811029507,0.8088865618159815,0.8577700092631539,0.9036315490928146,0.9499198822622825,0.9640807393499646,0.9284605266201522,0.8819348834014269,0.8338407411422384,0.7825877294167198,0.7312889289214612,0.6799901284262029,0.6287032132371246,0.5794750145799581,0.5345459904372301,0.48986815524170213,0.4450081303055373,0.3989917901387443,0.35327173866947725,0.3177584362951582,0.30428142251530854,0.2885849472306248,0.2660456744975226,0.245647752052639,0.24664573352520214,0.25614994620976517,0.2499765333542039,0.24656339197897448,0.2654538565348137,0.2948383006630322,0.3268782275153834,0.3592924182173638,0.3914274119404004,0.41828700464247337,0.4208039048266221,0.39260445896791274,0.3534769900373145,0.31231969890828304,0.2696672692295541,0.22598555972494272,0.1846884489773677,0.14155715469530672,0.09549526917681872,0.05658831507911066,0.02219623624093625,0.00488340831251044,0.015485792502581086,0.034329496675292726,0.05533575386371736,0.08549581971522158,0.13015340122775676,0.17528349609576233,0.22074396432811905,0.26970832984945114,0.317436682276901,0.36468159539168044,0.4155837986305424,0.46167562628193504,0.5107348185207963,0.5617526334047698,0.6079662096202227,0.6568720067369545,0.7076680788907963,0.7533416681094907,0.8003421413719993,0.8465421095306624,0.8928239668991782,0.9408680742899995,0.9814727783269719,0.9800353079967574,0.9370879715898655,0.8859464402068515,0.8346476397115938,0.7833525320346486,0.7333949582500205,0.6878599227220992,0.6373032185176479,0.5899399562364105,0.5432803450078063,0.49809469571962994,0.4524478496868136,0.40549836885126633,0.360656668159804,0.323239675729023,0.3163948174048081,0.3098129592177228,0.29187462384791596,0.2714918681123213,0.2654687716660111,0.2713829838710331,0.26612467868638423,0.27248274773924863,0.2934495636581551,0.32224778266264287,0.352802142178539,0.3847771734220067,0.41745536311273135,0.44487313429101416,0.4416470744177319,0.41088166033869333,0.37105102285720926,0.3275555124617826,0.28457085463623333,0.24069448909348434,0.19480999740800575,0.14995862425739093,0.10721686607007497,0.0666549365857041,0.029738549709855233,0.002326191758177387,0.0013031726825880607,0.01740026900567848,0.03626663157641952,0.0641865258156753,0.10439787106436471,0.1462133518494111,0.19116433166034996,0.2379300319208919,0.284652671402454,0.3328117135531863,0.3840538003621057,0.43307136229523335,0.47919461361351523,0.530203780955111,0.5813363588439895,0.6279499478357222,0.6763681437774569,0.7269666728116992,0.7724473118642305,0.8193086341300191,0.8661001946060853,0.913904019860637,0.9607731542555893,1.0,0.9878842004011505,0.9412037569173772,0.8946875370888518,0.8461884006639502,0.7949200244748165,0.7446354636739547,0.6991913950223487,0.6487835004029179,0.5979642981093445,0.5526498948757592,0.5086881148923872,0.46452156152154034,0.41750329013923215,0.37221175794668127,0.33487921192329284,0.3269467677209106,PM
0.6811893479693185,0.6355439996285002,0.5820037382314882,0.5238646581913611,0.46459448386110536,0.4053835285502938,0.33993017061886244,0.284494783365568,0.23578344947643215,0.1941682658721109,0.163168403978597,0.1661311272212398,0.18759464937389003,0.20019110326271106,0.2138672157129946,0.21842555091149451,0.23205892569884057,0.2397537038635984,0.2510096065651237,0.26435248352238405,0.29400587727909056,0.33069646600460967,0.37678579466710094,0.4311993310670914,0.4972823991335522,0.5611436496060178,0.6251337447473992,0.6974885796336991,0.7685888418163005,0.8276395810175488,0.8969888239835315,0.9559749009568743,0.9986455759487693,0.9735717570021296,0.9103680325907426,0.8380130940771449,0.7655542568871581,0.6932144188108533,0.6294200796817209,0.5653129675409327,0.4929549188393789,0.42049608164939123,0.348037244459404,0.27557840726941674,0.20311957007943038,0.1309695856813624,0.06960036778246215,0.006976103248822696,0.014931337312452442,0.08537427295912048,0.1571391038587766,0.2166968124134887,0.2855229112489326,0.3575252250151393,0.4176658767353265,0.4632628828546963,0.45465928704313674,0.40698883747320513,0.36111487841134204,0.3543643754056789,0.35075625179620173,0.3258969737835611,0.30764552613301577,0.3002800154090477,0.2888006578894715,0.3064294386953028,0.3296568914065263,0.33706335618420935,0.3371211043416329,0.3371211043416267,0.337111857274742,0.3331794773908423,0.3218382713168748,0.3343678729565682,0.3269212073043195,0.31993176484740404,0.31988335473605733,0.3178276956302448,0.3040914772034462,0.29237263767777755,0.28510650790441217,0.2745848200432821,0.2829323821734353,0.30204211522117586,0.3389685728023202,0.38578414654283666,0.4343309821132313,0.48739322605890223,0.5376880777540944,0.5903932400777991,0.6421544159776493,0.6961659187706299,0.7303725399946135,0.7268220398718901,0.6927133869871018,0.6430384553897373,0.5874501849516389,0.529569542037748,0.4712003940721403,0.40648305189253486,0.3455954260201719,0.2912100076109967,0.2383931049301733,0.1907305242313142,0.15210901138812893,0.13715458227208144,0.1611687908195707,0.1814576376435606,0.19420715158688884,0.19923716632867183,0.20513626506330862,0.21616562600418243,0.2180660702228221,0.23675073527065216,0.26434157655502055,0.2949218913567271,0.33463000598733483,0.3919511253797281,0.4506758259584638,0.520269372411609,0.5797086334467396,0.6486845332828359,0.7170540337324263,0.777056527797169,0.8480771758924184,0.9061898359621723,0.9313555844855084,0.8819681331292135,0.8210092898566255,0.7489265759645813,0.6764677387745954,0.6040091452728253,0.5325517573057832,0.48165327659670654,0.42229498259324894,0.36356271615864744,0.2934206953412257,0.2209639105811938,0.1485050733912079,0.07604696726587301,0.006309330163423166,0.0,0.06753499764080928,0.13998845633342594,0.21164691698247884,0.270926546291415,0.34013577737372547,0.4120124891762158,0.46409751527592125,0.46585331807023334,0.4201962800660888,0.36404300508309007,0.3376729212289158,0.33595292639311714,0.3220389942032238,0.30715834647705575,0.28986512573658896,0.2860079950018317,0.30129229788661016,0.3322188844791274,0.3432249832065204,0.340442064613665,0.3236113494322064,0.3198924853931855,0.31988509362920414,0.31988509362919837,0.3198850936291926,0.3198845865760629,0.3186614293307648,0.3077423252890248,0.3103464346184719,0.30272168310939795,0.29651090343334374,0.28567754991250105,0.2849545140370866,0.2743325504984111,0.28342534819279663,0.30483068188775153,0.34710565943094984,0.38992881863003737,0.44179867647171545,0.49427222804539106,0.5486260831349279,0.603010223457761,0.6603653820303603,0.6994397441202391,0.7145180894644518,0.6927239951343207,0.6457665377287451,0.5969559608148822,0.5393147970323509,0.4788743018250532,0.4132776959137936,0.3549665263189059,0.2999445254502109,0.24577051947165485,0.19790320507727266,0.15753133380823714,0.1386919687348671,0.1494996069432566,0.16526576046766417,0.1802598976209877,0.19482600087546542,0.19922553261600928,0.2024286486521265,0.21560086241899956,0.2253353552421773,0.24886424869491108,0.27962976777409665,0.3225106838417102,0.37806313421111915,0.43957154308198554,0.5032862360591022,0.5747344901761005,0.6339383673246641,0.7033079793475263,0.775161264437767,0.8351710198709572,0.9034476056138971,0.9720524165357052,0.9999999999999996,0.9584427617133788,0.8942832459224368,0.8320234878991384,0.7597413277837366,0.6872824905937511,0.6148236534037625,0.542364816213774,0.47000964833736525,0.40601955319598115,0.34211544037886066,0.2697654781659957,0.19730664097600803,0.12484780378602212,0.05268858355923989,0.012756785178343222,0.057892876834485296,0.12567376700495458,0.19811099323367065,0.2669390088107595,0.3266264762410218,0.3975946969538411,0.4538325394286802,0.4685370025540707,0.42687576727713683,0.37559124507186015,0.3547532757644709,0.35070492625974214,0.32788998035951256,0.2957692438117481,0.28281809197587293,0.26936939010662053,0.27089583864326094,0.2980323959462252,0.3188603506336527,PM
0.10464285003082763,0.10334715456724197,0.0962711113079524,0.10117921391317353,0.09179014421050624,0.09140668161883969,0.09141455424474998,0.09503576397654134,0.10434175922478417,0.10460258275783385,0.09886096840540803,0.09150404760028863,0.09492942237255253,0.10346200690829743,0.09302705021849444,0.08174611274667853,0.07817722674371108,0.07816961504366393,0.07857096878587555,0.08829540522961521,0.09140283315336006,0.09141298868952807,0.09471712252157571,0.10429820373308551,0.10465234803849333,0.10860135342431843,0.1273989006720253,0.14579035007010877,0.1737016614107012,0.19986148226356093,0.2104644394901194,0.20956501801057037,0.1943053761325455,0.17189271965199948,0.1457483480488806,0.11401044782802039,0.09131456984728681,0.06886056811377639,0.044745979694595484,0.025946170952895642,0.023476631354991895,0.012814379038979418,0.012760838928899343,0.023388605493326775,0.025219088901847986,0.025366185676514164,0.034008691068756036,0.045580528305304124,0.06800766666292946,0.09760478711790777,0.12833238558899351,0.16217591302840262,0.20246738237538242,0.24734451688063652,0.29224672310617095,0.33701627500402065,0.3735789202999653,0.41374335378096916,0.4586184814331502,0.5034550376630662,0.5416203197556686,0.5801371874917556,0.6249902397601299,0.6698924459856634,0.7147901716215488,0.7567581658980691,0.7917583572882796,0.8362642793172732,0.8811659216191039,0.9242981317731411,0.9579188537650851,0.9858276140590898,0.9830945734736334,0.9511716110917994,0.9066173798433876,0.8656712715150578,0.8298657943673873,0.7851344449379707,0.7418287694688277,0.7076462140293618,0.6636630742865761,0.6191719096584469,0.5842634135893245,0.5421897273462215,0.4973025036073695,0.4560958369965977,0.4204835005768892,0.3758419823447543,0.3352215718694769,0.299100607993358,0.25438146108213955,0.2143508526127058,0.18050517115564535,0.1456852213918416,0.10676345844391877,0.07424629475708278,0.06497341115209743,0.06415528217392685,0.053494430977203855,0.040207204322118884,0.024891838989009596,0.01196790795789937,0.0,0.011453544946267602,0.03368532972836391,0.050804156654888466,0.06221708060139308,0.06492915389564313,0.06493254846843977,0.06493254846843799,0.06493254846843621,0.06493295960492773,0.066331140641541,0.07701122559064721,0.07816909512429193,0.0781505638825255,0.07393390770287844,0.0650891237372524,0.06380347874577463,0.05314718097552973,0.05169590414155323,0.05180986231220075,0.05977086139124488,0.06546783048517835,0.07896406653145505,0.09142704452945782,0.10412639515343525,0.11745198551206126,0.12002860277289873,0.1335851989361081,0.14884928563503808,0.170553557011349,0.1986060225441233,0.22190824781416252,0.24987490794874656,0.2718106328548431,0.2861751479697685,0.28038420904093053,0.25892490721519534,0.23433378474766942,0.2118657153939032,0.18680050698625372,0.1603802817233686,0.13575590858156072,0.10889528128552417,0.08690775415897622,0.07804694110105048,0.06937266421159327,0.06480100577909953,0.0570317025412197,0.05170909488820152,0.05170152803807415,0.054964080549005256,0.06922723021997923,0.085012838064221,0.11437113907576002,0.1459137252465701,0.17907167003915037,0.21876634036387843,0.25509361354010807,0.2997605997217794,0.3395025962732232,0.3764978324040391,0.4212432346326156,0.4661454408581496,0.5110350777921777,0.5509394889902439,0.5877863154537781,0.6325171991851302,0.6774194054106637,0.7223211227171249,0.7654534773245247,0.7998421088530017,0.8437912998571577,0.8886124917102705,0.9263856816488953,0.9652538869032989,1.0,0.9929061974605871,0.958117812983736,0.9238853893947225,0.880646843192602,0.8357451036625467,0.7908960651003203,0.752701039987099,0.7142220841713129,0.6694793345922365,0.6319646646259338,0.5927800734966007,0.5487983051144276,0.5143620992282223,0.4713359362155427,0.426463326559102,0.38642917221931805,0.34989713622895113,0.3130311768567151,0.27540595829134995,0.24206493875326807,0.2084644946461176,0.16584386345361146,0.13134914051859736,0.09439699474870311,0.07885820775468,0.0735371608379074,0.0649426011537888,0.055616690626538734,0.03018702202009571,0.018195918676025435,0.004440009149848212,0.014788367853504347,0.031735948268976966,0.049512481008377573,0.0568660606428697,0.0647728037912585,0.06261712030176758,0.05477185977353605,0.06436060918025,0.06493244846217516,0.0649325484683474,0.0649325373565488,0.064703151985261,0.056054622473206805,0.05347630431496597,0.06397939712744671,0.06485673494272826,0.05503256906453391,0.04955069974384285,0.051691340454754986,0.050361174058477065,0.039538366036182104,0.03845875978372426,0.038594115297155174,0.046996873578605936,0.05235640497054028,0.06246868233507685,0.05459401817555509,0.05858347884188131,0.06488686890299222,0.06810536058817407,0.09241172706058709,0.11379264130280431,0.13130165796186777,0.15361065571446675,0.1760518634722943,0.19488278234997036,0.1942955643838924,0.17501468081478322,0.15257272160555901,0.13009301773503434,0.10426301461459397,0.0786063789901017,0.05617944857177992,0.03709255985235593,0.015362710114339873,0.011987569245959229,PM
0.31379570271544033,0.2675647786610309,0.22295811366763418,0.1744801157197169,0.12812931011665807,0.0795935414097757,0.05130279283437389,0.02338447747264949,0.005250026001967445,0.0,0.000383080812961456,0.012472395127309355,0.024950951442747726,0.04942509478388324,0.09107426373896033,0.1323561066281389,0.17895241022752684,0.23255188368555268,0.287290936203489,0.3481277015227904,0.40461469359363234,0.464291686838322,0.5305356900805376,0.5852644055319494,0.6469049764986026,0.712743198797579,0.7659714508468087,0.8294650577242635,0.8874690926027711,0.9416898574028836,0.9835819065385625,0.9781393230485826,0.9218647840327376,0.8685756487693346,0.802639597039601,0.7359579061531565,0.6710296546878354,0.6228967053770935,0.5844318753764783,0.5214305106555308,0.45490063786010326,0.39778859533634137,0.35378614460339275,0.32334187071705633,0.27296581228351924,0.21119598282384633,0.16721049606040772,0.15608984779000146,0.14314104266630157,0.1226453894543722,0.08995804725414835,0.07086310671836449,0.08391403623244109,0.10600666139187664,0.12801095157312492,0.13904043059573867,0.13922030246959816,0.13928839495928003,0.14768419766794016,0.1565024557513377,0.1566248284084586,0.15662482840845637,0.156704585564865,0.16582410040731377,0.17398931019478114,0.18164755555954137,0.19127969065305317,0.19145091488805344,0.19682452451710075,0.21933991924747076,0.24627575567447924,0.2837999990757307,0.3275800628465202,0.37013598198928666,0.41132618779311647,0.4580313632476867,0.5035510773497949,0.5479798682231642,0.5924702841707679,0.6362901408543298,0.659213164709421,0.6397828050036951,0.6048816540706308,0.5613694727877965,0.5168019716223222,0.4680407837840046,0.41809118315079585,0.3718842645641258,0.32695279722877046,0.27706808387122894,0.22727728666822422,0.1825816247618972,0.14279697616355147,0.11132853725323333,0.08837227772436629,0.07106356197353403,0.07244697558630131,0.08667815874466367,0.10078231385069669,0.10899751292786863,0.13076474217154743,0.16258467493861906,0.1980531020088856,0.24408954541985484,0.30260449289508484,0.3573772983413823,0.42227544979280784,0.47527830853118314,0.539423524035838,0.5959596085587981,0.6556058843256256,0.7206392089244216,0.7735385211665511,0.8381661203222763,0.8984943577303683,0.9522042043826979,0.9973518569332218,1.0,0.949976885486949,0.8950989273912002,0.8287806641017821,0.7621278538387672,0.7020116571994257,0.6459117464306243,0.5794523469015442,0.5128569333114017,0.45416592328948235,0.40496553543895475,0.36868616419609834,0.31786940356694826,0.2656651538810939,0.21498049644101735,0.19194698304861424,0.18823917339051954,0.16747922072336197,0.14015032117599224,0.11369112521501101,0.1116461637149091,0.13313916556532046,0.15533241847850876,0.16984751530847486,0.15768043434636114,0.1515320833151823,0.139166486069624,0.1275685163926088,0.13589612151654196,0.1392125116034495,0.13922030585537648,0.13922030585537426,0.13922030585537248,0.13922030585536982,0.13929947960914824,0.1483828088449064,0.15652873374603526,0.15666637269246264,0.1636217997569851,0.18703484416940208,0.22006024762617749,0.26188136279592245,0.3063235795280135,0.3508215323734136,0.3952906978861992,0.4396767793443761,0.48604228382223935,0.5398216569325394,0.5805152264864439,0.6033861628927997,0.5990754766031658,0.5674860066302907,0.5309728418934183,0.47698570818743224,0.42364578972563516,0.37998230455640414,0.3271381621362548,0.2810378439291439,0.23666518966316596,0.19216639508289068,0.14767727411335452,0.10469759219995689,0.07051503225255829,0.04172359356339639,0.018197724171814755,0.017389141355859117,0.018768528690631392,0.0335806072343261,0.052308281227252174,0.07100425941080113,0.09774388332860706,0.13937480134841929,0.18512498135611288,0.2394869289299737,0.29616552827639353,0.36268072482974834,0.42929088674189453,0.4872707163146788,0.5454364488037564,0.6120057050603744,0.6759552477516735,0.7289313800203892,0.7945824401986425,0.8526157438294901,0.9094035921068575,0.960969843591454,0.9905982213858828,0.9714973275918397,0.9208496284312941,0.8549214157932035,0.7883565880077192,0.7303854782819283,0.6722066278723529,0.6055932572457388,0.5389121851929359,0.47468247622243176,0.42165504605090653,0.35843621621837274,0.31897480145289947,0.2732125106990311,0.21954461138163062,0.16826733484039202,0.16039018881249367,0.16873387018074526,0.14778106248859446,0.11668772670540228,0.09354105264002399,0.08709770270008255,0.09471686531774504,0.10426053551885284,0.10441282429211274,0.10642923747636912,0.12045964790329489,0.13026027822025776,0.13909746997719719,0.1401925704785807,0.15384677836244665,0.16660055596935797,0.17872526461369054,0.1912852520047923,0.20464410417162826,0.22368296129608467,0.2329519938796163,0.2571683436648562,0.24284846979324337,0.1961364817271143,0.16460262978105344,0.18321252758345263,0.22087790258737128,0.25479743015897593,0.29530672344031617,0.3353807462064746,0.3800036747102502,0.43536242483814336,0.48773552273129095,0.5362395196211276,0.5804370266134509,0.6146751862680184,PM
0.7194263911381733,0.7305091484974442,0.7358683988258425,0.7312918236033825,0.719588316456123,0.719238698179228,0.7191825087239265,0.7114045346918982,0.7026440552338569,0.7025746518008815,0.7033599491107121,0.7208109971743566,0.7355598172356235,0.7376990446001543,0.7516382088831346,0.7651932838663531,0.7692205610956515,0.769201548716592,0.7624725316499803,0.7526574258829819,0.7548896052852023,0.7709813530426599,0.7884858185985437,0.8016595632046157,0.7902306052015815,0.7829502564479647,0.7662541854423384,0.7529032023246316,0.7405729419611857,0.7189566357157826,0.7013834865867117,0.6792023906641118,0.6693209888744951,0.6693071662817456,0.6776839537659174,0.6951324552576539,0.707068459676107,0.7189353306948427,0.7192386981791548,0.7192386981791516,0.718985538731979,0.7089527887634346,0.732858769904456,0.774401538943704,0.8214003270058976,0.8713920217109061,0.9111279364052645,0.9628284476629294,1.0,0.9990842486578195,0.9613905106132528,0.9217121754772362,0.8773917028738403,0.8491811377305574,0.7996161412039129,0.7468814104067318,0.6941446048094084,0.6414077992120863,0.5886709936147629,0.5359608670728324,0.4895301886073784,0.4470263179833225,0.39438781760380603,0.3416510120064826,0.28891420640916055,0.23617740081183713,0.18344059521451328,0.13070962864345104,0.0846553169228832,0.10708742211172861,0.15952278747148974,0.21217134064573084,0.255157899065968,0.3010988192744839,0.35368267868163894,0.3950429583104107,0.4269685725424557,0.469858717383588,0.5148172361920262,0.5672993643539188,0.6089120292727701,0.655826264588919,0.6961924537243522,0.7354707463535477,0.7530161684931129,0.7672560172753577,0.7613284318909201,0.7526349377694306,0.7525471949235807,0.7469490408286692,0.7241039229742343,0.7067931551092355,0.6993707089081034,0.6778457814757002,0.676988156506122,0.6894032118716416,0.711704459150797,0.7296431424946253,0.7358779995616032,0.738263904390787,0.751448673068948,0.7525664156275376,0.7525375023381495,0.7458084852715379,0.7359922535798473,0.7357461390278361,0.7261096363841264,0.7087516219841263,0.7025937912600919,0.7021536031738793,0.6895849757102379,0.6763614634369413,0.6552635783894423,0.6474281107135638,0.6302957916660743,0.6172133256306376,0.6090078485676949,0.6254873052194156,0.6385348318481809,0.655131511362335,0.6779267151738559,0.6860008845307988,0.6968679856982072,0.7025524462462736,0.7023755625473864,0.6929800111162625,0.700695897480712,0.7217545249828428,0.7481170802253714,0.7744698336026414,0.8007856014628794,0.818988613778528,0.8330225062401415,0.8294155142276005,0.8113289060022515,0.7858795016646014,0.7686262179805601,0.7498610856260601,0.730233521428131,0.7052877126194166,0.6862150410275878,0.6726947326524759,0.6763982288981549,0.685757862049456,0.6860013710440991,0.6958835872503881,0.7025457359947977,0.7025746518006653,0.7025587837059097,0.6978302493392476,0.6990080708799491,0.7340515234352223,0.7845237232994018,0.8368881477392165,0.8778386795508837,0.926011892186775,0.9698162216535602,0.9997171075581526,0.994818639681482,0.9605721923661577,0.9086206840786692,0.8558838784813454,0.8031470728840238,0.7504102672866986,0.6976734616893765,0.6450546400546062,0.6011098718051522,0.5560777934322192,0.50339028567842,0.45065348008109796,0.3979166744837732,0.34517986888645114,0.2924430632891286,0.23970625769180387,0.18696945209448135,0.13423264649715883,0.08149940686696233,0.03186713322107737,0.0,0.025671968894356745,0.07816303162416682,0.13089983722148846,0.18363664281881276,0.23637344841613483,0.2891102540134578,0.34122756580395786,0.38122628127404923,0.4306616815612023,0.4833830867604476,0.5304606850860778,0.572438704017181,0.6220541279418637,0.6617910532648299,0.7033988961734585,0.7292189427021798,0.7361717086728294,0.7476820925186982,0.7481483424565467,0.7362722189893138,0.730038401871075,0.7171897738352762,0.7033365748459732,0.6930967764499982,0.6676979113255341,0.6613469900289388,0.6700572075272526,0.6884093644760694,0.7080120699896373,0.7306790919196446,0.738650389199746,0.7516478357087872,0.7525665720058172,0.7525667909356155,0.7525667909356129,0.7525550235500664,0.7483211183641947,0.7363279279825425,0.7359027445572668,0.735550561194334,0.7284235164144852,0.7273444996480212,0.7192993054165111,0.7192378380975573,0.7175020971169643,0.7016707009219436,0.6868107697801928,0.685910605422237,0.6859106054222344,0.6859106054222321,0.6859106054222286,0.6859106054222264,0.6859106054222228,0.6857810349895588,0.6768013002734636,0.6731477686376448,0.7026839380165173,0.7296921822557767,0.7560341823497931,0.7807609702230947,0.8005964108413481,0.8181899953899605,0.8175458739734527,0.8018357693676492,0.7862822025605429,0.7694978763259241,0.7490388064466864,0.7250658941743704,0.6989959734239397,0.686057098903559,0.6788833353021904,0.669331041668912,0.6697473076175036,0.682098328067176,0.6946640893559279,0.7025146001885134,PM
0.11426523641757291,0.11721968103492952,0.1109631709204355,0.10219813728196647,0.09613567650635968,0.06778377333759122,0.04728167663218874,0.03834819174006432,0.056208410425937716,0.08715508215149881,0.10459645528753447,0.09746070797231554,0.07797676694127209,0.06738530753248773,0.07261741056092252,0.08418124055920839,0.09908270862761115,0.10490099528293761,0.10606982985631652,0.12094023619304406,0.14948730066464933,0.18424287545744833,0.22358376499788046,0.25918083708705253,0.2988068398886259,0.3394003740450682,0.37841912607622397,0.41435130933687914,0.4546157960323778,0.49521922874764956,0.5358227710955645,0.5764263134434793,0.6170298557913942,0.657633398139309,0.698236940487224,0.7388404828351385,0.7794397841008365,0.8187417233112542,0.8544865578763279,0.894651663579888,0.9352548819166016,0.9751422096804387,0.9873509290336842,0.9516377515990015,0.9110430061856756,0.870568629661312,0.8338583934580825,0.7958052821977035,0.7552320914488115,0.7146285491008966,0.6740250178012324,0.6336978778716862,0.5976475834768609,0.5588070492399178,0.5182579275041819,0.48191111961195543,0.4497637410042048,0.41014672557201526,0.3744973057092711,0.3350029599871793,0.2944232860609799,0.2560939870320078,0.21963716337889627,0.18085852882364972,0.145001081024686,0.10858192123441213,0.0759953189314424,0.04967847600669084,0.03351040117248549,0.027431411440804188,0.017783192145043758,0.01084384999487209,0.007269401611116333,0.019911059043342894,0.04267119171668188,0.06807928228869886,0.09756308036885697,0.12850970793525285,0.15907180317607073,0.19125712833950148,0.22576201014096076,0.2550320326168396,0.2588686419785169,0.23531130947146273,0.20891290976574406,0.18132847161961063,0.1557907520937476,0.13530180711872797,0.11872842102087056,0.11177792202814563,0.10827027169090098,0.11323424093455214,0.1243616409311854,0.13057292878281412,0.12821684940444844,0.12445826747162281,0.12145691179943463,0.12224289464651661,0.1067792569726147,0.0899482577618036,0.08188155073290693,0.09276055442938147,0.10450478746095038,0.11661284472066491,0.11821645303526451,0.12149251104644976,0.14128942857339166,0.17340806766359895,0.20987483348175018,0.24756200857277766,0.28447633364227687,0.324984734235491,0.3655807470733019,0.40462715358976653,0.44054100926063633,0.48079577390257566,0.5213991913202707,0.5620027336681852,0.6026060266675886,0.6427819681580305,0.6785758310812187,0.7178187684345358,0.7584171907529651,0.7990206351538871,0.8392852942773601,0.8751208579533358,0.9042716832615503,0.881967962641308,0.8415923042870908,0.800988761939176,0.7603852195912617,0.7197816772433456,0.6791822109307943,0.6398346355470228,0.6040945004435987,0.5639703808704322,0.5233672201585673,0.48276601787288675,0.4432394065780987,0.4075911743242697,0.36755569750433637,0.32695922930622134,0.287851219939544,0.2519880764066622,0.21177857548750256,0.1739295770244933,0.13826684311817328,0.1048266858280209,0.07265081990000999,0.04673299132161768,0.035109181839498516,0.026741161826774995,0.01986525566663533,0.013304424051859165,0.01826257747778126,0.03412674254700343,0.0589074127815058,0.08691973676129217,0.11592042043109663,0.1462221531485972,0.17798811923655422,0.20872677197067246,0.24010589154918582,0.26627982345050083,0.25909715217672913,0.2325759025487102,0.2063284187694885,0.18097907842845506,0.15794330595923123,0.1349714465694376,0.1197133870001379,0.10874315307935922,0.10923389552670781,0.11311848886378173,0.12035068151030903,0.12466375737721314,0.12435301579880931,0.11947353184257925,0.11753508256319001,0.10624177983505545,0.08769332424956211,0.07509881868598955,0.08324816684256175,0.09486571200294991,0.1060251492235027,0.10680710465244947,0.10357327385296533,0.110355767317869,0.13314072838138902,0.16955214075969427,0.20518163575196913,0.24522706854295473,0.28505662671242304,0.3206524196769256,0.36043657483074254,0.4010386907890324,0.44163853401804576,0.4810489723073115,0.5167280429463852,0.5568499395230171,0.5974531478738123,0.6380566902217262,0.6786568992759803,0.7181269560043579,0.7537803649861083,0.7938679848484462,0.8344711473065063,0.8750746896544215,0.9156752645339121,0.9552048617262514,0.990031382545056,1.0,0.9636287744841667,0.923032445029641,0.8824289026817256,0.8420004316470822,0.8055655534380264,0.7672024626851577,0.7266179879448622,0.6860144455969472,0.6454109032490329,0.6048087721887165,0.565020895803082,0.5294243958935831,0.48959883662085657,0.4489964461642544,0.4083929038163392,0.367935269294108,0.3313254577711078,0.2931592951664086,0.2527894642678421,0.21654895640761507,0.17796378860144557,0.1374234702595074,0.09997325821342229,0.06772795935964826,0.04005306087785676,0.02313594948155706,0.016521830338186327,0.008758711660312835,0.0,0.00039141620038130043,0.011980367144425075,0.035120642213382736,0.06277205043284817,0.09586161199526844,0.12772332863098845,0.15848291537402281,0.19072053574708892,0.22239710291203885,0.25186815276179364,0.2644229177257973,0.242086440312411,0.214712535893973,0.18949383631403616,PM
0.29543576323385934,0.32974350587751977,0.37753643774154333,0.42549321616835756,0.47307671352215164,0.5265095109439397,0.5832141517490663,0.6398072256835496,0.6897087952538328,0.7393141704544244,0.7711987473492352,0.7538516598960123,0.7089871047176868,0.6530660559733341,0.5963483631511799,0.539911780837729,0.49132540536559977,0.43871440949514295,0.38201987954875194,0.32530178765462936,0.26858369576050767,0.2119448191286195,0.16121563812878748,0.11087904233183177,0.05425643888347831,0.0,0.0008587115969360681,0.04654557901272405,0.09994464979305961,0.15255856878124674,0.1997781732274635,0.24428302999949048,0.27974022223595063,0.2958079526925299,0.30612197635220295,0.3006632974039627,0.2942678552753295,0.2792032766469654,0.2509935399685086,0.23166640418543571,0.24460321422615117,0.2673224845601936,0.27708256289751954,0.2882440760657745,0.29569112001133013,0.29442513661557235,0.2985350680155803,0.29498019744688775,0.2838223100373487,0.2734768124827516,0.2674600879167326,0.27321023656908605,0.2742500820130702,0.28731253227193254,0.3096396889711788,0.3289145541798957,0.35018333918669353,0.37139688854418185,0.4016039069657247,0.4353351661013647,0.4661527682740567,0.5064706799100864,0.5470006235195959,0.5894089664395092,0.6291119975948776,0.6718055640009177,0.7169786031880172,0.7600344270840924,0.8055566266632053,0.8572631053225044,0.905934309008728,0.9473304225421566,0.983923998467956,1.0000000000000002,0.9809354508970849,0.9415072972454352,0.8969287717402217,0.8487223499464969,0.7942626444021237,0.7484601384044429,0.7026927934163327,0.6554264263847951,0.6072535062070032,0.5599663208151064,0.5141994852005463,0.4686378723596041,0.42120412910585503,0.37967763759048156,0.34530287652988556,0.3271252288520625,0.3355723343532435,0.3388193355128186,0.3450788918917891,0.34179651930139454,0.34040441142745315,0.35930591756840813,0.3848837428398173,0.4256327276237928,0.4702281080355297,0.5077907654196341,0.558281434403024,0.6069646362101164,0.659378329833993,0.7128699993708676,0.7606616681842386,0.8154642429709205,0.8597762195679437,0.8833401050315215,0.8571394996492396,0.8036208792028436,0.7565764994883339,0.7018121941955944,0.6450973777703795,0.5883792858762582,0.5318313460132786,0.48240618121055356,0.4307300086772827,0.37405081546629115,0.317332723572169,0.2606148056536366,0.20460840141522296,0.16435929879191313,0.18056841086894204,0.2323063181832905,0.2875869963234263,0.3299323215050458,0.3582689324183994,0.35839135096763797,0.34921072512158413,0.3431117217853743,0.32908722072621965,0.31174345126956315,0.2901260834893227,0.2987019541421281,0.3253792243064504,0.341285533813539,0.3550290651670489,0.3495232198812086,0.3551644592153218,0.3593735563017295,0.3429733996539517,0.3446490226043204,0.337258319351166,0.3354795639785697,0.32180005417092405,0.3270178461708222,0.3360881994616485,0.3376022337374309,0.34745567891816775,0.35249191786920275,0.3759200948793253,0.40890727667461646,0.44026746949759077,0.47426413611939,0.5085771043630036,0.5471226820697288,0.584965984353284,0.6274286240113469,0.6700390831893792,0.718710221883301,0.7676630420673731,0.8130495525368844,0.8559774053156632,0.90126687741203,0.9426830414739509,0.971215838919955,0.9867246964869063,0.9690535360973771,0.9223088674344047,0.87675335095891,0.8297793467517323,0.7815244660010976,0.735903470731625,0.686222637134376,0.6402494658095887,0.5947186900337258,0.5469376633900354,0.49886634589342393,0.452142098701416,0.4129840074938007,0.3854900950457665,0.34904260985790514,0.3365267466028683,0.34227956749954447,0.33733151661775707,0.33206186328329346,0.314330360765845,0.31942603179735385,0.3389024538925287,0.37674779121422275,0.42050441605142397,0.46618011611116716,0.516498489464978,0.5650952074113935,0.6207582512023111,0.6678421428471959,0.7221996596110059,0.7705669427061392,0.8081732339923324,0.7983146085102393,0.7523441615825697,0.7024297579177332,0.6458352540740953,0.5891171621799722,0.5324321711760203,0.4803050651831773,0.43131170015595477,0.37478869177000695,0.31807059987588393,0.261352507981762,0.2046344160876401,0.1480037157628562,0.09793471090500261,0.07773721140273904,0.12520725221908324,0.1799091649173623,0.22649505850347773,0.2709865248110497,0.29611732569904725,0.2985884621182955,0.3000580131091384,0.3068188772436298,0.28997605803148896,0.2706324240906539,0.24397956923348274,0.22783389372777818,0.24546726799218654,0.2751989568546518,0.28583706381257046,0.2854721510331275,0.27617851825587736,0.26682696310022336,0.2549931921826787,0.25703123118924487,0.25269657248766997,0.26189473471517166,0.27089831696212463,0.26262059451739206,0.26509121987711626,0.2732251217707906,0.2757751277335998,0.29490580381992104,0.31501074456040956,0.3412870750641763,0.3726959237551257,0.40905666215076075,0.4390901083434262,0.4733210229624729,0.5135188457236997,0.5638542768190191,0.607156373112786,0.6523287271808538,0.6977068744167509,0.7410202608226137,0.7835229253307461,PM
0.3176618606203141,0.32748905109344517,0.31326233186867714,0.2860056875438872,0.26478267456085836,0.26308630663653054,0.2780972406845923,0.28596397777265037,0.27640231165511886,0.2721804862429298,0.26229900823015595,0.2520949774943706,0.2490449198147051,0.24884730670282607,0.24064394074964057,0.23469985397116955,0.22400672122563825,0.22277142161011843,0.2331335348859176,0.2381072005579694,0.2513597794675786,0.27212647185728556,0.2951530875097068,0.3250449466013301,0.36136639251243374,0.39683747420253757,0.42659489132797934,0.4495271460805148,0.4385780536079211,0.4102633185226392,0.3675733662778511,0.32590722495181157,0.2845801667027248,0.24088464362175244,0.19868595614312645,0.1573422358098322,0.11383679279923986,0.06825498951034059,0.029431129826684943,0.0,0.009880950893458529,0.03358293244273658,0.052838532584315034,0.07181575179277311,0.07749283824458097,0.09788678546419427,0.12115994647095918,0.15249204728742582,0.1937987930245948,0.23821559041825258,0.28551453312915487,0.3299383560432043,0.37897027797715377,0.42598729408317326,0.48088257991703043,0.5328076612988661,0.5781324189986641,0.632677340393226,0.6876667843797597,0.7355159673562801,0.7845175724746694,0.8394099969317941,0.8864480043971421,0.933565292368699,0.9587572836074598,0.9378435694529619,0.8963789707010854,0.8451295510684897,0.8023175175845105,0.760353473017026,0.706141327596254,0.6519906875298143,0.6076166101179437,0.5543530732400634,0.49928372139761223,0.44783808013428206,0.40218402950656107,0.3493205573066487,0.30541928130222673,0.2622963772759659,0.22616194560805902,0.20942691271747838,0.20859254723045884,0.2017614842297244,0.17623711828825095,0.15667653096584355,0.16612815159703698,0.18786090140656841,0.21264393628809208,0.22196862391961303,0.22218647399629332,0.2290541867731022,0.23716219387668214,0.24794880448174372,0.24903095621797244,0.24596324706420947,0.2360437848720578,0.23557070439271688,0.23663805905125357,0.24714641027764084,0.25235391587916367,0.2635128585624169,0.28193860347493893,0.3041197128267059,0.33270243030940727,0.36603359009051517,0.4074397954174167,0.4465300658362754,0.48132551224000175,0.5094201404228904,0.5291762046610453,0.5161981046115749,0.4836147546848617,0.4389735331697968,0.39470846252217906,0.35052572606747856,0.30585531379877273,0.2644115011640611,0.22008277580957114,0.17839384448916884,0.13718637303588843,0.09949187222222933,0.06598487487273474,0.05303683856965136,0.07589700062486293,0.09422127199638086,0.10084728516502728,0.10590737881007883,0.1304626341342725,0.15800390921030805,0.18742803711092493,0.22360357638356043,0.26621420409918417,0.31159519773868616,0.3612161927976174,0.4056680549402263,0.45919206257887635,0.5069253806120331,0.5560379096875774,0.6110763806235513,0.6659662298685822,0.7126933578308143,0.7623386566074932,0.8018646374656184,0.8461752272491754,0.8946652604779854,0.942800212659803,0.983760402922963,0.9718733159668085,0.9340054736079677,0.9021912044723457,0.863137546099136,0.8120384259364382,0.7665194591618125,0.7118451091730489,0.6567634082567315,0.6037350227390885,0.5591085518658423,0.5049734511241086,0.4507775429571146,0.40633733792119187,0.35348198251141727,0.30878908772326263,0.2705632291764022,0.25831943334358365,0.26247716771896346,0.2618541803132548,0.24541398233194012,0.23008919482820578,0.23717706372550196,0.25705703848916683,0.28693357288019405,0.3072570554472447,0.31618955403297533,0.3216068080649508,0.32966197679553066,0.3301482215992746,0.3391254066963836,0.3446393787716928,0.35525915520122964,0.3567775850339767,0.3584427321285004,0.36363020058723383,0.35752172516420067,0.36850561764994727,0.38137876900428824,0.38371545013013253,0.3869999415215817,0.412293540250811,0.43830619259789816,0.47333218057206206,0.5100748898105889,0.546761328144856,0.5803454775967685,0.5971084606934987,0.5797261549587389,0.5471652832744682,0.5201510136038185,0.4836325892587634,0.4423196053168208,0.39964624049291886,0.3557612890038293,0.30357817775170726,0.2570677580162204,0.2155542865653295,0.1711302822225853,0.13396305957765997,0.10218348012886236,0.09925150527071236,0.12054495038494095,0.14533605122143878,0.15798070019512145,0.1692653305401246,0.18773157193608836,0.20951154637858305,0.23171396908965858,0.26601961196512147,0.31048174723678934,0.35705149388514745,0.40654011201728113,0.45375403490418553,0.5074794097592006,0.5520213806828462,0.6053746271286753,0.6600047916815763,0.7052880007373068,0.7571676635807247,0.8122423650348167,0.8651040890831332,0.9010276272566455,0.9378994946222947,0.9850612909975973,0.9999999999999998,0.9656570606653403,0.9132557032108399,0.8788841845854629,0.8405803161257464,0.7948752626695088,0.7444675631492095,0.6894001423437224,0.6356252678847178,0.5911929671084197,0.5376114584426148,0.4825512730472352,0.4318137722566806,0.38555217793999197,0.3340199259447896,0.3182535410554974,0.32781052326086324,0.3181978510157919,0.3091690477000053,0.2835665865494732,0.2626601840993603,0.253295033017346,0.2672375247289225,PM
0.9999999999999807,0.9861759207577194,0.9714820811515881,0.9567882415454569,0.9420944019393256,0.927400562333194,0.9127067227270633,0.8980131094222603,0.8841943387037994,0.8742384020088576,0.859804244893724,0.8451104543195471,0.830416614713416,0.8157227751072846,0.8010289355011535,0.7863351558229668,0.7719184328018203,0.7639005596331132,0.7539098644660795,0.7393055967167779,0.7246117571106465,0.7102966685560992,0.7004086781890762,0.6864030174669178,0.6717093283092621,0.657015488703131,0.6423216490969998,0.6276278094908687,0.6129339698847371,0.5982401302786062,0.5835462906724747,0.5688524510663437,0.5541586114602124,0.5398681449290079,0.5299944125884983,0.5159498768454016,0.5012561826588278,0.48656234305269663,0.4718685034465653,0.45717466384043415,0.4424808242343028,0.42778726792390875,0.4140382026105107,0.40403444155033474,0.3895783606495662,0.37488455582678726,0.3601907162206561,0.34549716996809865,0.3317604056085357,0.3217482049544944,0.30728825515037816,0.29259444781314015,0.277900608207009,0.26365117838137575,0.25380120941838924,0.23969188197372904,0.2249981794056245,0.21033137500112276,0.1991104428868049,0.18677775500330074,0.17307774122772457,0.16304897820781383,0.14956706806918496,0.14000013040271786,0.13045101763586409,0.12121195980947708,0.11281351941272177,0.10358072436051502,0.09517853638576534,0.08594948891155274,0.07754355335880869,0.06834726987501483,0.06348408379057424,0.05606286977859842,0.04279343642129907,0.03305625151130798,0.02558838336321645,0.018307269007507454,0.01107051285509808,0.005892136926068603,0.002088916440312061,0.0,0.0046645120117206895,0.012088478818723103,0.023692356043176876,0.03335263865589122,0.0429882698336832,0.055289065964030826,0.06337373907997201,0.06929104391113183,0.07825182860374369,0.09056789721794023,0.10057308590965897,0.111946286667992,0.12363944760578915,0.13328053356221825,0.1425611022671217,0.14999610975893152,0.15745242043552476,0.16487175394080755,0.17497764119476622,0.1844907460073174,0.18970164265037848,0.19702530967942256,0.20606548628208576,0.21138900982393838,0.2159185226211796,0.2204105362849934,0.2249414167870326,0.22880503666500818,0.2250276632297653,0.21836905657555283,0.21604431208397568,0.2090323969221184,0.20541486086724037,0.20652265058945185,0.2111645325236533,0.2114372715832047,0.2159650151365342,0.2171326190614209,0.2170610229402561,0.21183387354267458,0.20190567249756586,0.19646178575801065,0.18814725481444516,0.1877780816721376,0.18976570282518646,0.19378810068571017,0.1987484788883359,0.20597555232428155,0.2115457007454934,0.21773231165221174,0.2229336695332843,0.2229681992071335,0.21902352047393459,0.212417880682641,0.21126034026414053,0.2112217739006268,0.20734968007130838,0.20283568729661994,0.1995328545372369,0.19970701073974229,0.20469524358421098,0.21069631344297612,0.21126013030679835,0.2112601303067987,0.211256586604591,0.20865635621914147,0.20582165209342662,0.21070902509181533,0.21129402912436523,0.2147666787156841,0.21713224692146438,0.21709196824083765,0.21190797400382755,0.205520425476862,0.2014208419551402,0.19952279860732092,0.19951427106052044,0.19952508952599524,0.20155220883547098,0.20075196391802042,0.2048012794342342,0.21073738367467387,0.21126013030680202,0.21125963914910406,0.20992377415588936,0.2028331373012222,0.19953181448081347,0.19951427106052244,0.19951427106052244,0.19951427106052277,0.199514271060523,0.1995142710605231,0.19951427106052344,0.19951427106052366,0.19951427106052377,0.19947025405208318,0.19547663224060075,0.19360475603900462,0.18959722260915102,0.18777605255381635,0.1877706578098426,0.18912418200256365,0.19356745892617966,0.19083233145506562,0.18758190104606287,0.17929081822471082,0.16619756700848598,0.15578486321849228,0.1427034892149669,0.1358864998613296,0.135531986843488,0.14429579960569672,0.15454050782111084,0.16917080134096874,0.18386464094709987,0.19855848055323133,0.21325232015936235,0.2279461597654936,0.24263999937162484,0.25733383897775597,0.2720276471531471,0.28648833173438204,0.29496879764752393,0.30449690007012253,0.31905717776213205,0.3337508769776243,0.3478342877416589,0.35769376205565506,0.3719596065635167,0.38665344616964803,0.40134728577577894,0.4160411253819103,0.43073496498804165,0.44542880459417256,0.4601226442003039,0.47481648380643526,0.4895103234125662,0.5042041630186977,0.5188980026248287,0.5335918422309598,0.5482053260058457,0.5590843233843306,0.5718011237406475,0.5864942710323446,0.6011881106384758,0.6158819502446067,0.6305757898507383,0.6452696294568692,0.6599634690630005,0.6746573086691319,0.689351148275263,0.7040449878813941,0.7187387826463363,0.7331793879337161,0.743149390618433,0.7569476597471692,0.7716412562889108,0.7863350958950419,0.8010289355011733,0.815722775107304,0.8304166147134358,0.8451104543195669,0.859804293925698,0.8744981335318294,0.8891919731379605,0.9038858127440916,0.9185749676347463,0.9317038814938237,0.9421500231824398,0.9567882415454763,0.9714820811516074,0.9861759207577387,1.0000000000000002,PM
0.2671888097117884,0.2380809354861163,0.20577750156660712,0.17272196469263112,0.1397000662779705,0.1050570339356155,0.07521097634525897,0.04800585102471555,0.0257117593895253,0.02823753372879334,0.0400690386735828,0.04972784813755571,0.0593401975163067,0.06459939527788816,0.07828822733174257,0.10463163499484429,0.13745341450965654,0.17368401888077767,0.21362915587618925,0.2536314399560978,0.29073191919442676,0.3272334856630349,0.3670504042802637,0.40310565851629077,0.4406820470214655,0.4791685467687704,0.5102869396786279,0.5467693407499282,0.5817639256701309,0.6210183759964835,0.6610629171696293,0.7002275682196694,0.7352292557388621,0.7745809585581863,0.8146275436803695,0.8546667755390042,0.8929864447153538,0.9284217762683301,0.9680747427637161,0.9999999999999999,0.9946180922643092,0.9593577131480572,0.9243609520070889,0.8851057193795938,0.8450594866068853,0.8050119852834293,0.7649644839599724,0.7249169826365168,0.6848695290503642,0.6450569079065239,0.6094359310251846,0.5713409715077012,0.5315642540482192,0.49604354744764334,0.45895102818969347,0.42388945268872924,0.384411616376085,0.3473023936998775,0.31082276351311544,0.2709045861326248,0.2348628494225603,0.2077986611546111,0.17073866445619956,0.13621271528625722,0.12067805124581177,0.1149736253724799,0.10386552669173266,0.0909544982118996,0.08379104066926801,0.08386774608631942,0.08698796360183325,0.08706521627498331,0.08607102944013756,0.0810741859822296,0.07989750131745554,0.07438077152010047,0.068091526545634,0.06679723336684462,0.07838386985415513,0.09524881420107179,0.119233509549873,0.146110521195023,0.17748089970507552,0.21060940957280183,0.2402017271273621,0.26883322534799137,0.2826331555416225,0.26747296779754703,0.23646423315087695,0.2027081570434165,0.17001322672881847,0.13796852485990752,0.10594396403028805,0.07445994540028,0.04612634146190342,0.020284617931470628,0.0,0.0009746730372564016,0.00842478564513427,0.018277292113938026,0.024434981353557705,0.03461669681121493,0.05757812092892578,0.08859750184856086,0.12196316401405849,0.15851613009338694,0.19355126184763016,0.2324134204825573,0.26971030259575934,0.3060167038494793,0.3453556570608022,0.380412720262154,0.4194162397637494,0.45730878329748526,0.48905722521271133,0.5262025095960173,0.5622185670876837,0.5998112752427064,0.639826879303976,0.6784598672436194,0.7137030204814062,0.753348106936283,0.7933953512200217,0.8334361898725907,0.8719160580092217,0.9072398910488305,0.9466258136848537,0.9696066241225282,0.9463883282042859,0.909009472865575,0.8732966097184959,0.8334428525434742,0.7934010565736177,0.7547641372817927,0.7195298651080103,0.6798795749625927,0.6399065226700894,0.6032291548817604,0.5663090691568381,0.5263458130997721,0.48883548860247406,0.45280774788794964,0.4164682505239351,0.37934747726037943,0.34113195505591853,0.30564214156575276,0.2658766636785369,0.22772072909475416,0.19216122251830192,0.15248508772867997,0.1207360663516247,0.11719698868291173,0.11558576524892772,0.1097168937766505,0.09923384702572846,0.09731588844645256,0.11057517172308284,0.12275274015179127,0.1273009670124189,0.12938469895877758,0.1319672602702412,0.1359511808140813,0.13376103908103365,0.1315802508849625,0.12157587277062498,0.11329781823135232,0.11404301789644633,0.12710686273610483,0.14724661827509122,0.17238659087655972,0.20190007528484133,0.23062139036313056,0.26101023153769976,0.29460081069786626,0.31859465147961485,0.3192769124397913,0.2944188387963248,0.2627995654038803,0.2316166815151529,0.19985849626087082,0.16348261676139442,0.1291549148738208,0.09870558309544253,0.06913264206410885,0.043640656947801726,0.028705506094787725,0.03378243239668899,0.042676135229078205,0.048674177136048935,0.056133495447846626,0.06006277616616329,0.08337712739570813,0.11731445011644548,0.15230512035156385,0.1885568069528637,0.22459866886877833,0.2635736062885049,0.2985686967794857,0.33798201696065433,0.3775008804222616,0.41257297940486193,0.4513940203653116,0.4870954507711628,0.5194235459481641,0.5582660980548465,0.594446135374226,0.6318853103489429,0.6719014714748602,0.7119489727983165,0.7519382460903877,0.7875134011819426,0.8144514120720822,0.8522658617458599,0.8923056627300409,0.9321746923032602,0.9678869191361698,0.9960246547302335,0.9850682827112637,0.9477285020059075,0.9076905561651342,0.8676430548416784,0.8275955535182221,0.7875994179613822,0.7506452566058331,0.7140091947105308,0.6740324871195812,0.6339912356340281,0.5953980369365753,0.560134197998914,0.5205443923378833,0.4838788220635347,0.4474124886610614,0.41229279776618266,0.3735313297069519,0.33447571558916034,0.299425620188874,0.26005753603293325,0.22430489729722425,0.19651002851731147,0.16053564441880164,0.1389716803085611,0.13899766941443092,0.13395745718148955,0.1252827794900856,0.11858065842416166,0.1213192959071917,0.1368731882446469,0.14556338989219897,0.14670709881288124,0.1465410956489558,0.14239451257500113,0.14010324062074198,0.1398893836543268,0.1347596748671115,0.12757645867054246,PM
0.3176618606203141,0.32748905109344517,0.31326233186867714,0.2860056875438872,0.26478267456085836,0.26308630663653054,0.2780972406845923,0.28596397777265037,0.27640231165511886,0.2721804862429298,0.26229900823015595,0.2520949774943706,0.2490449198147051,0.24884730670282607,0.24064394074964057,0.23469985397116955,0.22400672122563825,0.22277142161011843,0.2331335348859176,0.2381072005579694,0.2513597794675786,0.27212647185728556,0.2951530875097068,0.3250449466013301,0.36136639251243374,0.39683747420253757,0.42659489132797934,0.4495271460805148,0.4385780536079211,0.4102633185226392,0.3675733662778511,0.32590722495181157,0.2845801667027248,0.24088464362175244,0.19868595614312645,0.1573422358098322,0.11383679279923986,0.06825498951034059,0.029431129826684943,0.0,0.009880950893458529,0.03358293244273658,0.052838532584315034,0.07181575179277311,0.07749283824458097,0.09788678546419427,0.12115994647095918,0.15249204728742582,0.1937987930245948,0.23821559041825258,0.28551453312915487,0.3299383560432043,0.37897027797715377,0.42598729408317326,0.48088257991703043,0.5328076612988661,0.5781324189986641,0.632677340393226,0.6876667843797597,0.7355159673562801,0.7845175724746694,0.8394099969317941,0.8864480043971421,0.933565292368699,0.9587572836074598,0.9378435694529619,0.8963789707010854,0.8451295510684897,0.8023175175845105,0.760353473017026,0.706141327596254,0.6519906875298143,0.6076166101179437,0.5543530732400634,0.49928372139761223,0.44783808013428206,0.40218402950656107,0.3493205573066487,0.30541928130222673,0.2622963772759659,0.22616194560805902,0.20942691271747838,0.20859254723045884,0.2017614842297244,0.17623711828825095,0.15667653096584355,0.16612815159703698,0.18786090140656841,0.21264393628809208,0.22196862391961303,0.22218647399629332,0.2290541867731022,0.23716219387668214,0.24794880448174372,0.24903095621797244,0.24596324706420947,0.2360437848720578,0.23557070439271688,0.23663805905125357,0.24714641027764084,0.25235391587916367,0.2635128585624169,0.28193860347493893,0.3041197128267059,0.33270243030940727,0.36603359009051517,0.4074397954174167,0.4465300658362754,0.48132551224000175,0.5094201404228904,0.5291762046610453,0.5161981046115749,0.4836147546848617,0.4389735331697968,0.39470846252217906,0.35052572606747856,0.30585531379877273,0.2644115011640611,0.22008277580957114,0.17839384448916884,0.13718637303588843,0.09949187222222933,0.06598487487273474,0.05303683856965136,0.07589700062486293,0.09422127199638086,0.10084728516502728,0.10590737881007883,0.1304626341342725,0.15800390921030805,0.18742803711092493,0.22360357638356043,0.26621420409918417,0.31159519773868616,0.3612161927976174,0.4056680549402263,0.45919206257887635,0.5069253806120331,0.5560379096875774,0.6110763806235513,0.6659662298685822,0.7126933578308143,0.7623386566074932,0.8018646374656184,0.8461752272491754,0.8946652604779854,0.942800212659803,0.983760402922963,0.9718733159668085,0.9340054736079677,0.9021912044723457,0.863137546099136,0.8120384259364382,0.7665194591618125,0.7118451091730489,0.6567634082567315,0.6037350227390885,0.5591085518658423,0.5049734511241086,0.4507775429571146,0.40633733792119187,0.35348198251141727,0.30878908772326263,0.2705632291764022,0.25831943334358365,0.26247716771896346,0.2618541803132548,0.24541398233194012,0.23008919482820578,0.23717706372550196,0.25705703848916683,0.28693357288019405,0.3072570554472447,0.31618955403297533,0.3216068080649508,0.32966197679553066,0.3301482215992746,0.3391254066963836,0.3446393787716928,0.35525915520122964,0.3567775850339767,0.3584427321285004,0.36363020058723383,0.35752172516420067,0.36850561764994727,0.38137876900428824,0.38371545013013253,0.3869999415215817,0.412293540250811,0.43830619259789816,0.47333218057206206,0.5100748898105889,0.546761328144856,0.5803454775967685,0.5971084606934987,0.5797261549587389,0.5471652832744682,0.5201510136038185,0.4836325892587634,0.4423196053168208,0.39964624049291886,0.3557612890038293,0.30357817775170726,0.2570677580162204,0.2155542865653295,0.1711302822225853,0.13396305957765997,0.10218348012886236,0.09925150527071236,0.12054495038494095,0.14533605122143878,0.15798070019512145,0.1692653305401246,0.18773157193608836,0.20951154637858305,0.23171396908965858,0.26601961196512147,0.31048174723678934,0.35705149388514745,0.40654011201728113,0.45375403490418553,0.5074794097592006,0.5520213806828462,0.6053746271286753,0.6600047916815763,0.7052880007373068,0.7571676635807247,0.8122423650348167,0.8651040890831332,0.9010276272566455,0.9378994946222947,0.9850612909975973,0.9999999999999998,0.9656570606653403,0.9132557032108399,0.8788841845854629,0.8405803161257464,0.7948752626695088,0.7444675631492095,0.6894001423437224,0.6356252678847178,0.5911929671084197,0.5376114584426148,0.4825512730472352,0.4318137722566806,0.38555217793999197,0.3340199259447896,0.3182535410554974,0.32781052326086324,0.3181978510157919,0.3091690477000053,0.2835665865494732,0.2626601840993603,0.253295033017346,0.2672375247289225,PM
0.6212462860253625,0.5721375949745078,0.5255114838438952,0.48694934229001197,0.4494534168932436,0.4028154061072122,0.3615364528271283,0.3248576557520655,0.3288569994900412,0.3299246783876,0.31965876576195806,0.31414736822473,0.3214948130495714,0.3168653332479625,0.29559244235694115,0.27579917418606725,0.26381324576917686,0.26941285900048983,0.2876013032461824,0.299263642117491,0.3013040902868047,0.31318024386672105,0.3388807516150594,0.37152669448079667,0.40688132472428507,0.43919288027196024,0.45713094662874476,0.4435609515690029,0.4105388633140554,0.37061890916151286,0.3257204232673472,0.28252304037967946,0.2349271142801561,0.18803540556199905,0.14321588213022562,0.10261078634777965,0.06420375645029686,0.0351112924773469,0.03563100554364773,0.029299065731912766,0.03387232020823849,0.04514591375813759,0.07635921996257355,0.11429868481096772,0.15429206114268368,0.1968000340849161,0.2416809073643389,0.2916654985919551,0.3373892462983401,0.3902463899417179,0.44372495628737396,0.49035572860058574,0.5410917369575825,0.5948739023074296,0.6486623558652893,0.6999155317688384,0.7461677543975773,0.7995024070586376,0.8532991511438237,0.9063393889493281,0.9520646490357512,0.9952271449949854,0.9970536002616981,0.9538774001869619,0.9074535631369762,0.8653358164725897,0.8136305046403891,0.7651175212915662,0.7168083367657496,0.6724679823832116,0.6294496861232501,0.5803932935103766,0.5328839160110184,0.48371422705115497,0.43727119354228194,0.3933426196168306,0.3506793040101406,0.3241893311426427,0.3165949487467401,0.3105713499082945,0.3024332286145204,0.3042375386318601,0.3111846394918818,0.3114642727457828,0.30874867209609014,0.29981703478578337,0.29057248668030655,0.28169163873885883,0.2812483805517123,0.2956046778238859,0.317239431547786,0.3458281374713137,0.3786250161024858,0.41596867278834404,0.4569387480363285,0.4903637513715402,0.4976819455302266,0.47258686460991606,0.4321624082605302,0.3891310779463155,0.34512108309609646,0.293095836690227,0.24517114702758436,0.2000996290256818,0.15689592925096374,0.11206380592135123,0.07076222271081112,0.03052730821141192,0.0,0.0028861823828674193,0.008066369836080556,0.01705716796153056,0.03565259957152822,0.06999104339098317,0.10878373150068477,0.151080336325214,0.1975596609182544,0.24667378247104632,0.30037475821928505,0.34983205642015647,0.39760258411663973,0.4512488771593741,0.5049683931784459,0.5523245172557656,0.5857090658042223,0.634778364945954,0.68855248094796,0.7413435940892852,0.7869130009155161,0.8393844073964389,0.8918317035131171,0.9321966471295056,0.9345238661582635,0.9019042966604844,0.8575344165751975,0.808272180507881,0.754704437434109,0.7074771762541954,0.6642601612174233,0.6191527406777195,0.5709429694215629,0.5206068072652947,0.4737176239512144,0.4223000996678252,0.3786963810658439,0.33924431810179567,0.29665776148350975,0.2797868193607753,0.2752878095606264,0.2796087573344197,0.2799651775542984,0.2893343149962113,0.3095148982111444,0.3304481225863356,0.3632663802690643,0.4007441917991481,0.43840961068370166,0.4758733540984703,0.507525864426214,0.5175547725402316,0.4886476532510009,0.4493546763867309,0.4064908382097545,0.36150598621191876,0.31665357620661494,0.2731497897770889,0.2289028006185252,0.18509572877061875,0.14528941025163578,0.10528879358821785,0.06306644266247008,0.04069498420766138,0.04953809152468969,0.05756355419014514,0.059765137810396274,0.07850869980599162,0.1103100198039777,0.1489337172237879,0.1924381136658364,0.2373119144207283,0.28813074552775575,0.3419149479809229,0.3957122108607707,0.4495092587446321,0.5026960404702421,0.5486968576862867,0.6003474167524561,0.6541378616461817,0.7079345356239799,0.7608282295093793,0.8064698170873112,0.858768385530279,0.9125236595118988,0.9619877853427636,0.9999999999999998,0.9941852554770632,0.9519839664392322,0.9059476962471151,0.8609589893297647,0.8160809290399682,0.7648798931796226,0.7156922870024698,0.6726955467138265,0.6314005567508534,0.581307908857623,0.5278656217697006,0.48119032373628334,0.43439727087324553,0.39341323041908893,0.3561403668300931,0.3433630301637114,0.3404462559818662,0.3283464831745708,0.32636462119935605,0.338586816897648,0.33577943042083924,0.3154617607015091,0.30588442580849295,0.3009827342389848,0.30046104896948966,0.29304826881146395,0.2980553355202755,0.3197703057457968,0.3526667521914464,0.3916138839014822,0.4373422422248714,0.47990102578943095,0.5148556148033832,0.5315920815980502,0.5158831992014243,0.4769035325963755,0.43199530441486744,0.3870075140058633,0.3408979320685792,0.2889976386961257,0.24407589024235987,0.19995171012153,0.15690320787724632,0.11495305605159944,0.07631223885524396,0.061816302027639214,0.03608890479960336,0.03541481619683684,0.04517092886025331,0.06881455223320576,0.04940463627707792,0.050840278779722636,0.09103513820702736,0.13099701306378564,0.15020293388905848,0.1759021586000984,0.15755325926852803,0.14506569848717787,0.18276162681655173,0.23050439355643726,PM
