0,1,2,3,4,5,6,7,8,9,10,11,12,13,14,15,16,17,18,19,20,21,22,23,24,25,26,27,28,29,30,31,32,33,34,35,36,37,38,39,40,41,42,43,44,45,46,47,48,49,50,51,52,53,54,55,56,57,58,59,60,61,62,63,64,65,66,67,68,69,70,71,72,73,74,75,76,77,78,79,80,81,82,83,84,85,86,87,88,89,90,91,92,93,94,95,96,97,98,99,100,101,102,103,104,105,106,107,108,109,110,111,112,113,114,115,116,117,118,119,120,121,122,123,124,125,126,127,128,129,130,131,132,133,134,135,136,137,138,139,140,141,142,143,144,145,146,147,148,149,150,151,152,153,154,155,156,157,158,159,160,161,162,163,164,165,166,167,168,169,170,171,172,173,174,175,176,177,178,179,180,181,182,183,184,185,186,187,188,189,190,191,192,193,194,195,196,197,198,199,200,201,202,203,204,205,206,207,208,209,210,211,212,213,214,215,216,217,218,219,220,221,222,223,224,225,226,227,228,229,230,231,232,233,234,235,236,237,238,239,240,241,242,243,244,245,246,247,248,249,250,251,252,253,254,Target
0.0122058864024579,0.0,0.002051827214549995,0.04830059785619589,0.10559109203091044,0.18708979918806623,0.26902278374865496,0.3412751448448983,0.38894016853824187,0.45141921472491475,0.5138705370213046,0.5831236802100692,0.6347711232589406,0.6600754966537243,0.6381247575844693,0.635338465467604,0.6474292148597218,0.6668440892748109,0.6670310837731703,0.6616830956324709,0.6337103304693512,0.6057950405277355,0.6035000398553905,0.6068501091934424,0.6330803333067294,0.6359962428369021,0.6589039991070553,0.6732646533226383,0.6982894286461381,0.6988026594067271,0.7027163595170407,0.7288653043249278,0.744147805771961,0.7326400497044574,0.7015619006775253,0.6677899612168137,0.6401948691846524,0.6250651334244717,0.6039437729069483,0.6034976612930114,0.6035008626275387,0.6108595650720003,0.6348194814536248,0.6352655011843478,0.6353136807258668,0.6455113995426016,0.6667569224051526,0.6697527169953625,0.6962017072159741,0.7029625541763211,0.7289152163677084,0.7305699489640762,0.7326152148518954,0.759237719246662,0.7752840752179022,0.7939442068483968,0.7948200568861239,0.8176291758113754,0.826898092776835,0.8514192711918893,0.8652448037496683,0.8890061096293875,0.8984583160427952,0.9208252627347875,0.914633304624461,0.8616039060230687,0.8199346178498015,0.7788039954025976,0.7624431828514906,0.7623288948974611,0.7497198805711278,0.7030929067393803,0.6271835285341316,0.5712470852436198,0.49595902714567064,0.4503674626053984,0.39079542257278455,0.33730804180511686,0.3104288792078407,0.28666539458880713,0.28569368902584547,0.2675204441934511,0.22701998856440042,0.1727884133166011,0.14463968500960434,0.12712469130172277,0.13539708667039552,0.15836350738718608,0.15874790281471807,0.15874790281472428,0.15872503663259518,0.14334424440112947,0.09553853260122924,0.04166390187995628,0.001477242227516662,0.012426510152746317,0.08593571309658898,0.16758917983907562,0.22926367101660539,0.30005298884925935,0.3701731695299797,0.3442494317257285,0.297196813660241,0.28198693148618403,0.25577054389386955,0.23719018799467406,0.22238222549310116,0.2224107482585147,0.24009969484916915,0.2531972039022623,0.22733467068746283,0.19967322063374393,0.19054691829132064,0.1905121795262943,0.18435917209860264,0.16670642315101603,0.19004301911068744,0.190517398372144,0.19509916390265225,0.22102924020689763,0.23959601576816336,0.25404190823900663,0.24998924148457746,0.2149635749009544,0.17347105261290174,0.1351050126415787,0.12650247515132307,0.10179561504308321,0.08764280898178267,0.06569209394520392,0.09451151635220967,0.13486796692743663,0.1641340141862706,0.19002057756495372,0.21685234356616157,0.27053308440503265,0.3453667135121421,0.40176534177260415,0.47897979869651763,0.5433066904323338,0.5995768755313176,0.6602361237898986,0.7023189861570724,0.7304612367496697,0.7580724448366327,0.7623363570543731,0.7623368607499552,0.7623368607499597,0.7623303127074728,0.7520787797048074,0.7310074397688489,0.7315536217349701,0.7559554444365748,0.7474858046561259,0.7306874102842675,0.7305690208586757,0.7280835171537463,0.7016964102150443,0.6988023889039834,0.698801180967374,0.6988011809673793,0.6988011809673838,0.6988011809673891,0.6959460331672123,0.6695045241443625,0.6857255876639483,0.6768841350849737,0.6670754869556887,0.6670333410760936,0.6670333410760989,0.6670333410761033,0.6662805440676456,0.6404654885109986,0.6110939649972069,0.5707350050407856,0.5422096456766736,0.5645717429180168,0.591374468253548,0.628299093938189,0.6084649189827722,0.6034994195641685,0.6034896581304574,0.590822625318344,0.5446957149934955,0.49019705604452923,0.4155642234421464,0.35986676165809683,0.3199310082456508,0.34360589997828317,0.4030714649029026,0.47283961516866047,0.5352364950529092,0.6164294490939479,0.6745671862823883,0.686529506841878,0.661012828704604,0.6362962582836529,0.6352655011848585,0.6352655011848638,0.6352655011848682,0.6352655011848727,0.635265501184878,0.6352655011848825,0.6352655011848878,0.6352655011848931,0.6352655011848984,0.6352655011849029,0.6353981519932095,0.6536412568600616,0.6673477319838419,0.6876972359879456,0.6887598495875116,0.6670565110707134,0.6396528070963132,0.5987373988254667,0.5468598082278895,0.5385181119423894,0.5126650550474894,0.4972661161493619,0.4767724081935709,0.47642630172835876,0.4766800957486028,0.4965929163583791,0.5081872158055161,0.509901856648332,0.5358221840984321,0.5506669873804881,0.5784188010901703,0.6030461001030565,0.611881179368785,0.6394976434761457,0.6656716826961135,0.6543128289682247,0.6347443481852908,0.6091713731238322,0.6039995666584597,0.625566013790781,0.6564602366954766,0.7082859211523287,0.7496942467020764,0.7884758171782398,0.8147552274034107,0.8404721993356157,0.8670467711720535,0.8900259479885193,0.914695991428184,0.9403311938332504,0.95336651120929,0.974501822644954,1.0,0.9968278467769744,0.9432243111685423,0.8632588066253852,0.8068095275541562,0.7421510657468637,PM
0.828937953749477,0.83029747591935,0.8452328560522311,0.8443670064726496,0.8537336839504808,0.8614144287238248,0.8684564821137504,0.8742097181210728,0.89532755516688,0.9093294711890954,0.9230703437311463,0.9432563838804646,0.9695471226420365,0.9877351293628891,1.0,0.9953584818224912,0.9683868748383753,0.9362471427228782,0.9095329372921324,0.8770357884293007,0.8553145446152244,0.8361748008751717,0.8177150712199177,0.8103447626570874,0.8073009711015855,0.816337396061364,0.826664532109453,0.8210276358831186,0.8158102601694917,0.8203571868748898,0.8287967135236602,0.8289370077283098,0.8289926298644459,0.8337271303852911,0.8333240198282503,0.8304211032413518,0.82882995431099,0.821028380549647,0.8168119041475532,0.8273011752171668,0.8243292521941763,0.8159906042908505,0.8210282316163533,0.8288282112018841,0.828937007728332,0.8288912065582914,0.8225698262321868,0.8068126365683281,0.7917570668691769,0.7977427886114317,0.7959641005161773,0.8101312188872938,0.8078268283235297,0.8020612322208316,0.7923242589648276,0.7993236492761646,0.8025592694867196,0.8044901914143194,0.8193487860391571,0.8464226625841205,0.8731554419327496,0.8626068699562239,0.8296511787734375,0.7867359864614203,0.7428043970580833,0.7086288389483322,0.6654155845267855,0.6216656929222655,0.5876063501899251,0.5440947060055841,0.4993053138734431,0.4606814009097846,0.4227181159882676,0.3779381945342164,0.3332423494154697,0.29684573674084347,0.25659226603351404,0.21286559909131775,0.1788062563589774,0.1354349063792848,0.09904257701080432,0.06149767702069009,0.03178599364709389,0.02561516716528267,0.0423675562176653,0.07248335238503678,0.10644783078859832,0.1458033236591494,0.1837523050888259,0.22237609890584364,0.26643877386712567,0.30097927482063525,0.34365233078483626,0.3884878743750224,0.4333240136984169,0.4781456019496675,0.5190600581390645,0.5548169748171494,0.5984548594415098,0.6327546621377924,0.6752393442846438,0.7097767390945782,0.7500962373331923,0.7708392183893271,0.7876940746441781,0.7848987176722906,0.7841483669794789,0.789361553766843,0.7904023796481923,0.8012962807564934,0.8151020259501638,0.8297194394623855,0.8414724817137822,0.8568995634908831,0.8797526507618088,0.8911105851745673,0.9187864920174178,0.9378527294175263,0.9594276560543493,0.9469603968521914,0.9282021374711165,0.8958381612905182,0.862759176127414,0.8379586863526782,0.8018737450500222,0.7735634624956562,0.7631994454703133,0.7581347420172446,0.7382573386643356,0.7403333158605543,0.7381112854878107,0.7366290522305374,0.7366274580547234,0.7376539208709105,0.7482359395214244,0.7560482760503988,0.7699590224545503,0.7649665230827454,0.7699348643007928,0.7777670779254264,0.7886042251901744,0.797020762628093,0.7935548664729319,0.7775433553187798,0.7729928595805653,0.76910523649022,0.7664693178177138,0.7724670561101421,0.7831088604072725,0.7893183452152837,0.7847650920929259,0.7736904753635381,0.7623455996017032,0.7513452513354775,0.7584409769671239,0.769090307478526,0.7734082220624474,0.763430461651391,0.76320690997622,0.7715813295768781,0.7761770465843472,0.776224082355188,0.7819562373836089,0.8101522407240722,0.8387255162550433,0.8477621843375709,0.8105568557863445,0.7736045183981961,0.7430472560541523,0.7148946601357706,0.6792715118232571,0.6390178028226434,0.5942066312706908,0.5494477907955413,0.5116177544447806,0.4728395119314648,0.4280491737781136,0.38338482633756743,0.34762776072618196,0.30671378112335224,0.2635169328777862,0.23065030270036235,0.205431705861576,0.17234150904635936,0.1353050875195383,0.0990425770109089,0.06148849919248067,0.026919078007730635,0.0,0.008403925952878755,0.03245424437559663,0.06361746787944944,0.10585558143903606,0.14063600619659966,0.18240648690815742,0.2129226093084282,0.23852414069146755,0.27773053953858295,0.3225274075986926,0.3627812357459479,0.3991778484205739,0.44383830906857913,0.4834315091736927,0.5204659258024404,0.5635707411374655,0.5977462992472169,0.6416804288475819,0.6865120465715471,0.7270589248777801,0.7501195572370816,0.772925021125658,0.7839369762501409,0.7894176227029859,0.7963047805967061,0.8025170069564438,0.8026935730075495,0.8103526391595519,0.8210702949273174,0.8367856383318699,0.8552655253070869,0.8684687106071824,0.8914921185797411,0.9177632813683769,0.9386448915688903,0.9441885005561668,0.9245349821732645,0.9000325135703644,0.8703076582785543,0.8441286176935536,0.8192127021788007,0.7927099044799704,0.7682703120868308,0.7465734461327433,0.7416726505648139,0.737309320076847,0.7366418601936644,0.7398464495417425,0.7403017172023105,0.7490200162883576,0.7427768082716906,0.743635355491465,0.768514619905273,0.7750888472497954,0.7645322617765724,0.7715822755981581,0.7761770465844164,0.7761886085245333,0.7760168166416856,0.766400782553418,0.7527775106341594,0.7597623498733537,0.7629979700839087,0.7649246087053636,0.7749319545920148,0.7656413354702076,PM
0.7754445599926041,0.7960266960248963,0.7630496101233546,0.7185883265993342,0.6877705606554314,0.6945617608880288,0.7325902364687864,0.7429561208308235,0.7429814851279413,0.7429814851279501,0.742981485127959,0.742916686858345,0.7254741387761503,0.665786151864364,0.6576730966402118,0.6686545196641256,0.6243256909352808,0.5515849546641811,0.5259361518382986,0.5256339405962298,0.5177738093491198,0.47418359260162424,0.387277699913152,0.2981844082537788,0.2090905115253867,0.11999832915921749,0.03611857434032606,0.004988770475357285,0.0,0.00020286411145331584,0.007868614000983154,0.03310280874320659,0.1149636555080149,0.2040474607671814,0.29314135749557346,0.3822349516894552,0.4697159955956134,0.508301529138659,0.44757008311018476,0.37269309435203235,0.29801521515620477,0.2090965622156049,0.12934561134395883,0.11962297575918912,0.17881305394936087,0.24549957615977336,0.32648610670583844,0.3925504498156882,0.45533677044992293,0.5148306394598063,0.5743241050903429,0.6368180767722422,0.6853605023604437,0.7086062403399551,0.7144001637047119,0.7144041974981872,0.7144041974981952,0.714404197498204,0.7144057101707619,0.7177962611212974,0.7459073175295798,0.7849101198920097,0.8294797952462507,0.8740147560726448,0.9182335524119565,0.9512175726826908,0.9645477259383539,0.9251049371414646,0.8691551527004973,0.8219286184744861,0.7773974202385978,0.7444610291277676,0.7204530828242457,0.6908159254293218,0.6624567023762542,0.6572567196491303,0.6572496222385875,0.6572496222385964,0.6572500256179503,0.658812274990995,0.6829836605203732,0.7185844944958393,0.7604854664822347,0.7648984624238566,0.726774957993237,0.7043392526204344,0.6606246328902983,0.6630961184637258,0.6999617478323965,0.7143233126566337,0.7132786246643081,0.6910215095473498,0.6858340072791056,0.6858200524196696,0.6767860615450494,0.6383699705602743,0.6302009051506334,0.6349780867964845,0.5738032405646227,0.49970681477881174,0.4108125418541557,0.32171864512576365,0.23287631470841097,0.16283049132885585,0.1068042013217716,0.09288548316399092,0.13753856250394092,0.19098540436141365,0.24741889295231934,0.31395511786615193,0.37545183095318224,0.439176688907732,0.5201525323183565,0.5317749150792497,0.5165798036284639,0.5410977243526998,0.5681374405335835,0.5715165492111649,0.5720521209205303,0.5929144296841007,0.6000991886029516,0.6059403330661248,0.6430882128202353,0.6812895135068184,0.7336029824163073,0.780498644347404,0.8366939993455511,0.8815695389129092,0.9169166855218811,0.9188509812180619,0.8642807435944717,0.8176279349154485,0.7648640822062789,0.7274034309136304,0.6893214345434919,0.6595328638949884,0.6316465218419087,0.6098004743925185,0.5967507577124924,0.572968673745081,0.5502614752032211,0.5604825434343534,0.5714738882040149,0.5720232028870726,0.5959591139108986,0.6271657441784595,0.6187509830725815,0.5893617976041017,0.5596112342831874,0.5454278415561817,0.5681394574305112,0.571555944911887,0.5821251102820573,0.5979444929625317,0.5745482432987719,0.5855163806021202,0.5999928316338932,0.5953340849236599,0.5734631243666128,0.5933865517439503,0.6445541848214202,0.6051896701436976,0.5167419720740081,0.4375001914396939,0.36747726175156936,0.3170227610594334,0.3335147995112453,0.37726226885161696,0.4218465916569447,0.4696091009716663,0.5496079928363824,0.6124504515551394,0.6513337665426708,0.6572455884456203,0.6572496222390947,0.6572496222391035,0.6572496222391115,0.6572496222391204,0.6572970925121493,0.6694907322178323,0.6910639540624488,0.7294264880473187,0.7688938612699476,0.815255527662448,0.8630729315245893,0.9047223049676991,0.9056859066443246,0.8590373845909416,0.8222821828070681,0.7894834604463292,0.7504582675440861,0.7214226637370911,0.708969768882111,0.6870565390837995,0.6856814527482364,0.6688728280538228,0.6766927380166856,0.6599698906313143,0.6572685950396573,0.6645393882581732,0.7023401341192383,0.7350175431898358,0.7623478959603989,0.7421430530961213,0.7094981448078603,0.6770121409802052,0.6578623890139519,0.6741480656472105,0.7051470535801694,0.6877687453170513,0.7045271204872008,0.7144209204266265,0.7254626110361904,0.7428429237289564,0.7481322136624065,0.7586267526603225,0.7055547279095138,0.6671558609166959,0.6793055489245767,0.6345384519586905,0.5503389943484485,0.4693571312815732,0.400252940179342,0.31168566817941157,0.2350299511172298,0.20227973193936366,0.2283153956246884,0.2946153668081082,0.37385402125249234,0.459486246822451,0.5126747409194778,0.578720240359949,0.6294516031034783,0.6790548800537111,0.7135565958566032,0.7144041974991331,0.7144056093268554,0.7176283375256864,0.7414189090333978,0.7429817876635361,0.7443778278022646,0.7682009576181241,0.8031933871134886,0.8363755053734088,0.8599467601398962,0.9070059716138306,0.973475083179109,0.9999999999999996,0.989784211621306,0.9473417876872072,0.8909859253894239,0.8538341347316369,0.8155249736245405,0.7936494327017773,0.7558946747822248,PM
0.4243832241402927,0.42438322414029983,0.4244107625363984,0.4382580505616591,0.48468562252270253,0.48500939901766493,0.48500862403122014,0.4751853712985916,0.4272245330263935,0.46472895317356233,0.48500823653801817,0.48500939901770224,0.48500939901770934,0.4846856225227629,0.4382581474350342,0.42627762381103373,0.47486159480369494,0.4382572755752925,0.42441076253649435,0.4243832241404135,0.42438322414041885,0.424166985650567,0.3831896514263047,0.36478628304685756,0.40410190643656385,0.41455687146201115,0.3453433678202362,0.30388918038072177,0.2619373016716615,0.24255948568071872,0.24255948568072405,0.26201933562011703,0.3326950525727437,0.3329112910626062,0.30321290833425607,0.3041053219973229,0.343476506545743,0.36375588678349935,0.3602665223601882,0.3114481188119438,0.30589073056331095,0.3654164351384175,0.4142342574468323,0.35636851998678587,0.25475605404805,0.19022340432669083,0.1847204147570949,0.2750556729194411,0.41629973415691524,0.5577605182507881,0.6908768101423934,0.7610925904116765,0.7201244067711592,0.6185131033121003,0.5539802598441277,0.5456347020354997,0.5253550311778294,0.48598307164297516,0.47518537129885274,0.42627762381125045,0.4382581474352616,0.484684460043324,0.464756394696618,0.43923249817346566,0.4846859131429344,0.49332644969745587,0.5421450469923226,0.5457176078437609,0.5755246910568896,0.6062080282067814,0.6284536258735098,0.7216146428447274,0.7612022596296182,0.7330317765428411,0.7898003373930678,0.8471423951603843,0.8996506293887467,0.9392809653345076,0.9696938590621134,0.9288240628429438,0.8890581661294785,0.8187875996879352,0.7467049581441003,0.6807088357589155,0.6359621658405317,0.5648264335120974,0.49883031112691256,0.4542998796983895,0.4244640956095065,0.40410268142332306,0.36473149687491535,0.36375704926342856,0.3647311093817027,0.39744540411230744,0.3665154523413019,0.3720742936895416,0.4209474834100604,0.4438146638243321,0.46451271468415456,0.4272245330268607,0.47518537129906946,0.48500862403170864,0.48500939901816764,0.48500939901817475,0.48500939901818185,0.4850093990181872,0.4850093990181943,0.484900698533437,0.45427234130242944,0.42446525808931135,0.4242745236561163,0.39342992793525156,0.32272754444629825,0.3330743902268196,0.3569912652143703,0.30864942426146236,0.35709996569914715,0.3637566617703545,0.36375704926358843,0.36375704926359553,0.36375704926360264,0.36343327276865445,0.3170057008076217,0.3031584127823752,0.30280709789133375,0.25640706432639426,0.2564070643263996,0.3028070978913515,0.30313097125961974,0.3049977356608782,0.3536092450496273,0.31700502269453246,0.3050252740569821,0.3539330215445986,0.363756274277236,0.36375704926369146,0.3637573398836196,0.3720740999431875,0.4208926972380542,0.4240594476461048,0.3741414456553809,0.31334154975006534,0.3441092844454836,0.30499705754781026,0.3049978325342675,0.3540150554931003,0.3936453914388629,0.42427471740294287,0.42714249907872137,0.4783521217074078,0.48500901152523035,0.4850093990184625,0.48503693741455933,0.49888422543981825,0.54531063492119,0.5252459432003995,0.44858873661671517,0.35677433043078466,0.3050255646770488,0.3189274451279598,0.4337503466586945,0.524000636264125,0.6588048211600999,0.8001834744322256,0.9118094431702701,1.0,0.9312595612860743,0.8625875541379937,0.8178406904729982,0.747028734639521,0.727568884700144,0.7275133235414408,0.7176900708088123,0.6687543974318917,0.6602307432128374,0.6086972472158987,0.5560200671608673,0.4931377496042799,0.4438149544446919,0.40404876711130555,0.33404922533188675,0.3223217340032676,0.3167894623180647,0.3031576377962253,0.29330684666750884,0.24534600839530718,0.282850428542476,0.30321174585536603,0.3339944391596674,0.40399417468570853,0.4271413365992398,0.47835212170760144,0.48500823653897207,0.47518420881989876,0.40586084221367713,0.33377829754314803,0.2620181731412856,0.22217024247938255,0.1521159145277018,0.12101060720813628,0.07101047439567054,0.008344589075557352,2.906199139118826e-07,0.0,5.4786172270837596e-05,0.01943260216322429,0.06040993638749903,0.06062617487736688,0.060626174877373984,0.06160062248887499,0.10097180703729158,0.12125118727505502,0.12125234975473731,0.12125234975474264,0.12125234975475152,0.12125234975475863,0.12125234975476573,0.12125118727509943,0.10097190391065247,0.06346670877704419,0.1016045849365419,0.07080931184503925,0.11776191972510652,0.12125234975480481,0.12125234975481192,0.12125234975481725,0.12125234975482613,0.12125234975483146,0.12125234975484034,0.12125234975484744,0.12222679736635023,0.16159798191476682,0.18187736215253025,0.18187852463221255,0.18187852463222143,0.18196055858065918,0.21176764179379148,0.24239599902480613,0.24250469950958298,0.24250469950959186,0.24250489325620883,0.24526397444722114,0.2963648965911414,0.2723926541915027,0.2327627057389723,0.18025485900384375,0.12956949730774348,0.12125293099479961,0.1295694004344483,0.17817175923945427,0.14068495191818897,0.12130713592724796,0.12125234975498955,0.12125234975499843,0.12125234975500554,PM
0.8787300303261603,0.8484705739392222,0.834886009617513,0.8568379493203535,0.8578538254954813,0.8578538254954893,0.8578555204365719,0.8614632060425658,0.9044802409609822,0.9877331892492958,1.0,0.9357716613169265,0.8674358990471855,0.7823705930454814,0.7211794269224869,0.6541603974475114,0.5650046948823926,0.49636420493651023,0.4109224815780843,0.3624021554015249,0.38385042358603716,0.4475063661180645,0.4730642741545985,0.38652184425980973,0.2938351565404318,0.20114677387997837,0.10848817030968938,0.027301433377406426,0.0030423144802202984,0.0,0.002533249389960801,0.02483026427777002,0.10455093966073914,0.19720258738379837,0.2898909700442509,0.3825793527047052,0.4746907863091545,0.5305234314393088,0.5298995141135796,0.5071949027238825,0.5344324730678673,0.544264697881939,0.5442909990484806,0.5458764380856058,0.5964579988384289,0.6832571393210713,0.6999192446064813,0.6869140208410736,0.696302145417671,0.6795175948854748,0.656444565346427,0.6437711246870075,0.6218058947632814,0.6212026357242113,0.6212026357242202,0.6214760229328942,0.640361617613256,0.6853924568177376,0.7198351227786937,0.7637149687164531,0.8099973170676078,0.8522985556250768,0.88781687258159,0.9113211723061037,0.8740997688290353,0.8340047401491226,0.8113850172061623,0.7806255249954939,0.7599212503090005,0.7294111115248807,0.7095229127477909,0.6876149595162557,0.6803841265860635,0.6803669977281599,0.6837238893619295,0.7091036123417771,0.7324192994555849,0.7187930951779604,0.7171335795297207,0.7193235395371564,0.6806254403515481,0.6559248373617423,0.6725344875323724,0.6803279616521785,0.6697920124256793,0.6511668574109546,0.6508138135359882,0.662224811464398,0.7198288645348905,0.7784893365660519,0.7159865862802972,0.6483122188468595,0.5795451367035405,0.5167640512609557,0.43298008615461026,0.3631084323438376,0.2762341374720565,0.2016949464572395,0.15160229941692016,0.15517340984603134,0.224654714673167,0.30054768709207735,0.3806722546262904,0.47325195133270803,0.5494213271684032,0.5358095944703027,0.5324600041211829,0.5324584395601981,0.5324584395602052,0.5324584395602141,0.5324972182403211,0.5428744833586308,0.561862454084598,0.5666508608498502,0.5916826394709078,0.6178612017846783,0.6653518275132253,0.7153566829128453,0.7617337157030697,0.8080285713633257,0.8502394318511408,0.847959276361756,0.8279872064123266,0.801877118488667,0.7655168491455999,0.7409192103569966,0.7393720204179033,0.7196724917875823,0.6881833251405354,0.7086340346662086,0.7166693876102457,0.7407945788835208,0.7653334319414613,0.7696011057728365,0.7901729968656968,0.798772634968409,0.8117233616589994,0.8036254482028129,0.7713414113009733,0.7774154437777927,0.7967638427375494,0.7737203911397925,0.769111585033019,0.7691182801200922,0.7749908905888079,0.8216815680704341,0.8916999787027029,0.9202811146060039,0.8467069223824675,0.7778412218710056,0.7105325621903953,0.6212431973873374,0.5397728036571658,0.46506118550573294,0.3738393296744835,0.3040849736316593,0.24237967603377886,0.24085904763361476,0.3057053192008352,0.38414402966970584,0.46155177472757014,0.546373142991512,0.6149330700442359,0.6488131583458827,0.6252856446245358,0.6212039395255653,0.6182377791236586,0.5941924940107484,0.5916222800439996,0.5916212370033449,0.5916212370033529,0.591666710770526,0.6036980013585209,0.6483426730605029,0.6946479922871589,0.7410137792304878,0.7873259584292587,0.827423357334137,0.8775453687664267,0.9131927486615572,0.8822563919470632,0.8484180139454809,0.8173684433232475,0.7863204372620078,0.7553784705787532,0.7335171370896374,0.7109436905218649,0.709946831889126,0.709946831889134,0.7099473534094729,0.7117308897092327,0.7349694284806594,0.7483584080826828,0.768471551850272,0.7500416316940628,0.7112058968274848,0.6886327559372818,0.7229181492460475,0.7176248125584372,0.7099688728516371,0.7099468318892077,0.7099923056563808,0.7220738093973651,0.7759045641167894,0.8411500361983029,0.8520930063937184,0.7878646677106458,0.7196510729747612,0.6490839146781582,0.5772665340161254,0.5070740237558233,0.4474796851364031,0.4009337031926341,0.32215059240580857,0.2736579592380872,0.2951062274225986,0.35950236972745575,0.44902726410166505,0.519624508532682,0.5839478379601477,0.5908098012146841,0.5696354482507493,0.5802592122957204,0.5755246512274779,0.5621287464820668,0.5620398382821898,0.5622022251733965,0.576235513982974,0.5716995892289471,0.5898358673918187,0.6182877584854278,0.644786960532092,0.6907367424537529,0.746189127821796,0.7937472736672522,0.8298632324925252,0.8742375377588738,0.9044680669326519,0.891091210152994,0.8545076054149154,0.8203034833243272,0.7892957781655605,0.7694641964736082,0.7564808190365788,0.7398008355389853,0.7395282306108237,0.7395282306108317,0.7401314896499169,0.7620883295455112,0.7704943508350466,0.7932890199631295,0.793694168837388,0.7706916721522301,0.7624941303202109,0.7403301147679535,PM
0.4669484083725388,0.4669484083725397,0.4669484083725406,0.4671140664131537,0.483203324759355,0.4982456979742542,0.4731864030567676,0.4979857511617469,0.4836801161904578,0.44790967069101484,0.3898721920510919,0.3644296184412834,0.33614260944815033,0.33319664080008504,0.3331947632445953,0.3350814929935133,0.3615180660209161,0.3666323468575108,0.3666330467501364,0.3666330467501373,0.3666330467501382,0.3666330467501391,0.3666047555938654,0.3546212079162512,0.33355852024609955,0.345571218751199,0.36641255284293717,0.3760441400676857,0.38398329692821154,0.33863048388503714,0.29151999204091883,0.2666477620096641,0.2691065572544753,0.29598669263454713,0.27515005800889547,0.29478167292947255,0.30084626244883506,0.3241394808508069,0.2943751254882754,0.21916466145570102,0.15052961853323055,0.08222015057178211,0.02236791499557711,0.0,0.037564466390254125,0.1033160737845229,0.19629373928890193,0.28952989844064003,0.3582417987940385,0.4480662350839042,0.5431356123107074,0.637883552457625,0.7108149591244475,0.7949312512409383,0.8899775267735253,0.9833804503416168,1.0,0.9167343811145949,0.8465830167511843,0.7689565483500491,0.6950688385325945,0.6273794861759914,0.5571235991380075,0.49517577090518117,0.4480544748291111,0.41617446287555016,0.39524707092556266,0.3685726159076399,0.3637523600633772,0.33659700235193046,0.35798288976663617,0.36019043796096195,0.33455093476621833,0.3326116734314297,0.3092080597296061,0.29953564509468045,0.2786943110029423,0.26638570729768674,0.2685337313822753,0.3034276116575727,0.3389695784792872,0.37170104957714223,0.4290324328968458,0.48932961280184895,0.48266976456284993,0.46198604116842557,0.4353968546159601,0.4335101248670439,0.43350995449844554,0.43350995449844554,0.4335099544984464,0.4335099544984473,0.4334805236827277,0.4212395445455597,0.40036108156263506,0.4000715006243132,0.4000706902223259,0.3941791417917635,0.37637345844664694,0.3955412217897658,0.37430202318902506,0.4027718285442976,0.4317571932116939,0.4155627788372227,0.4089383363324597,0.4328395804297811,0.433509954498458,0.4332980967422033,0.4130484566190349,0.4233826533207381,0.43564182018948294,0.4624985954447025,0.4732918905515531,0.4969336529993855,0.461401854665052,0.4146682173323031,0.40018993837327965,0.40839266746824077,0.41949122085036716,0.399992166951062,0.3787092626387514,0.39140065623961373,0.38090737765001315,0.3337252724883033,0.2711586113316189,0.19868868352182378,0.14379032506891942,0.13564952490484838,0.17763196300990902,0.26252324324963183,0.3495954263714447,0.4199743589768987,0.5142867685630543,0.6093216696338093,0.6929643409582127,0.7663898242498313,0.8525906820066123,0.9212052123058996,0.9294694302524853,0.8596913185235033,0.7834766757385259,0.713383751511266,0.6247008654838346,0.5564376659611829,0.490086014569191,0.4421757817653029,0.40178397840170277,0.37096827317388925,0.3607343420967135,0.3347631580571866,0.33269902215074776,0.30993923601651474,0.2997705027130255,0.29867094600325306,0.2715199561580519,0.250397289207859,0.2192556639162344,0.19969129383954165,0.20016048162882516,0.2250877182053035,0.25611757433658777,0.2758040576747005,0.31998656184067364,0.3675627404470214,0.41406654907112017,0.425061291851744,0.3996965889708832,0.3722463564356655,0.36663992958548874,0.366633046750211,0.3666330467502119,0.36668130415089006,0.37846129041025733,0.39977228033514756,0.40007150062435404,0.4000715006243549,0.4000523267436469,0.3901960549164789,0.3793570145541292,0.3930146339446692,0.36999462881595147,0.381080747819202,0.3841237000047153,0.3893933826253928,0.3801141004673898,0.3999024515710765,0.39391691566040876,0.37663289810821077,0.39532265159982405,0.3745576386712566,0.3988401225683793,0.37952700365025027,0.36923748543007484,0.39676438348529786,0.4189119256006979,0.433019737466835,0.40034541795051126,0.3444415890625674,0.30415115986971575,0.30002246733783,0.32754511843489187,0.36536519271679957,0.3433776898906835,0.3332089565871952,0.3321085342207528,0.29779482741469465,0.2349863805462249,0.16163388340197127,0.1054915544901247,0.04610549570094946,0.04748169174883454,0.11012521254523477,0.19285045117196553,0.2610718814357096,0.3516846987021083,0.44675415881093805,0.5413699259086311,0.612882106538005,0.6985428170432337,0.7917093066883805,0.860342750921169,0.9487971354834519,0.9678664148946163,0.897149417707432,0.8160778274548557,0.7470745671516186,0.662849616928459,0.5979693515191853,0.5328717495067572,0.46243176173961853,0.40846794148374954,0.3621374127036985,0.31996020324641616,0.29998064470836105,0.2997596978358006,0.3033585941800556,0.3303016329147166,0.30518635071496014,0.29976271965529566,0.2997561390019685,0.2997561390019694,0.2997561390019703,0.29975636462525124,0.3022798977790986,0.3317659253638503,0.369846045818357,0.41729214830483485,0.4610334233082263,0.49264057666421834,0.4933720667596022,0.4508672986883928,0.4178907810409518,0.37698065664230374,0.39103629632321546,0.3695158211631808,PM
0.7122667255582837,0.6899803785985337,0.6875021342622714,0.6656358904013673,0.6736550319540782,0.6605758714858276,0.6795070638400813,0.7038085987657561,0.7272786639310271,0.7025798353772861,0.6277261991865601,0.5697573444454567,0.5039571843634545,0.4279712874545534,0.36152007619355553,0.3041723800305971,0.23300484653913012,0.20651539077953673,0.16768702542045544,0.11490261179504158,0.061246384116496966,0.023118836602948445,0.0012925542822661562,0.0,0.02246950265097425,0.09457278854038753,0.16251588020080154,0.21210062334807,0.22976495112565365,0.2480197167846696,0.23772784725080998,0.26411034254235544,0.31638896210013234,0.3875684859994659,0.45386139603133513,0.5113585594675523,0.5871650092931806,0.6538341982869444,0.7108827819792496,0.7739539849265467,0.8324598162547203,0.8773282333221455,0.8815823627157378,0.8633016563567151,0.8921974181927497,0.9296200281568052,0.9553434647600985,0.976486631095216,0.9988864178765238,0.9999999999999996,0.9772368316045434,0.9758685471175341,0.9754520613201731,0.9522986669487179,0.9201308165355697,0.8944541501929257,0.8668222310793987,0.8349833028413856,0.819007751314587,0.7928860318152053,0.7436301154778708,0.6826515518931386,0.6402138546929135,0.6262203610008439,0.5916862024636242,0.5741538218884537,0.5824748752706417,0.6023432204685117,0.601576769589514,0.5781420549390455,0.5630026413734046,0.5445812521420055,0.5212392998822097,0.5310794363079503,0.5452615832795247,0.546691291981046,0.5695422445574922,0.5739831020434605,0.5739838393943377,0.574028693090598,0.583396401893348,0.6024107095778377,0.600954022751313,0.5772317065556964,0.5739856901450575,0.5739844366485802,0.57570633665047,0.5991287302943475,0.6026898899460531,0.6026927582409534,0.6081319107440195,0.6334381903560415,0.6579366432765732,0.6574856886695586,0.6334500411972255,0.6313997009871994,0.6360737627631852,0.659317855608196,0.6459072578613507,0.61079546553673,0.6046471280342458,0.628457527684342,0.6313967884512839,0.6332465572660939,0.65699534086411,0.6709262154795739,0.6652161995153096,0.6853562060737706,0.6888080416011344,0.6887962734812167,0.6773387202451153,0.6630257307785752,0.6867528290386269,0.6940260691281357,0.7169375329542507,0.725178931746822,0.7458129657497907,0.7462201427045065,0.7462104981550994,0.7365040998819716,0.7177754059342756,0.7040444959393066,0.6869801503689543,0.6575167941278397,0.6320946369765701,0.6118230684832846,0.6234630947469895,0.6313884195189918,0.6313959404978955,0.6313959404979026,0.6313976437784237,0.6343260398583337,0.6581513835658126,0.6601019910495869,0.6603774914617975,0.6786568952960361,0.6673704673247012,0.6538993405366189,0.6279872101788286,0.6041787575036213,0.6026936504357372,0.6097509707185531,0.6316194783732869,0.6529730063273926,0.6667773632231113,0.6921803470990668,0.7156557123875609,0.6947906658302876,0.6922788992364395,0.7108088954270779,0.674530809607591,0.6048817625595277,0.5287975315129869,0.4640601602286609,0.40514092941368895,0.3337863135138641,0.2804462181812446,0.21295453496905603,0.2009789252066585,0.22075048092448712,0.29215823207200176,0.36825476213109676,0.4399644896785291,0.4927122496743066,0.566555704600868,0.6200260383707668,0.6894693834807142,0.7417723440835675,0.7964287521649722,0.7730841186437689,0.7474479607127216,0.758190518118147,0.7747889727386865,0.7749278670428388,0.7777927390566037,0.8017638170643733,0.8187712032528727,0.8314470837142998,0.8081511821730207,0.8011042781752145,0.7763911925378042,0.7469279795382548,0.709158365027339,0.6884793845241064,0.6653835721369066,0.660104785609557,0.6595481998232038,0.6370588429463493,0.6313957561603822,0.6260739104761357,0.6049441266391793,0.6262027546495772,0.6315290981304087,0.6473636065357797,0.6600886892400522,0.6601019910497974,0.6601019910498027,0.6601019910498089,0.6601046971275166,0.6651929114564328,0.6882196251443298,0.6963457740751191,0.7170927398400377,0.7115693152929299,0.6856604055195992,0.6616586865842398,0.6601057515393003,0.6668770808012963,0.6883322519461355,0.6833786414350294,0.6611708160819378,0.6636683117484279,0.68905463060335,0.7141642195061073,0.7293869726734044,0.7460782677658897,0.745945616758037,0.7269902082124111,0.7175602200574507,0.7175140921532397,0.7175245422344996,0.7252002971330129,0.7354655333320532,0.7176953571897502,0.7248318130506219,0.7502745280177998,0.7740135675703574,0.7613988539157686,0.7371660876973016,0.7178724934263374,0.7175140921532885,0.7175110542676992,0.7122350101891395,0.6899276235061094,0.6888086241088334,0.6905230024158437,0.7108212534280329,0.690688804137547,0.6888089485432354,0.6859555249038585,0.662073190888639,0.6601030749557943,0.6601033551491322,0.6623012244683495,0.6859540272877171,0.6685032109016045,0.6764166773280302,0.6609972648027429,0.6601019910500434,0.660255152423153,0.6736550319549885,0.665635890402283,0.6875021342631951,0.6884823170202652,0.6693806116163104,PM
0.957552842194962,0.957552842194962,0.9576951073648705,0.970671028669416,0.9814879455628347,0.9815401313393681,0.9759686010103192,0.9582547298829409,0.9573550983228811,0.9429581282820347,0.9127659784278777,0.8808084540042969,0.8622343212879695,0.872352274901234,0.9290998727581359,0.9695751122681613,0.9676698858981805,0.9471032653807319,0.8961813459257884,0.8349541542545529,0.7608946084286994,0.697079934728952,0.6168811300438803,0.5533564593327354,0.47568042410807987,0.3936265813463775,0.31156672328046664,0.22950753223505327,0.14939252391542457,0.08701931300054477,0.022154361679099566,0.0,0.03543631131989455,0.10014023234956593,0.18188547487953288,0.26069082548219313,0.32349470942927194,0.4040726017346805,0.4859161608038276,0.5542844305078996,0.626276870228506,0.7022556449779618,0.7668951349011763,0.8368939865344038,0.8989125450843263,0.949200989379511,0.9573564889781645,0.9444485740810706,0.9515094946747764,0.9382279766108916,0.9180355149995276,0.9120800798793947,0.9294319709336896,0.9139059274586274,0.9309933347775061,0.9453310223733631,0.9601792524391337,0.9770435303374159,0.9486015145970117,0.9336878993052014,0.9335560994885022,0.9342020500417463,0.9431427840083799,0.9339003274322777,0.9335558999887357,0.9324111782750144,0.9137851711167082,0.9214761190462566,0.9207426986749887,0.8945101541173801,0.8982510055070256,0.8821111450526304,0.8520210202748966,0.8377942611782907,0.8429897937760367,0.8786452786131012,0.9263353013722169,0.9529835891391816,0.9413811182846432,0.8821239651689274,0.8188195943603773,0.7500150782425345,0.683190835714846,0.6018956905254651,0.5365961015153755,0.4613618478296946,0.3801497321336482,0.3159873586738482,0.2391974501911176,0.16187509259604882,0.09852390793409205,0.0392702584520781,0.04140323657427336,0.09935876627078866,0.1602242891069774,0.20726944091906985,0.2783088225298287,0.3570117311775953,0.41983210953392325,0.5004364523528033,0.5822691113624159,0.6505313563172597,0.7226376885259413,0.7985239901303305,0.8626246059319955,0.9248270820155127,0.9698437143880518,0.960775300461421,0.9575562460067686,0.9556274707491035,0.9379030176221326,0.9528380183507887,0.9379024888567931,0.9537052025018293,0.9576911962662722,0.9706419363287702,0.9822104987379503,1.0,0.9929817852345875,0.9664007096220608,0.9574080595604295,0.9434183992299507,0.9462930368547924,0.9642966232145276,0.9601798243697828,0.9561132528920901,0.9368790462213119,0.9340164537329922,0.9500351750561418,0.9538558118740359,0.9350198755391497,0.9305787532869272,0.8951419455447005,0.8624640549068316,0.8619818658881457,0.8808232402710079,0.9212369443813313,0.9539082412984343,0.9491820336534329,0.9006080622349097,0.839946011155555,0.7780348579429193,0.7035643917488459,0.6369395042430521,0.5631603209327882,0.48341907725359157,0.4208326201810313,0.3410216345005024,0.2625051673821388,0.1993798611974671,0.1268870113384395,0.0666928989124651,0.050226094885922556,0.10852192560430396,0.1896732780259538,0.2525293423585122,0.29823275898932833,0.3646474765457497,0.44441266104439947,0.5070415340842165,0.5866886395290973,0.6605850797880648,0.727123615056644,0.8064445864721961,0.865124297900207,0.912886616001594,0.9543127880426403,0.9541428449231435,0.9336558087591804,0.912764278349623,0.9095630497640093,0.9095594156011235,0.9114106309977159,0.9306585109269552,0.9448333983743309,0.959977581178745,0.979207161010966,0.9642547010731173,0.9557248165821299,0.9362238153736011,0.9335583571459667,0.9335559800311999,0.9335559800311999,0.9335559800311999,0.9335561091906235,0.9342469482554114,0.9511338537963523,0.939056677242148,0.9330699468361336,0.9113213280431447,0.8707360795244279,0.8306526526024154,0.8168501115605094,0.8471978777527105,0.8781809009908494,0.9211918380089967,0.9550041093548254,0.9312674441642708,0.8839757927155873,0.8239327574934423,0.7583989502333397,0.6851279900274339,0.6098780806449833,0.544901006871918,0.4846296974257034,0.4313890408581069,0.3690873956074543,0.28884179348024075,0.2172904515980152,0.14852390315115516,0.07610582776872388,0.029006893826138747,0.055253613315795036,0.116577598453802,0.19458618683496764,0.27052289800136986,0.33530557085223744,0.41674181182597225,0.4911316408428972,0.5571957641399332,0.6384866285188804,0.704363316616083,0.7787367144590562,0.8427312324653529,0.8918829907405734,0.9368559443403801,0.9572364341884585,0.9575528421949708,0.9575277652783836,0.9483990936473434,0.933859307291677,0.9335560230843432,0.9340533005924923,0.9512640968261348,0.9765657480838614,0.9798128640870529,0.951660959669463,0.9220727618513869,0.9021732421637596,0.8881695196324646,0.9006269531670306,0.8860037463646182,0.8736508418163758,0.8795912532327059,0.8856176208057356,0.8949367470876322,0.8882658972570407,0.8712420104573972,0.8692866704241955,0.8613681025104594,0.8439461853632384,0.811079026666973,0.7838374332427067,0.767988517916955,0.7931963823794446,PM
0.7554979780449074,0.7554979780449091,0.7554979780449118,0.7554979780449154,0.7556097608972001,0.7690117405344772,0.8008408383509504,0.8133974455351645,0.8321295143598393,0.8549005541616692,0.8824327647865395,0.910462102054991,0.9440074665962763,0.9669263583208219,0.9991312846522966,1.0,0.9780474826503918,0.9452968474340828,0.9038674525726442,0.8811405458757786,0.84547627086073,0.8004603232423841,0.7631230672891229,0.7352454536742989,0.7057564314106397,0.7046048804804226,0.6887486564720557,0.6956373759021952,0.6866046009344542,0.6986618229354189,0.6830438707873725,0.6937919403801818,0.7047880273125804,0.7048031038285734,0.7060142477563867,0.7259994224460629,0.7301501413182816,0.7262143795784581,0.7107163620178021,0.723287620236321,0.7128459491020882,0.7268950394984275,0.7064622028861596,0.7048037305030546,0.7049017795358505,0.7166941481704203,0.7247860127614496,0.7122243056413895,0.7204134730351983,0.7049660045465078,0.7048031038286098,0.7048031038286116,0.7046964899926147,0.6902205136066515,0.6853733801703346,0.7025282515198237,0.6812653739345871,0.6586579237753467,0.6541113084911023,0.6541083840102937,0.6555853468983432,0.6760363030373115,0.6793607976936897,0.6652219214470101,0.6689047052059554,0.6800084525544179,0.6984134144213483,0.7043960868040529,0.6771815557601313,0.6372256517705637,0.5938796925902841,0.5560959721582281,0.5042058215292227,0.43597116791054846,0.37067478826575195,0.32294574098118867,0.2561530038194135,0.1881418321272319,0.13773877271499257,0.07633015113907327,0.012412858018163497,0.0,0.03282054043963045,0.08854696636851944,0.13948506570914354,0.20754518414615042,0.2741913174849935,0.3216629592317921,0.38731289506341327,0.44683365863048774,0.4976355895317375,0.5447090259580718,0.5897716805210513,0.6358129480989385,0.6759527441033581,0.6903324983295818,0.7127912369721221,0.718349801648916,0.7049319259694959,0.7047854116279844,0.6923900606383198,0.6924314402311174,0.7047854842858987,0.7048031038286853,0.704803103828687,0.7052309892828408,0.7245971464643288,0.758417981580882,0.7810095009866638,0.8086095968677611,0.8326004085322607,0.8573723786888978,0.893227315320348,0.9380720702773084,0.9715761682278288,0.9836086729763425,0.9831142767447325,0.9604873037221644,0.9264879294652895,0.8874311710446294,0.8453255071814976,0.8110316122381755,0.7771560123910177,0.755750011727188,0.7337333742154,0.6999364431441579,0.6799817966619921,0.6805198253713911,0.7002475945232982,0.7048011783941588,0.7049070223939982,0.7170352595218548,0.7301261407656723,0.730150540936938,0.7299006404281121,0.7136219907730501,0.717871406768948,0.7058926318012588,0.7052933199696092,0.7227549463390854,0.7097914842866659,0.7048077357704168,0.7067071783479122,0.7279058362870598,0.7277325259378982,0.7066441846577973,0.7048042027796333,0.7048031038287714,0.7048031038287741,0.7048070727670233,0.710723883071978,0.7296798495028938,0.7248676817096626,0.7121944432025336,0.7297344807974895,0.7241391660801275,0.7054367481161083,0.710870599310085,0.7501194932651849,0.7554949627419942,0.7554979780451943,0.7554979780451978,0.7555022921085097,0.7619393924408397,0.7689460351436699,0.7150569623611958,0.678817165867569,0.6357776374555728,0.6035584563132828,0.54169440268014,0.49298560751893605,0.42563338963913067,0.3572619032677746,0.3009210386328829,0.24570108989141737,0.1830405222064697,0.15271810143683595,0.17467474218676138,0.2206502617547872,0.27398647143430166,0.3411781921155055,0.3898510597052147,0.45366253870331885,0.5158801325569917,0.5648526624235135,0.6136405777842056,0.659974522634803,0.7054540334989365,0.7321120710516782,0.75330766445449,0.7355432686028625,0.7131407679186941,0.7183802331777267,0.7057333190584822,0.7048526277422269,0.713665522988217,0.7299311769322578,0.7302157934244669,0.7398476979019852,0.7416767681854601,0.7355473097064698,0.7657348989382724,0.7824328968695244,0.80346715608336,0.8185799804696261,0.8526041216952134,0.879983769428871,0.9002058961824853,0.952352596782216,0.965510156460839,0.9829888712140953,0.96512711192113,0.9313847527093415,0.8970225697023553,0.8564915063697613,0.8266693730155934,0.7947888969472006,0.7719672399107038,0.7556657220026928,0.751346859554566,0.7313616848648925,0.7301505409370854,0.7302911595084369,0.7447271719758888,0.7477064947178471,0.7304867725020978,0.730150540937097,0.7301505409371005,0.7301505409371032,0.729712723480306,0.7119422473704953,0.7251192323959401,0.7377764583533253,0.7548619372403751,0.7378923353665172,0.730173850560444,0.7297808433739617,0.7125517206315699,0.7244409917798986,0.730132013170488,0.7206340692425659,0.7148823058437692,0.7295145001321979,0.7105299625638803,0.7079821942706115,0.7290377218387123,0.7453251431336625,0.7535670140304838,0.7323554210549243,0.717541250149921,0.7049082384826182,0.6986656241219498,0.6801956591555376,0.6934112553658744,0.7047873733917953,PM
0.8023026854959197,0.8061595110831159,0.8343484449188776,0.8449760479072617,0.8357577938992606,0.8436639277081164,0.8347111407108438,0.812696368977964,0.763499036579296,0.705050763995438,0.6508604997065954,0.5935541430623799,0.5650901769313541,0.594546219320411,0.5697854090527961,0.5194449556363678,0.49895423349403756,0.472629650923611,0.4204740267327207,0.36296650536941244,0.29986795737858785,0.23672067179224232,0.17357338620589702,0.11046468596243142,0.053887427898624995,0.02591641238552178,0.055082481235949166,0.1055722900364624,0.16489763950727832,0.22803224131138644,0.2911712651070326,0.351370575173813,0.4036616962752424,0.4627392479038397,0.49347636835736064,0.5082779595415823,0.5544505474944339,0.617364620731065,0.6796667035054216,0.7242990709802997,0.755767711111849,0.7525936572508147,0.7561738975881562,0.764645171158151,0.7774849224073836,0.8247372955437422,0.8611865239770484,0.9148485494913472,0.9547478207184716,0.9463455199547353,0.9332650223654557,0.9325656440846881,0.9262030294600554,0.9163517014668168,0.9105231183481894,0.9105250258674764,0.9157320414570354,0.9035356118995841,0.8871749995559814,0.8639096619944446,0.831305631512151,0.8023420493406457,0.7690558097938878,0.7327257890741228,0.7226402540371932,0.7437474049323329,0.7676072169524208,0.7990566114127113,0.8317466025292624,0.8632315746117274,0.8775392422219817,0.8885452011564658,0.8890249074255205,0.8800168862676641,0.8629641215021548,0.8688879126046749,0.8746597386556099,0.8745753118442954,0.864981257985121,0.8469325289481313,0.8466207742430267,0.8607711228471024,0.8811311976619489,0.8893494825014061,0.8978656429705265,0.8915785813501627,0.8750194748635161,0.8211437753307789,0.7691095604912497,0.7088501484444851,0.657043298217804,0.5950692240689683,0.5365087710674521,0.48291445546403033,0.42008625833209123,0.35714068553608835,0.3030078583062896,0.24511540259043252,0.18821582123501468,0.17360260286548934,0.21981133223129157,0.2718705941587307,0.33428120026288877,0.39742674455266713,0.4588987149944739,0.5107040423024931,0.5723902178923121,0.6355366336619706,0.698401469371182,0.7522785543963377,0.8081008022438292,0.849932185685061,0.9073762132630807,0.9599767161432835,1.0,0.9875989585451705,0.9648338186558401,0.9486121888669459,0.944291921865537,0.9398794731510507,0.933912883264159,0.934457619402612,0.9385467603677933,0.9275176108014205,0.9106143952504278,0.8859741507095564,0.8551306229621662,0.8184129616300377,0.7851223271218775,0.7481075805389472,0.7206943848404355,0.7189208368227402,0.7444268858764431,0.7759712354831434,0.8074630626630785,0.8324110431814122,0.8384316595429415,0.8553650923435767,0.8601915714282429,0.8602149362664155,0.8602031870765714,0.8564649761518299,0.8490552158396771,0.8493015127823385,0.8386818298755143,0.8562809950663453,0.8649917165906831,0.8331460450264725,0.8206007125629728,0.8307545593882564,0.8379638988497318,0.857993354934965,0.8644633070728189,0.8633201659455163,0.8511512018289107,0.8363811536891617,0.7910072312040852,0.7373391920616426,0.6794238771817218,0.6213812562792138,0.5673521500459406,0.5044723093811623,0.44232372910774376,0.3903832364942632,0.3295071311035427,0.26636502936588435,0.20487743976428563,0.15313566579380877,0.09625401208064277,0.08754836273254263,0.13922635918411874,0.19496651948141275,0.25117213805203886,0.31423510059202897,0.3773342236617869,0.43486620187081915,0.48937523670836613,0.5523434622388201,0.6151314751247181,0.6684136418964521,0.7273227496961452,0.7900289510267084,0.836372885355043,0.876280707884022,0.925208751226752,0.9570648398099215,0.9615630611215935,0.9588885386337203,0.947930409672034,0.9471779280719481,0.9537245157788639,0.9514303233810955,0.9448874985003681,0.9323353342644212,0.9158197654538491,0.8923718728631957,0.8559013561708086,0.8235888944311314,0.7886267539493472,0.7614553333934766,0.7620989445167616,0.784520604857935,0.8112939779058701,0.8374558368495277,0.8599955060425004,0.8715832296556765,0.862790351498977,0.8729360302814482,0.8745315274021226,0.866171697320151,0.8602498597218791,0.8557947525786505,0.8503175047779816,0.8664060822740645,0.8443749617192302,0.819868342906724,0.8218903211668951,0.8402698715754044,0.853404103152418,0.8453014468833353,0.8375034670640926,0.8358668259413569,0.8355131208775566,0.8135230096940003,0.7611488062533933,0.7057992217045679,0.6484180092571679,0.5938669747554819,0.5309352118838069,0.46904435312732917,0.4171791424561315,0.3559719163797326,0.29282635359018183,0.22970964255476511,0.17182287319169975,0.11761583686692112,0.054902394316626024,0.004719551788001652,0.0,0.05092076880263363,0.11400368964108454,0.17715097522742496,0.2402837231742576,0.29917814242703544,0.3524941771188528,0.4152594001047154,0.4784058573595238,0.540451810073562,0.5922918849445402,0.6533706210409806,0.7165020406676748,0.7757351821056053,0.8285108137585939,0.881698608819617,0.9252767681691285,PM
0.2188149951999323,0.2188143461579397,0.21499660951192112,0.17874139278565782,0.17491452696033338,0.1749137177651212,0.1749877677171412,0.19448442238330443,0.22457901984309991,0.2781633442753675,0.34268323307223625,0.4070964453887189,0.4860306211389833,0.582244529935732,0.6681912621559238,0.7521615855678467,0.817412089094514,0.8815527453240835,0.9195358959077051,0.8882401971307283,0.821486008907983,0.7386319667036636,0.6643710831245722,0.5785911826683758,0.5006760915215098,0.43398351313215144,0.3372416427436864,0.28398465476645285,0.22081986970317757,0.17030046533681897,0.13181775135785845,0.09768742570550248,0.08284876710094569,0.04609914660809444,0.06785275445843464,0.0834077248113223,0.055866586118849426,0.08525606425707188,0.10766551764270815,0.157775662988338,0.2681366600580324,0.3620270734369928,0.48807664111634264,0.617025405814041,0.7454886711011364,0.8457720191882405,0.9475657114023726,1.0,0.9631007539861773,0.9047599989558393,0.8184762826103142,0.7203338906230146,0.6601223801566212,0.5722451233220696,0.47411470172058845,0.36285400293010994,0.2362937039752797,0.14397682024672953,0.08853104856359106,0.1023220792489532,0.13102143860477256,0.16009652986799683,0.174882829455,0.17506418379893685,0.20150817783685948,0.21872067016788943,0.21505682153591366,0.17885553802634035,0.1619963213639215,0.1330046218583636,0.16536608100162642,0.1748970808323227,0.17491371776485032,0.17491371776484232,0.17491371776483522,0.174913717764829,0.174913717764821,0.17490850761234,0.1696030394286705,0.1438437459605435,0.1741361854059278,0.17658671265624815,0.22157379325973459,0.2860681768864932,0.35176677150095603,0.4500509155037067,0.5244173577454196,0.6268167675414293,0.7227845697313544,0.803427216083751,0.8538854062572891,0.9173592202880929,0.9142995284021183,0.8590320848566133,0.7811819691066004,0.6953022690737285,0.6210908607185042,0.5377991930260437,0.4676545496831732,0.3950695428382449,0.3238071317383593,0.25545631238351696,0.18242962506358484,0.12953633524253938,0.09171980019676695,0.06746195145308853,0.06491018301296236,0.043302320697426566,0.04320988546035043,0.04320988546034332,0.04344936462385185,0.07063575337697614,0.09907751342799376,0.1794441134544167,0.28988024491845277,0.4172571961022431,0.5119138010325379,0.6327050497921167,0.7605306911827023,0.8497118271272344,0.8669804642379981,0.8098333476738393,0.7437004912443381,0.6660933428150795,0.6019408078779911,0.5102867986067663,0.40045227214269286,0.29771421720320745,0.16943629536563787,0.07545286629265746,0.04366449260148908,0.05175911525922938,0.08532493302536626,0.08673719739001662,0.06815340471537024,0.08472833201288399,0.10511877396466485,0.13063453955091475,0.12924126346617104,0.09569536717380345,0.08711350057004008,0.08711116289499543,0.08733694773089162,0.11442116000066882,0.1309417466102314,0.1270886835993199,0.09069401655660414,0.08708678269391879,0.07451517206771285,0.06506244799409622,0.0868346312466235,0.08711116289493326,0.08798742829244954,0.11899589073452521,0.14750843603535202,0.20885311175125754,0.27320309514066743,0.3479666013647593,0.42445408833113163,0.5068947791154788,0.6028976533916941,0.7212886636461713,0.7841158820319842,0.8258699364687674,0.832993108388032,0.7944489673065256,0.720536492171953,0.664014866532237,0.5523410179022816,0.48075698441718906,0.4098549963492797,0.3300615948967147,0.2653446881448369,0.20105681620607108,0.1406846390873291,0.0980974779738899,0.08298848691296801,0.04630309640392749,0.043183550444472196,0.029864374005856398,0.0,0.0004998429578702002,0.03339879902013454,0.06308084111797818,0.1427778802035471,0.23803276555842245,0.3548457185861258,0.4798045437185543,0.5725546469625034,0.685160683531425,0.7808707321418913,0.832173297092436,0.7974691241908598,0.7295780117678046,0.6317672073155611,0.5715128147283401,0.48309657753598234,0.36186884068787695,0.26798065052200304,0.14527096535279949,0.0514671718469879,0.048263510441757695,0.08381963241890045,0.0871106121924452,0.08711116289472987,0.0874191136963045,0.11500854021870044,0.13280309698016968,0.16946550980830377,0.16010983070039586,0.1175863701127815,0.11059337183697693,0.13079613978410531,0.1310124403294548,0.1310124403294486,0.13101381146576152,0.1365888393419672,0.17184798237928867,0.17491320920749143,0.17490555462361623,0.16849932762097808,0.1327186409762824,0.1424506374388237,0.17606943150967336,0.21346271810732187,0.24532394134287916,0.3084804580393472,0.37317493313601346,0.45266246258143816,0.524987071862494,0.6092532967510298,0.6954422192403413,0.7935894963504797,0.865352499485522,0.9081405907024402,0.913926575061212,0.8585241508445023,0.793857626391282,0.7254264177070802,0.6390361004758258,0.5372565526845428,0.4669401960981636,0.3811789171148199,0.2979949880158461,0.23556446869309156,0.18081629692699241,0.13168328759385517,0.10668035027171463,0.08692921003312559,0.069807493492263,0.08367608180509922,0.07076931328588998,0.08339699788269872,0.08711051385250457,0.08711116289448384,PM
0.8552588094637019,0.8698703423385701,0.8789510265511669,0.8940461479024226,0.8941747379295939,0.8965941303918243,0.9168077980337426,0.9041590486353615,0.8942315011151885,0.8941741762050168,0.8941741762050195,0.8941741762050217,0.8941014427237501,0.8805674362457188,0.8700319014397535,0.8690091722016811,0.8517123058053344,0.8668877226029279,0.8518345661195097,0.8753806578822503,0.9014320748240556,0.9200535139446107,0.9401788796778852,0.941775528909425,0.9181573829910423,0.8831212009298954,0.884628111032657,0.8746283205502894,0.8647549929910889,0.823131341619586,0.7976270436509525,0.7613190610062439,0.6910012419856271,0.63693054494551,0.5697130672695776,0.5013493357303451,0.4478668971321009,0.3767880649034008,0.30440275466464506,0.23206371283480243,0.1710761777738603,0.14490300378056098,0.1642688827888974,0.21902366716851773,0.2807947612239725,0.35313449792125384,0.4241218422499622,0.4675522817343567,0.5220521841476393,0.5888973995807505,0.6430997326586629,0.714777416780846,0.7857623763565491,0.8083417361687966,0.7750789652113235,0.7780626208974226,0.8098026680875048,0.8458984124528928,0.8691427114801109,0.8699235378892776,0.8614133143332086,0.857665350324019,0.8698870015120557,0.8675728844001771,0.8520260855457731,0.8803127833274109,0.8981188262421465,0.921408346163493,0.9417807903972237,0.9534485562012005,0.9667739381946472,0.9665933777582865,0.9508408612368928,0.9408257534297322,0.9135037425248855,0.894499117687896,0.8941739389549634,0.8926046492724349,0.8723940816906981,0.8797257290838885,0.8940936787536375,0.8941741762051096,0.8941741762051119,0.8941741762051136,0.8941741762051163,0.8941741762051185,0.8941741762051207,0.894171873483212,0.888296531956501,0.8646344638869512,0.8549958565281375,0.8641065627045315,0.8548937282048814,0.8697588914931793,0.8644452978458066,0.854737784665109,0.8719887087344675,0.8923337944671919,0.9023355716245716,0.9261979324083627,0.9423432548056501,0.9375003629200922,0.9141521752789799,0.8950135632881349,0.8892299358108224,0.8698982594071554,0.8363349418675057,0.8008606342762117,0.7718409614226394,0.7120915289490961,0.63982723553117,0.567441663619471,0.49585007297187733,0.4421076722849828,0.37449994357324634,0.30212289413209703,0.229737322220398,0.1580840692615526,0.10401458289492682,0.04162662729101907,0.023960582663347996,0.051289538638485066,0.11321788714783709,0.18399887233014,0.23557211598011163,0.2746158562560228,0.33024122056804917,0.4024367575687924,0.4748223294804923,0.5472076187854134,0.618208824076028,0.671594349363525,0.7401314903030496,0.8050566087573974,0.7933142259527646,0.7557363826893573,0.7628091209818417,0.7993501490723438,0.8457555602017601,0.8703438585884409,0.8898116703498085,0.8941725991895639,0.8941741762051771,0.8941818923016425,0.8987264306070828,0.9176878232478698,0.9300672999504265,0.94267131871164,0.9540804026585397,0.9676726405447624,0.9862245035630526,1.0,0.9928090477680467,0.9747346722348826,0.9591356830155071,0.9353200712411489,0.9184548104314936,0.9023941738154102,0.8941945254957342,0.8941741762052082,0.893972219419604,0.8790650918988243,0.8885529794662594,0.8941719851304284,0.8941741762052176,0.8941741762052207,0.8940461479026403,0.878946227809339,0.8637661670026957,0.8552445074321415,0.855244507432142,0.8637431297985421,0.8699458593037552,0.8699506580458078,0.8699506580458105,0.8699506580458123,0.8688976950744483,0.8492071141525259,0.8629801422811072,0.872256016355629,0.894720629156859,0.9165950982029742,0.9183953218633163,0.9130324325500858,0.881339510124318,0.8569403176939194,0.8612940465811167,0.8496357413858289,0.8448258760941849,0.820575508898401,0.7794760577747186,0.7113514876035865,0.6390353163500611,0.5791406284934473,0.5183035546334427,0.44603909025585997,0.3744598320705177,0.3207831360109106,0.2530976390009978,0.18077655581309182,0.12015168226041784,0.060769827367798346,0.011887546215516576,0.0,0.04168624362373485,0.09934246083322851,0.1619492669895024,0.23429704328581558,0.3066826151975164,0.37906818710921675,0.4514534485023529,0.5223511512088543,0.575607458748689,0.6443881707590515,0.7167722459015096,0.7870079619761041,0.7993906883742392,0.7748345872589515,0.7862644042227687,0.8114539438999575,0.8470197466541038,0.8814536648999498,0.8765565903095105,0.8699746915623998,0.8748930978954492,0.8929561875445864,0.8769303159026407,0.8746750352555588,0.8933755785753963,0.8987266085447967,0.918563125582124,0.9380267054235691,0.954183790885101,0.9667807316687815,0.966822463008592,0.9583873454312908,0.9261249911233387,0.9020222364540076,0.8920999710583501,0.8718357681433737,0.8537915552627235,0.8458242085744185,0.8562386353480131,0.8696503463141281,0.8547372648083762,0.8644452978459931,0.8699485821072033,0.8705070633066052,0.8884731865229276,0.8927110941770002,0.8658850776357121,0.8556773853755457,0.8792111918374155,0.8788423017895792,0.8552821189485345,PM
0.8787300303261603,0.8484705739392222,0.834886009617513,0.8568379493203535,0.8578538254954813,0.8578538254954893,0.8578555204365719,0.8614632060425658,0.9044802409609822,0.9877331892492958,1.0,0.9357716613169265,0.8674358990471855,0.7823705930454814,0.7211794269224869,0.6541603974475114,0.5650046948823926,0.49636420493651023,0.4109224815780843,0.3624021554015249,0.38385042358603716,0.4475063661180645,0.4730642741545985,0.38652184425980973,0.2938351565404318,0.20114677387997837,0.10848817030968938,0.027301433377406426,0.0030423144802202984,0.0,0.002533249389960801,0.02483026427777002,0.10455093966073914,0.19720258738379837,0.2898909700442509,0.3825793527047052,0.4746907863091545,0.5305234314393088,0.5298995141135796,0.5071949027238825,0.5344324730678673,0.544264697881939,0.5442909990484806,0.5458764380856058,0.5964579988384289,0.6832571393210713,0.6999192446064813,0.6869140208410736,0.696302145417671,0.6795175948854748,0.656444565346427,0.6437711246870075,0.6218058947632814,0.6212026357242113,0.6212026357242202,0.6214760229328942,0.640361617613256,0.6853924568177376,0.7198351227786937,0.7637149687164531,0.8099973170676078,0.8522985556250768,0.88781687258159,0.9113211723061037,0.8740997688290353,0.8340047401491226,0.8113850172061623,0.7806255249954939,0.7599212503090005,0.7294111115248807,0.7095229127477909,0.6876149595162557,0.6803841265860635,0.6803669977281599,0.6837238893619295,0.7091036123417771,0.7324192994555849,0.7187930951779604,0.7171335795297207,0.7193235395371564,0.6806254403515481,0.6559248373617423,0.6725344875323724,0.6803279616521785,0.6697920124256793,0.6511668574109546,0.6508138135359882,0.662224811464398,0.7198288645348905,0.7784893365660519,0.7159865862802972,0.6483122188468595,0.5795451367035405,0.5167640512609557,0.43298008615461026,0.3631084323438376,0.2762341374720565,0.2016949464572395,0.15160229941692016,0.15517340984603134,0.224654714673167,0.30054768709207735,0.3806722546262904,0.47325195133270803,0.5494213271684032,0.5358095944703027,0.5324600041211829,0.5324584395601981,0.5324584395602052,0.5324584395602141,0.5324972182403211,0.5428744833586308,0.561862454084598,0.5666508608498502,0.5916826394709078,0.6178612017846783,0.6653518275132253,0.7153566829128453,0.7617337157030697,0.8080285713633257,0.8502394318511408,0.847959276361756,0.8279872064123266,0.801877118488667,0.7655168491455999,0.7409192103569966,0.7393720204179033,0.7196724917875823,0.6881833251405354,0.7086340346662086,0.7166693876102457,0.7407945788835208,0.7653334319414613,0.7696011057728365,0.7901729968656968,0.798772634968409,0.8117233616589994,0.8036254482028129,0.7713414113009733,0.7774154437777927,0.7967638427375494,0.7737203911397925,0.769111585033019,0.7691182801200922,0.7749908905888079,0.8216815680704341,0.8916999787027029,0.9202811146060039,0.8467069223824675,0.7778412218710056,0.7105325621903953,0.6212431973873374,0.5397728036571658,0.46506118550573294,0.3738393296744835,0.3040849736316593,0.24237967603377886,0.24085904763361476,0.3057053192008352,0.38414402966970584,0.46155177472757014,0.546373142991512,0.6149330700442359,0.6488131583458827,0.6252856446245358,0.6212039395255653,0.6182377791236586,0.5941924940107484,0.5916222800439996,0.5916212370033449,0.5916212370033529,0.591666710770526,0.6036980013585209,0.6483426730605029,0.6946479922871589,0.7410137792304878,0.7873259584292587,0.827423357334137,0.8775453687664267,0.9131927486615572,0.8822563919470632,0.8484180139454809,0.8173684433232475,0.7863204372620078,0.7553784705787532,0.7335171370896374,0.7109436905218649,0.709946831889126,0.709946831889134,0.7099473534094729,0.7117308897092327,0.7349694284806594,0.7483584080826828,0.768471551850272,0.7500416316940628,0.7112058968274848,0.6886327559372818,0.7229181492460475,0.7176248125584372,0.7099688728516371,0.7099468318892077,0.7099923056563808,0.7220738093973651,0.7759045641167894,0.8411500361983029,0.8520930063937184,0.7878646677106458,0.7196510729747612,0.6490839146781582,0.5772665340161254,0.5070740237558233,0.4474796851364031,0.4009337031926341,0.32215059240580857,0.2736579592380872,0.2951062274225986,0.35950236972745575,0.44902726410166505,0.519624508532682,0.5839478379601477,0.5908098012146841,0.5696354482507493,0.5802592122957204,0.5755246512274779,0.5621287464820668,0.5620398382821898,0.5622022251733965,0.576235513982974,0.5716995892289471,0.5898358673918187,0.6182877584854278,0.644786960532092,0.6907367424537529,0.746189127821796,0.7937472736672522,0.8298632324925252,0.8742375377588738,0.9044680669326519,0.891091210152994,0.8545076054149154,0.8203034833243272,0.7892957781655605,0.7694641964736082,0.7564808190365788,0.7398008355389853,0.7395282306108237,0.7395282306108317,0.7401314896499169,0.7620883295455112,0.7704943508350466,0.7932890199631295,0.793694168837388,0.7706916721522301,0.7624941303202109,0.7403301147679535,PM
0.9024529874778842,0.9024529874778873,0.9024209076124459,0.8924730364770275,0.8810076423734867,0.8808671320051995,0.8814916170975877,0.8976700321375888,0.9044495637423662,0.9298722435170363,0.9594768003838006,0.9730014987325872,1.0,0.9943354632825123,0.9719793919071256,0.9412023966131149,0.9099892062522561,0.8783875896684123,0.8378144590878236,0.8065960237317147,0.7997429944463148,0.8165322701466868,0.8317102631585622,0.8178980133737621,0.8164124639339017,0.8393556684449837,0.8735800296950482,0.8701811257188905,0.8595403270853708,0.8717798912564723,0.896435431770799,0.8826063641528559,0.8808642183598696,0.8760137949195856,0.8555169553970687,0.8277836242515186,0.8285001142508737,0.8214807269632818,0.8161177360369254,0.816712661315957,0.8327551110087943,0.8244827422755212,0.8040231182580548,0.8009262462475877,0.8213325339703137,0.8343838153635987,0.8175315976755844,0.8161094492105181,0.8161092856205383,0.8161092856205414,0.8161092856205445,0.8161092856205472,0.8161092856205499,0.8160861803172419,0.8074696219874387,0.7777333895956002,0.7531745427767054,0.7534721206762449,0.7790174575922135,0.8009409551626074,0.8157899182876096,0.8161157845666054,0.8205473424879743,0.82931589826411,0.8001389101113556,0.7547006380676726,0.7055683471762384,0.6521226995347646,0.5900501912778,0.531130327964509,0.48609428206679217,0.42523484723120664,0.3647284576125358,0.32062283129785474,0.26041894946318056,0.19832394951856847,0.14718362128028994,0.0955206185763422,0.042891367596040286,0.023034330781642964,0.05222174252523715,0.11004714390390813,0.16434785313939182,0.21292363839315875,0.2747122046980017,0.32391187650019937,0.377594353148877,0.435488167993336,0.48088849450034443,0.5423912856636726,0.6045246799224997,0.6648337753492632,0.7088999623592858,0.7546061892476201,0.7900909438463763,0.8268756186362052,0.8383919995003568,0.8547528748797575,0.8592803132154305,0.8592811365493249,0.859281136549328,0.8592811365493302,0.8592811365493334,0.8592811365493365,0.8590071880493082,0.8452523098891445,0.8543557641943877,0.8612007697584487,0.8792326055502921,0.8870484871777435,0.9075245454821848,0.9283975463131902,0.9558136272894986,0.9704318371873226,0.9868707883249979,0.9636868009670838,0.9147311539404552,0.8807367253176892,0.8466900699682043,0.8079057117504793,0.7790402554070024,0.7736067549457313,0.7898619806145368,0.8024819152024438,0.816174359778707,0.8303848334444055,0.8434509164699375,0.8588498903529693,0.8592811365493866,0.8592811365493898,0.85928116512587,0.8595526902270154,0.8740620325586348,0.8626924704939012,0.8592855631354528,0.8592811365494053,0.8592811365494075,0.8592675337236515,0.8527499343779716,0.8382533894988553,0.8534388829256789,0.854981867771925,0.8385328360695801,0.8430686878889246,0.8560961058211771,0.8391810613059509,0.8375030525983487,0.8241105556870272,0.8320649329780139,0.8258104208628598,0.8300965078453286,0.8277788459955531,0.8277486929296325,0.8229450268795153,0.8341223891192762,0.8545301940080625,0.8584820275454739,0.8399205780201671,0.8191269908887246,0.7886109012469222,0.7638188313965064,0.7524238944788224,0.7724220261602319,0.8029192161062007,0.8241223812361631,0.8375572689361337,0.8376952110851112,0.8371575951339616,0.8175318891600543,0.7711244529201338,0.7266430978506233,0.666065761643666,0.6039323359092967,0.5417987308471734,0.4796651257850506,0.41753152072292776,0.35586242314094996,0.3093353209496068,0.25270801259581077,0.19076632438376473,0.14233394694436985,0.08787512776265949,0.03016380131958174,0.0,0.010098064450303923,0.0533791012990803,0.10437441087142707,0.1557434216040492,0.21780854311106568,0.2721552002525698,0.32069001184508705,0.38264658332701185,0.4391565742578063,0.4857861106022723,0.547470251988095,0.6089370181504354,0.6548318985081414,0.7102570469423366,0.7540052938400841,0.8006581174195682,0.8482027803267913,0.8643258261478177,0.8803451032254501,0.8808670620138592,0.8808670620138623,0.8808670620138654,0.8808670620138686,0.8808670620138708,0.8810324860269412,0.8929044125448082,0.8864252668094568,0.8816413292030916,0.896468074754869,0.8831602247777868,0.8968743817212492,0.9172121838358871,0.9301582995696469,0.9506432335393922,0.9710168979349496,0.973602005021641,0.9828120760157697,0.9632449167690091,0.9278292930445526,0.8902203534239024,0.8481664544269485,0.8138203846480101,0.7866520000470887,0.7650661480429579,0.7549218763671708,0.7726246464732678,0.7891747284340269,0.7963056947577432,0.8157112379039657,0.8353534983580797,0.8498591197800573,0.8593512224762638,0.8691713645322596,0.8665193737629373,0.8595496242404388,0.8700651881303707,0.8599436190429679,0.8592813477670238,0.8604629765327423,0.8748821140876615,0.8608299136481596,0.8592735192928926,0.8538343932490613,0.8399891710914549,0.8575514656815342,0.8592808565829411,0.8592811365495989,0.8592811365496016,0.8592811365496051,0.8592811365496078,0.8592811365496114,PM
0.8541157621462778,0.8541157621462827,0.8541157621462867,0.8541157621462911,0.854115762146296,0.8541157621463,0.8540935435823784,0.8477310014652271,0.8374765570997296,0.8371909072490524,0.8281674739914626,0.8327382474754419,0.8268007473256107,0.8340953359881698,0.8366275414279611,0.8253487373460544,0.8359129781058416,0.8373371056762702,0.8453738362997014,0.8581167619779131,0.8697834874399413,0.8571324876949156,0.8541181824025172,0.8541157621463658,0.8541157621463702,0.8541157621463746,0.8543796838402682,0.864563167236938,0.8398866979374775,0.7978383843971968,0.7499620962682432,0.6964817109998998,0.6430673466001045,0.5992436426884957,0.5527858650952009,0.4993152988179399,0.445812855311277,0.3930088422976623,0.35263460459408424,0.30214646637982456,0.24864644312931716,0.19556589957196202,0.15415244837838982,0.1049741272317346,0.055596100848653185,0.026222414583640052,0.020846752414385827,0.0559808454576205,0.0991634288580463,0.14564009075197637,0.19910714358612536,0.2526095870927878,0.30611164985787953,0.35848118311804145,0.3986569821858277,0.4497771838040845,0.5032784427814132,0.5567745384354881,0.6067403066326862,0.6475302297322645,0.7001809332694879,0.7424441664689918,0.7838288009537315,0.8187662477674404,0.8376024004995957,0.8515251965441095,0.8505030380994092,0.8336109855449827,0.827833557311775,0.8312622365862659,0.829758894842354,0.8372238375206362,0.8373003499347127,0.8437100603380179,0.8540991379375291,0.862689520399877,0.8805455296569122,0.8982431323091689,0.9105649049705606,0.9281040770865228,0.9322182694000252,0.9092714088802265,0.8912416339197153,0.8706423031766715,0.8536706358972586,0.8378523387128314,0.822069920606368,0.8204298422448635,0.8204290384571054,0.8204290384571102,0.8204290384571147,0.8210549498070878,0.8317020905795203,0.8260113596644274,0.841972881705856,0.8538610073574016,0.8563430412748341,0.8700947751719164,0.8704819179331582,0.858185886709836,0.8557658621293465,0.8686203567042559,0.8560595068077652,0.8541168197620177,0.854115762146546,0.8541157621465505,0.8541157621465545,0.8541157621465594,0.854200389153108,0.8621232285483664,0.8583864968391732,0.8541520234303479,0.860027124569354,0.8708447429718458,0.8716871881427699,0.8846033632841803,0.8871568231745313,0.8742400559620687,0.8729072527068902,0.886827524799195,0.8878024858359885,0.8878024858359925,0.8878245440743169,0.8933560342908686,0.893245179091827,0.8546825561147795,0.8015050260317396,0.7485904008006283,0.7078004777010518,0.6578347095038537,0.6043386138497788,0.5508373548724506,0.4997171532541955,0.4595413541864115,0.40717182092624826,0.3536750039339185,0.30519925212723953,0.2632613033055069,0.21971263390418727,0.20250573292884289,0.2200257288316898,0.26543537204095147,0.3050501135460002,0.35748851022229733,0.4016913618739282,0.44783640402006863,0.5012968707999219,0.5547993143065848,0.6083017578132472,0.661804201319911,0.7153058410388122,0.7671692637994427,0.8068000990159878,0.8518895593908753,0.8914734025937805,0.9045743115856828,0.9045709406824405,0.8955554405829709,0.8878472695787267,0.8878871128425851,0.8962318521871508,0.9045841127910483,0.904909769374632,0.9161190662506087,0.921483667620346,0.9222172736769387,0.9351339987783969,0.939686031939464,0.958611405508154,0.9783362313409061,1.0,0.9840851022565587,0.9594613833777372,0.9388789168343443,0.913135178230017,0.903660406582556,0.8893889421651182,0.8760400362733751,0.863596007187855,0.8593781780266347,0.8666883236825207,0.8544793343048775,0.8548438262982319,0.8677600014396414,0.8709565857142927,0.8709591239914394,0.8709591239914443,0.8709591239914487,0.8709591239914536,0.8709039751560606,0.8628833342999611,0.8542203107852466,0.8541157621467796,0.8541157621467841,0.8541157621467881,0.854115762146793,0.854115762146797,0.8541157621468018,0.8541157621468058,0.8541157621468107,0.8541157621468147,0.8541157621468187,0.8533067194362793,0.8396549909674511,0.8271303118633684,0.8336914155180817,0.8372140363157028,0.8294406106726124,0.8316685998637117,0.8362330867012826,0.822904581704492,0.8373695117551057,0.8426819847057749,0.7956290985413137,0.7514864794799618,0.7053649861951548,0.6526532101812048,0.6187633035210829,0.5813866031624997,0.541089725564937,0.48841652600505414,0.4349142094122489,0.3814117659055869,0.3284418345657265,0.28744406876815143,0.2377394855794832,0.18424535372362616,0.13099889184002667,0.08896191255245545,0.04062786601022883,0.0,0.008781350820102674,0.04918873826609094,0.0899684352804071,0.13964933467728935,0.18856680925236757,0.23018810314393923,0.2833239528100422,0.33682626940284877,0.38949946896273113,0.42998312000362127,0.4804925648321965,0.533992808498668,0.5871317221518075,0.6281689408300482,0.6767299916291392,0.7170890026788213,0.7626742257067729,0.7984671763500595,0.8193931871022464,0.8204290384575024,0.8204290384575068,0.8204290384575104,0.8204290384575152,0.8204290384575197,PM
0.5579292418187243,0.5763197577091757,0.6012452714198893,0.6259128859197838,0.641889369706647,0.6591498789858572,0.6666199897012794,0.6845046224014921,0.6850016079739647,0.6850016079739683,0.6844925375536426,0.6665374094157115,0.6595338405990687,0.6594993887477165,0.6512810368585744,0.6343340957249155,0.6340887862932161,0.6440193576514468,0.6583446171145098,0.6371193354727365,0.634041032747358,0.6340381139807456,0.6340381139807483,0.6340381139807536,0.6340381139807572,0.6340381139807616,0.6342349551256157,0.6483091061543305,0.6489853762216664,0.6238623999142363,0.5902253846961174,0.5653135409682544,0.5584366149108289,0.5783300038010712,0.602821039253175,0.6085545925432414,0.6073836672214292,0.5647119579370057,0.5113053864452115,0.45383245121753646,0.3899216747196621,0.31980641761046247,0.2643107401629936,0.19035684429577682,0.11929607756443561,0.06491336263524072,0.025782203461767406,0.05845414229736612,0.11336641619614918,0.18765786365154735,0.26270410676712164,0.33767425690371144,0.4020627813352955,0.462430572217277,0.537407332232791,0.6124535753483653,0.6874816620158142,0.754041693976252,0.8099389209855219,0.818475142942725,0.7620908777123359,0.7118604086490721,0.6624065288546368,0.6348808888919542,0.6143957150072157,0.5898566281722286,0.5826555252496743,0.5661369634940301,0.5780471414342512,0.5830731726004701,0.5830743903540436,0.5815873492548369,0.5601346625974961,0.5575225465400488,0.5425815632150788,0.5321147879363859,0.5181518944346029,0.5017149066304447,0.4692303762790009,0.44342685504993007,0.4296701043611133,0.41061886897503497,0.4047134854451735,0.40597841566643034,0.42577862914528364,0.43491573354083135,0.4548224671266352,0.45574960418339927,0.4664064121176854,0.46464570724170207,0.4654852549857753,0.4653261968884377,0.44058728864684005,0.43024598280479154,0.4248770756837774,0.40474017971050325,0.38389854990787153,0.37848936647246756,0.3591874200301559,0.35374751444029506,0.35013855008576966,0.32988401756544006,0.3252259865634408,0.3046491500180766,0.30277584663494794,0.3036777234258623,0.3381895651756781,0.401751263839059,0.4619310521733637,0.5343483204596517,0.5878999683200337,0.6524442619677093,0.6851617856790253,0.710266024729941,0.7431716389767344,0.8013951122345042,0.8417484171188083,0.877708321211808,0.8887797936090673,0.8778333016964033,0.8418973173427831,0.8044161768684277,0.7694898100453247,0.7732660899232777,0.7980514971022123,0.8106741263591588,0.7893855346193672,0.7805709209704985,0.7404946539800279,0.6896029381416668,0.6321593729134674,0.5771330780367872,0.5393338559758081,0.46991213297952017,0.4143083630898916,0.3445786620742206,0.28063607994130946,0.2237563949328143,0.2076833936260467,0.2527741366701419,0.3152198620643225,0.3902127701700908,0.4652550889867677,0.5368661870050286,0.5909024996811687,0.6649159956357589,0.7399622387513349,0.8150084818669101,0.8900375740666413,0.9569369973439605,0.9999999999999996,0.9742956495613382,0.9244368474352149,0.8744305137669959,0.8276387783007153,0.7899812827941513,0.7626375911313032,0.7430930444952932,0.7359793909838381,0.735965101967571,0.7359651019675755,0.7359651019675799,0.7359649627957467,0.734741965759778,0.7132893088443271,0.7104838788993102,0.7049324761623352,0.6848841503582368,0.6588841220838124,0.6303769733647964,0.6096615388928686,0.5966681099975788,0.5832473114994925,0.5832485825328209,0.596705550515225,0.608516335004714,0.6133232751026463,0.6375737036854399,0.6586241641478892,0.6601891157925892,0.6776180517465566,0.6620247786331679,0.659448091932981,0.6433337714817804,0.6144082701606322,0.6319860171139315,0.633182186781339,0.6132066139026686,0.6085636946234305,0.6085563669845038,0.6085563669845082,0.6085563669845118,0.6085563669845162,0.6085563669845198,0.6085631531829949,0.6130134533854181,0.6309560111311128,0.6107905053876403,0.6085592200387144,0.6114724487811389,0.6332379888787751,0.6515986472093789,0.6364590036928255,0.611431679442132,0.5821579598653286,0.5585763675451552,0.5594363349523594,0.586793975851648,0.6079806138722312,0.597494790100837,0.5793481095500463,0.5370912160343395,0.48034208395505074,0.42624581100782644,0.36156593077074684,0.3032852038041649,0.22871942335947715,0.16977192852169676,0.10389776482618229,0.029992903181110808,0.0,0.031553342099760684,0.09852315596740935,0.1658622390041833,0.223540815962882,0.29817869572363476,0.3732249388392108,0.44827118195478377,0.5233174250703612,0.5982138552741074,0.6604938542601348,0.7230273303964823,0.7970281590967612,0.8266051551254576,0.7708245743867717,0.7205658174742005,0.6810494975794712,0.6433918805495105,0.6118534631118089,0.6085597498430393,0.608497082678388,0.5943278962632514,0.5646277392698038,0.5957338868334312,0.608523244634243,0.6085563669846192,0.6085208798640491,0.5983234220890341,0.5832756822406089,0.5740132099399955,0.5698128906057396,0.574888195453473,0.5560803084567287,0.5345122750511497,0.532111557427442,PM
0.6471970568298664,0.646753123306647,0.6257118627344811,0.6173525802908912,0.6190793485256272,0.6427623466838535,0.626931696243652,0.61738255809151,0.6173461189786611,0.6173461189786646,0.6173461189786691,0.6190538233540472,0.6312269395469725,0.617564835153285,0.6268327908240199,0.6464130352340005,0.6257777996809697,0.617354200712593,0.6173461189786957,0.6173461189786993,0.6173461189787028,0.6173461189787082,0.6133397443204647,0.5893242877090863,0.5981358326599473,0.6171012225690111,0.6173461189787242,0.6173461189787295,0.6173461189787339,0.6173326765745486,0.6074119587227029,0.5879545551865455,0.6069740972357449,0.623126024425301,0.6465288729502854,0.6491983757793642,0.6736795440995449,0.6778261557321787,0.700059311849861,0.7085828156634779,0.7322058357733221,0.707124163755422,0.6452978470564892,0.5770355141982657,0.4961278988024951,0.41512064784934477,0.33411339689619624,0.2531061459430468,0.17210169746992232,0.09667004588367334,0.04267505803999505,0.0,0.015693676730545114,0.057504987173090605,0.1277443787561232,0.20545085904113858,0.26166941141321143,0.34090302197609557,0.42115724525976983,0.4800535657410725,0.5539349516437717,0.6193886024583763,0.6857843614810744,0.7292657903311905,0.7145355828956186,0.7157294174907385,0.728995131099718,0.7119599915221544,0.7038759200905176,0.6791749805380194,0.6770490990484044,0.6770479946812813,0.6748642602417974,0.6498922231919755,0.647203113036892,0.6527934488353848,0.6763623607275253,0.6790039749576025,0.7101770409757098,0.7369512547205526,0.7700466326633411,0.8169476820647681,0.852905086324272,0.8923705867782052,0.93675929815128,0.9643394231475257,1.0000000000000009,0.9862024003930729,0.9504203002196343,0.908863306201221,0.8373399228856648,0.799863010889081,0.7692128083210079,0.7384091738559428,0.71759747211786,0.6823249044514066,0.674118477358455,0.6524462044179646,0.6697199348133447,0.648444374335261,0.6471914993697352,0.6409579479039014,0.6184336024267365,0.6327438864033743,0.6459252431608711,0.6213929927428676,0.6186550378947491,0.6419321545604371,0.6409792584171541,0.6183002137001914,0.6173461189789249,0.6173461189789284,0.6173461189789329,0.6169483389892818,0.5963884204550762,0.587514605813193,0.587495181127716,0.5884827870242892,0.6100168597444968,0.5916076949652407,0.594083631683251,0.6165620973830466,0.5991163741028087,0.595346872652307,0.6168502627304848,0.6173461189789773,0.6173461189789808,0.6173461189789844,0.6153446485613774,0.5906517663429129,0.6062843792897885,0.6183013418993024,0.6410262969122105,0.6471917843678172,0.64680793062813,0.6263876662121328,0.6274810471335064,0.6469060068869723,0.6471885543908558,0.6386080152528404,0.5701752871906214,0.492840274833239,0.43615573490226023,0.357057160294886,0.27654048327005576,0.21734375392699512,0.17201990897396602,0.1786144511167329,0.2237228340905748,0.30098470900665664,0.38199195995980517,0.4629992109129555,0.5439295122118883,0.61354551945628,0.676362999605618,0.7570682265262318,0.818335075197619,0.7934614643953166,0.7532117648710948,0.7366187047470065,0.7172085337177387,0.7017393224806288,0.67835907491403,0.6680482838817161,0.6497587141911723,0.67408963814907,0.6767771369091928,0.6578582913699584,0.6675433884252318,0.6646023060224975,0.6605040764449157,0.6709472926930342,0.6557718242196806,0.681668786503062,0.708915817082949,0.7433219115007832,0.7726139902940501,0.8095287154584883,0.8482392761556703,0.8636565446562781,0.8905874915319449,0.9150714758955187,0.8992509879120014,0.8627054006271182,0.8265186739136343,0.7784372810267586,0.7419931235650337,0.7149390884022582,0.7059285278217091,0.6814722977538672,0.664763158678876,0.6602082815788854,0.659390633935204,0.665629487195937,0.677031512299088,0.6760947442633496,0.6534811504376137,0.6731615912438791,0.6808640891330375,0.7048122343994327,0.682728709710549,0.6665285426618315,0.6474038183406998,0.6489973087279841,0.6731216846132151,0.6683418263198257,0.647656861716019,0.6472006786796021,0.6521670478445545,0.676306947786089,0.6770479946816614,0.6770479946816668,0.6770479946816703,0.6763761780864579,0.6529582912018697,0.6472012486755689,0.6472075691968335,0.6557098305793589,0.6644275381519273,0.6510893396087605,0.669724043534405,0.6555959488657201,0.6765117540913419,0.6770107891730532,0.6613177126849621,0.6473177578693621,0.6471970568304828,0.6471970568304872,0.6471970568304917,0.6471970568304952,0.6471970568304988,0.6471970568305032,0.6468376275464438,0.6164884884794715,0.537684291172642,0.4566778358388204,0.37567058488567096,0.2954800882079356,0.2388512734505266,0.17489911777972988,0.14229882692726914,0.1635686873381097,0.2215558299094944,0.27869833744950867,0.3548334596405027,0.43584071059365215,0.5157095553613864,0.5737193745120548,0.6490096849899842,0.7208248415097112,0.7127801179689426,0.6786276592399227,0.6519423247389531,0.6528194695689562,0.6566101385692802,PM
0.2576292631124115,0.23881818345330075,0.23576160436853932,0.2574379246898779,0.258308499181628,0.2814381126522587,0.2875451018082247,0.26043277789814745,0.25781422057241254,0.25781638609641533,0.26352353839248366,0.28876256586381466,0.29974869213752253,0.3415981262527117,0.380587923842727,0.39769706278400374,0.41912629498185616,0.41930727762414133,0.40310261973332917,0.3750651131898701,0.35502276070035865,0.35361884026912893,0.3287655900010842,0.320416052546336,0.2926477170670543,0.2635971279280378,0.2578166567868898,0.25782775509741196,0.268713964463708,0.28743610193074254,0.25205946755370157,0.22599038504168423,0.22548721454725484,0.22609662808591757,0.2670351013501433,0.33087604831614303,0.40704549548281044,0.4691966986112659,0.5473453565153292,0.607517348906387,0.6913645763175023,0.767245521853603,0.83342819451026,0.9032227019471115,0.9349872236999266,0.9235309168473629,0.8706102736469905,0.792466758862437,0.7308657331146664,0.6693592530188788,0.6178124513981658,0.5343629653063786,0.4582723032237972,0.3921480355896563,0.3063169730281734,0.2439818900975217,0.19594159025010338,0.19316020852211846,0.19316020852211668,0.19316020852211402,0.19182378964428093,0.1668549782442943,0.1806454844897507,0.218922472537999,0.2093511379652444,0.16842244274847928,0.1774199595858006,0.2169655781887423,0.22548173306458263,0.22548721454721754,0.22428414608539615,0.19887426239379202,0.16820516021612608,0.13231328467738646,0.12850619647185368,0.1283097350377176,0.10711554159349834,0.06906261692266469,0.06385245511211046,0.06384825940934924,0.05793830130186617,0.03225064602141181,0.0315251783964845,0.031535735326006176,0.04079609259472772,0.08800270863658799,0.12714432972739065,0.12387880735116763,0.09739954659643235,0.0961935370432414,0.10749136405109905,0.11738776474774237,0.12358401365042138,0.1223744463816887,0.09688687430118748,0.09679795544898617,0.11999607055837558,0.10210453978974865,0.09686317624102792,0.12205627418579379,0.12872056326381642,0.14861465704952082,0.17716201991947678,0.2197688090798291,0.25540626128258825,0.26315403424407524,0.2886181171371449,0.2901405498711416,0.2880847154730919,0.2603207110418211,0.23330456468241323,0.26076074995026577,0.30900612158483387,0.37633576433198,0.40752022486203554,0.41763767957667053,0.39179236730401,0.3747206300208674,0.35500497692978517,0.354795238647613,0.3547952386476112,0.3546136376753708,0.3359478930393669,0.3224912413150376,0.3290081491929824,0.37373178091479886,0.4314303997535971,0.48923951199851334,0.5648007664599248,0.6518144435742323,0.7307542013917301,0.7942356748635149,0.8589997853440359,0.8960525229418019,0.9578243910376321,1.0,0.996541577281147,0.9565360731083317,0.8774828880253676,0.807331868190122,0.7636087107543803,0.7106598981230725,0.6431976844097926,0.5711754476788693,0.4841032627480635,0.3971231229958816,0.32897995593097207,0.32247093952747896,0.32234112001051596,0.3071660390402329,0.2899820657931791,0.27004225924096925,0.28177645129024675,0.2901357451147071,0.2899794395742967,0.2729350356260607,0.2813329494055026,0.31832924225643566,0.31527699130803466,0.30069449999049525,0.3218421351393683,0.3026540273707523,0.28927444056397533,0.2650092933066217,0.2576721259109256,0.2413692865443755,0.24688254780321994,0.2558091027345899,0.22965115211998643,0.22548633480295344,0.22335069317317213,0.19680901934580497,0.19241053147457876,0.16955945922572013,0.18711796791168478,0.17713689258015197,0.14913079952042452,0.14545402818982822,0.15957807818536374,0.13492584352524428,0.11886304788055035,0.11023424577960395,0.12828416891523808,0.11808958435520278,0.09503475951522322,0.06926714409921697,0.06385326718346285,0.06385218442145746,0.0667650998895093,0.09377576522276598,0.0943078134343116,0.06823689060109306,0.06385150769519754,0.061795673297148745,0.03539475782691337,0.03147732158114991,0.02089415061330957,0.0,0.022502268112150503,0.032275507901687206,0.06387040124908872,0.12163372136148887,0.1585453747659029,0.17877096970898876,0.2182039551346957,0.24750312447326905,0.2637774699503037,0.2888581478858301,0.28941821963307923,0.2659761529500049,0.25622003364879475,0.23053766857443136,0.21389131626469204,0.19341440623016126,0.1931602085218893,0.19316020852188753,0.19377008163895137,0.21817962959493276,0.22548240979061518,0.22548721454699816,0.2254999370005244,0.23612057554227928,0.28407762316867924,0.3423341440370553,0.4120906618047382,0.4776838208674272,0.5382204688162213,0.6199261647273913,0.6856537849381272,0.761535714491627,0.8235779673614596,0.8794053155211747,0.9016490810624731,0.8660654229505385,0.7922065487474539,0.7163421316551197,0.6517348218345829,0.5964095781652121,0.540043010473747,0.4629151712632087,0.3984647786328184,0.315481855141301,0.25517566025004257,0.17908292202186082,0.1835121875016954,0.1931294316073915,0.18520937657025005,0.16138972430248533,0.16082751799622397,0.1521319157123333,0.12891546711090562,0.11556714266329582,0.07430982575701695,0.06376229100894015,0.05189690647700829,PM
0.5383754635204685,0.5251470074733025,0.5168589399970447,0.5318145592630978,0.505681633398988,0.4919031244338723,0.5033766188575006,0.507201969909588,0.49239881579512,0.5095106049402514,0.514151043406784,0.49499208619158885,0.4933320592071211,0.5122785567300872,0.504636615493868,0.47912598739241874,0.4355618186649788,0.42847560904164705,0.4132908426782662,0.3555367325643597,0.2877074922194067,0.2198634767750658,0.15201946133072441,0.08418458134159179,0.023159490624445667,0.0034668561970985223,0.0,0.0004945177213144802,0.009406877007062331,0.05162307374947561,0.11915324297659824,0.18699722842720545,0.25484105641071286,0.3212119534448985,0.3604864601569129,0.4058416007630288,0.4213193275077396,0.41413507612555334,0.40131714367920157,0.4280194992703721,0.4363791601613012,0.46779669366862286,0.4891064790816406,0.4916062835894581,0.49160675920437136,0.49160675920437313,0.49160675920437447,0.49140654357432734,0.4703416540950851,0.4300731201209338,0.4032227467924594,0.42104854127545144,0.450409286829065,0.5031049068398978,0.5348133245078226,0.5297002994360147,0.5149723170413054,0.4978972352585389,0.47043121500470075,0.47865152158898594,0.5123196066657916,0.495836879598738,0.506013907433402,0.5149905928993479,0.5150171914551374,0.5159415820597313,0.5375754314729644,0.5708764207900869,0.5964563366675817,0.6327032977875482,0.655789315783208,0.6934365471788988,0.7292950597722103,0.7632363936855806,0.7982561503505861,0.8502311507592171,0.8890737259529184,0.9337513304750078,0.9765365188845654,0.9686807556234736,0.935371333454039,0.8971819178596472,0.8451828574264577,0.8101501278725096,0.776206212865834,0.7400809579556169,0.6868370351553419,0.6563040239641995,0.6288907743855172,0.5956632149877139,0.5852801858227283,0.569460128623811,0.539703124250972,0.5436945385091532,0.5522935889533662,0.5387233172900459,0.5469441953356329,0.539324180526759,0.5175112747467598,0.5016684474096147,0.49346290706180485,0.5118233902909095,0.4967665024929633,0.47889741066558145,0.44752820730903986,0.4682991093151281,0.5076389053501256,0.4937050263750362,0.47751532289978726,0.4684926546910386,0.48285936293313103,0.468922491564832,0.44734047667417487,0.4645645981968469,0.4681957056549315,0.46819650370247645,0.4687190668315897,0.48502729017212864,0.4657257632929843,0.4456686620249166,0.45996440675284767,0.46818365962687825,0.47377695593059643,0.4959268284328706,0.5056314191238012,0.47592263663943246,0.477737198489701,0.47597225725253134,0.44770605489820126,0.43219479287589957,0.4364737941698533,0.44493590971016195,0.45795198853962127,0.4681407490357925,0.45996440675286365,0.4456686620249335,0.46572567331180403,0.48406833392650706,0.4339831668865761,0.40198128496884555,0.41441571517881437,0.44324311370714,0.4713018035843959,0.5104826678363845,0.5069606814690033,0.49164680681924144,0.47653779668656426,0.4627522634315997,0.44560429362536214,0.46748673710044963,0.47968240724440214,0.4683386569319876,0.47338774832359753,0.4909925242584654,0.4955558161386642,0.5242796660660529,0.5384012976495232,0.5470783029751454,0.5859001891730449,0.6255059097696218,0.6593907507809562,0.6992058805119914,0.7587074760089125,0.7963125504356534,0.8302340795683905,0.8714760210324131,0.9073944943318835,0.9129861610011782,0.9074244857767986,0.8661141720040058,0.8212891834801428,0.7835321790448355,0.7385073936146633,0.7017434680852346,0.6732046194313024,0.6489711343917532,0.6119180101639352,0.5711527438444888,0.5420586716016507,0.5386329694879892,0.5525464684736447,0.5618095473273779,0.5618372804044935,0.5595253188937459,0.5329731291041933,0.5181389692989553,0.5460280574764003,0.5472622047137503,0.5187807305303127,0.5150219799695086,0.515017075765142,0.5149905928994687,0.506008269038754,0.49181608671203714,0.4916067592045148,0.4916020993523098,0.4861188814276729,0.4679470167315096,0.44882167143165175,0.46106404801070067,0.4880245362270679,0.4739977008070624,0.4682113903854468,0.47209033366797026,0.49081366081284594,0.4916077100759586,0.49376358417002475,0.5125650912723421,0.49112121851219204,0.4691993264598979,0.4676757277649819,0.45084601577714656,0.4566533230937444,0.47897653357986103,0.48473917252803345,0.46880732934417146,0.48739901143720044,0.5132489753467486,0.5150159831363221,0.5111281228678592,0.48202594027503265,0.4481297502669923,0.4273349410902898,0.44775837714276134,0.47715467329142625,0.5006731224421861,0.5317393415543301,0.5247703997367816,0.4916558859672078,0.47075869067708975,0.49380553304041674,0.514415433853658,0.5067143532546896,0.4918400576241968,0.494496375172949,0.5226615250667277,0.5246533523188024,0.5226671654926016,0.5546285656743764,0.5837580693914095,0.6107787676440948,0.6436200005099746,0.6595735968040985,0.6891075162131686,0.7301816956159359,0.7753313694968686,0.8145647957873581,0.8581592076028586,0.8938009155032725,0.9279162949187003,0.9703743838346823,0.9999999999999996,0.976742350458196,0.9371853683996565,0.8986698517088274,PM
1.0,0.9676160104649796,0.9230338724370073,0.8778388996277018,0.8696228598678903,0.8992780183741962,0.9477776317135769,0.9725322176691975,0.9673523062537175,0.8980351865003913,0.823557843899116,0.7580800548724556,0.6724344202569963,0.583847950286497,0.5180308521344488,0.45263421515680147,0.3826422238752407,0.28843132372158475,0.22191979189362687,0.15483775173581193,0.08089581189357009,0.03146843763629015,0.0017262233768065016,0.0,0.03654300233259722,0.1315280085107169,0.2111360783146914,0.2772349525499873,0.3531946156453847,0.4195035110098786,0.46782828707480206,0.4313464585501823,0.35412368880066847,0.2919095457713565,0.3083171032837839,0.3595885207164846,0.42561778674729656,0.5116604506419247,0.6033373254350334,0.6744131605568455,0.771704262230732,0.855769114649334,0.8782226503066148,0.9108728488845754,0.9558490482689681,0.9983297072509343,0.9766051654125958,0.9958929764976086,0.9795963961828154,0.9729267408418876,0.9697535031244815,0.9407810728793811,0.9159287938886607,0.867581965540178,0.8300031976684394,0.7870715070692231,0.7530219644785996,0.7207171747664161,0.6954518402503256,0.6948548919795972,0.7034161182448937,0.7358944373579837,0.7801779882854651,0.8264705658998803,0.8614837935328961,0.9001081226484731,0.903399353459422,0.899771577223798,0.8712611403008452,0.8674098692368499,0.8385536517071301,0.8166110410123775,0.799306165384067,0.7991220241444399,0.7991220241444443,0.7991220241444479,0.7981694145822615,0.7710994590482736,0.7643708495429236,0.7643623989260098,0.762423173704617,0.7336591934536871,0.7520796020291911,0.7313686190120858,0.696283088421116,0.6715495597321706,0.6911351352736688,0.7396144450956452,0.7640028532729879,0.7643626353092774,0.7643626353092801,0.7643626796311427,0.764818298912318,0.7891569864585852,0.7991035982380419,0.7943219181357213,0.7665153483659592,0.7641085362630742,0.7411272539294282,0.6800682535331113,0.6602178480478065,0.6602607986604907,0.6772434783962664,0.6955337734994433,0.7209906506798465,0.7028183048996048,0.6280865803730924,0.5732208893926183,0.4955193805757512,0.4216474567006241,0.3604118918296413,0.29289318650413065,0.22837224980812554,0.21008071174674114,0.25922721109019964,0.3428539201442886,0.42034718697814455,0.518190237441587,0.5857000281862925,0.5919730629085178,0.6238672811841042,0.6727055027682418,0.7196750602982096,0.7519427026884413,0.7643345450614358,0.7607885821384075,0.7330710263827918,0.7561825299626106,0.743818932993058,0.7014064556509823,0.6800394618238705,0.6479085646907174,0.6153968937925995,0.5684281439053693,0.5262690576220477,0.5212733032983694,0.539489872797251,0.5322807874645603,0.5525634558951253,0.6013591993038787,0.6507319291549578,0.6995477022479752,0.7303764892770594,0.7579006444742413,0.7643618539314874,0.7643626353094177,0.7643216776098791,0.7486657760765549,0.7366000288088959,0.7634144187402772,0.7643633053228367,0.7670919100394435,0.7957658508538623,0.7991211869540233,0.7955751427590405,0.7670157603844858,0.7643629021965834,0.7643626353094595,0.7643724044587721,0.7715347580702483,0.7733866361228117,0.765092347920219,0.7907904896509619,0.8228207271212478,0.8338592072573556,0.8338814129799141,0.8335219141110546,0.8116161050938429,0.8247820837272748,0.8442530074356309,0.8519846994663336,0.8411722788501157,0.8677277784367874,0.8691617365510096,0.8937593186461052,0.8972213474440123,0.869582067399052,0.8393060350049941,0.7908142924555168,0.7633332436615987,0.734145427646343,0.7416018401435629,0.8021951499066979,0.8569601208934552,0.9023606252200365,0.9022314872388124,0.8656209365181988,0.7891228495954277,0.7227300309587505,0.6542745995871391,0.5681706098656365,0.4942722848861383,0.39739335141876175,0.32604871883495967,0.23945042913952097,0.20858950014697175,0.2269828274401533,0.304655944211639,0.3805749013854216,0.4783115053972624,0.5583938110399274,0.6403592448853956,0.7343634659654334,0.7669903781845493,0.8083422661789577,0.8722738574682705,0.9205530206796135,0.9381940322837155,0.9513112884219979,0.9726955956026258,0.9721025415427853,0.9460763357359792,0.9381692999292905,0.935865788116085,0.9054709786254209,0.8666639514471308,0.8181823152029217,0.784690691103676,0.7646103199932632,0.7623142009338846,0.733512351134646,0.7557215594196149,0.7974480667492152,0.8477782057320127,0.8850533249232173,0.9033486912199082,0.9023157912972151,0.8742351315929797,0.863493010180016,0.8358696273413875,0.8227072978507746,0.813035599496919,0.8336924701317585,0.8277842273123452,0.8090880101190079,0.83311344209097,0.8338814129800864,0.8338030131359142,0.8143568476746967,0.8213858879803464,0.833852463679599,0.8304163325802314,0.8025898040535298,0.8254858028792125,0.8145368062892446,0.7992568270797058,0.8007630559720793,0.824585413619296,0.8061981934851756,0.8245818430723002,0.8000887911517278,0.799122107043206,0.7991216630038638,0.7961472670437928,0.7672877456985931,PM
0.7122667255582837,0.6899803785985337,0.6875021342622714,0.6656358904013673,0.6736550319540782,0.6605758714858276,0.6795070638400813,0.7038085987657561,0.7272786639310271,0.7025798353772861,0.6277261991865601,0.5697573444454567,0.5039571843634545,0.4279712874545534,0.36152007619355553,0.3041723800305971,0.23300484653913012,0.20651539077953673,0.16768702542045544,0.11490261179504158,0.061246384116496966,0.023118836602948445,0.0012925542822661562,0.0,0.02246950265097425,0.09457278854038753,0.16251588020080154,0.21210062334807,0.22976495112565365,0.2480197167846696,0.23772784725080998,0.26411034254235544,0.31638896210013234,0.3875684859994659,0.45386139603133513,0.5113585594675523,0.5871650092931806,0.6538341982869444,0.7108827819792496,0.7739539849265467,0.8324598162547203,0.8773282333221455,0.8815823627157378,0.8633016563567151,0.8921974181927497,0.9296200281568052,0.9553434647600985,0.976486631095216,0.9988864178765238,0.9999999999999996,0.9772368316045434,0.9758685471175341,0.9754520613201731,0.9522986669487179,0.9201308165355697,0.8944541501929257,0.8668222310793987,0.8349833028413856,0.819007751314587,0.7928860318152053,0.7436301154778708,0.6826515518931386,0.6402138546929135,0.6262203610008439,0.5916862024636242,0.5741538218884537,0.5824748752706417,0.6023432204685117,0.601576769589514,0.5781420549390455,0.5630026413734046,0.5445812521420055,0.5212392998822097,0.5310794363079503,0.5452615832795247,0.546691291981046,0.5695422445574922,0.5739831020434605,0.5739838393943377,0.574028693090598,0.583396401893348,0.6024107095778377,0.600954022751313,0.5772317065556964,0.5739856901450575,0.5739844366485802,0.57570633665047,0.5991287302943475,0.6026898899460531,0.6026927582409534,0.6081319107440195,0.6334381903560415,0.6579366432765732,0.6574856886695586,0.6334500411972255,0.6313997009871994,0.6360737627631852,0.659317855608196,0.6459072578613507,0.61079546553673,0.6046471280342458,0.628457527684342,0.6313967884512839,0.6332465572660939,0.65699534086411,0.6709262154795739,0.6652161995153096,0.6853562060737706,0.6888080416011344,0.6887962734812167,0.6773387202451153,0.6630257307785752,0.6867528290386269,0.6940260691281357,0.7169375329542507,0.725178931746822,0.7458129657497907,0.7462201427045065,0.7462104981550994,0.7365040998819716,0.7177754059342756,0.7040444959393066,0.6869801503689543,0.6575167941278397,0.6320946369765701,0.6118230684832846,0.6234630947469895,0.6313884195189918,0.6313959404978955,0.6313959404979026,0.6313976437784237,0.6343260398583337,0.6581513835658126,0.6601019910495869,0.6603774914617975,0.6786568952960361,0.6673704673247012,0.6538993405366189,0.6279872101788286,0.6041787575036213,0.6026936504357372,0.6097509707185531,0.6316194783732869,0.6529730063273926,0.6667773632231113,0.6921803470990668,0.7156557123875609,0.6947906658302876,0.6922788992364395,0.7108088954270779,0.674530809607591,0.6048817625595277,0.5287975315129869,0.4640601602286609,0.40514092941368895,0.3337863135138641,0.2804462181812446,0.21295453496905603,0.2009789252066585,0.22075048092448712,0.29215823207200176,0.36825476213109676,0.4399644896785291,0.4927122496743066,0.566555704600868,0.6200260383707668,0.6894693834807142,0.7417723440835675,0.7964287521649722,0.7730841186437689,0.7474479607127216,0.758190518118147,0.7747889727386865,0.7749278670428388,0.7777927390566037,0.8017638170643733,0.8187712032528727,0.8314470837142998,0.8081511821730207,0.8011042781752145,0.7763911925378042,0.7469279795382548,0.709158365027339,0.6884793845241064,0.6653835721369066,0.660104785609557,0.6595481998232038,0.6370588429463493,0.6313957561603822,0.6260739104761357,0.6049441266391793,0.6262027546495772,0.6315290981304087,0.6473636065357797,0.6600886892400522,0.6601019910497974,0.6601019910498027,0.6601019910498089,0.6601046971275166,0.6651929114564328,0.6882196251443298,0.6963457740751191,0.7170927398400377,0.7115693152929299,0.6856604055195992,0.6616586865842398,0.6601057515393003,0.6668770808012963,0.6883322519461355,0.6833786414350294,0.6611708160819378,0.6636683117484279,0.68905463060335,0.7141642195061073,0.7293869726734044,0.7460782677658897,0.745945616758037,0.7269902082124111,0.7175602200574507,0.7175140921532397,0.7175245422344996,0.7252002971330129,0.7354655333320532,0.7176953571897502,0.7248318130506219,0.7502745280177998,0.7740135675703574,0.7613988539157686,0.7371660876973016,0.7178724934263374,0.7175140921532885,0.7175110542676992,0.7122350101891395,0.6899276235061094,0.6888086241088334,0.6905230024158437,0.7108212534280329,0.690688804137547,0.6888089485432354,0.6859555249038585,0.662073190888639,0.6601030749557943,0.6601033551491322,0.6623012244683495,0.6859540272877171,0.6685032109016045,0.6764166773280302,0.6609972648027429,0.6601019910500434,0.660255152423153,0.6736550319549885,0.665635890402283,0.6875021342631951,0.6884823170202652,0.6693806116163104,PM
0.7956168378288502,0.8096583513006834,0.7960297283555011,0.7922299932801358,0.7965138115014092,0.801251638468429,0.7922974881082654,0.7922196506061572,0.7925454252188251,0.8049592333563158,0.798904487192261,0.7922466175218128,0.7866568940653442,0.7570916055547894,0.7586203398566211,0.7729836322023536,0.7866068467752241,0.7804266790004357,0.7892254212499501,0.7922719674193401,0.8018708809236137,0.8310308355599414,0.8277978451116295,0.7930173498708961,0.7577743902967335,0.7063603136721048,0.6437082649492321,0.5834463415238034,0.5356911305595387,0.47418222412025024,0.41132920813679874,0.34847575804708164,0.28562230795736454,0.22276885786764744,0.16000381081100779,0.10804178011039056,0.08908894906346676,0.11805222948465266,0.1740831257580271,0.22387077201571381,0.28644343378990245,0.34929688387962,0.41215033396933576,0.47487999160576155,0.5276154486911602,0.5817355091683423,0.6445289445741942,0.7073810651701589,0.768368593210655,0.8124256706852027,0.8150278844925793,0.7937072344706988,0.7909947761941383,0.7754634246999497,0.7731864759760962,0.7731844329704454,0.7731844329704494,0.7731844329704529,0.7732258358086179,0.7806166129755314,0.8014603983572468,0.8225583497783728,0.8436563011994989,0.8646224097978332,0.8906914989118238,0.9372716500075522,0.9703510357400189,0.9916883017735629,0.9824444736426656,0.9512856330164192,0.9178171665073083,0.8763444626541128,0.8452847181784247,0.8237857701556446,0.797502156933867,0.7819866442229992,0.7739733393997441,0.7855021579632981,0.7743221855713069,0.773184663998908,0.7743507297932792,0.7892902756688174,0.7922735080285519,0.8006276462077118,0.797112913347183,0.7944557850138656,0.8099960553444978,0.8105528910210271,0.7982023742329027,0.8044141812422523,0.7926168477971105,0.7969728961906153,0.7949384467646778,0.798887468575046,0.7936141031893462,0.7922715057013838,0.8002571508028504,0.7974595101350928,0.7879283614530195,0.7737735794912819,0.7822506914109773,0.7734995563940701,0.7534452946599837,0.7412359355845544,0.7696156060896793,0.781202545104033,0.7732358693380368,0.7734606511822144,0.7854415405006008,0.7952247728563941,0.8247381564942753,0.8563035428038126,0.8444966446867594,0.8077908272904488,0.7471351941936928,0.6949000870386675,0.6402983609482202,0.5774952175190764,0.5146417674293593,0.4517898086283161,0.3918488791154622,0.343942188230824,0.28226301651725594,0.21940970673478644,0.156564217483385,0.0986103931436233,0.049500324954634856,0.0,0.007932035720611186,0.05580707942715035,0.1184858771370525,0.18133932722676915,0.24418854793689837,0.3029067887102914,0.35152505020298985,0.4137179733550824,0.47657138792134424,0.5394248380110618,0.6022752517746324,0.6619218895150438,0.7098368021818415,0.769765143864868,0.8120566289309168,0.8130214206770616,0.8073760970684267,0.7928823641881491,0.7922197030654847,0.7921095310588453,0.7817561942857143,0.7824851870021354,0.8074753102960988,0.8013182497105369,0.7929075290597032,0.8073369750339405,0.81744051199433,0.8435462119392061,0.8624918190315469,0.8992910775971072,0.930797303143232,0.9621111476926942,0.9866178855282426,0.9999999999999996,0.9790135690740178,0.947629240533225,0.9130463236695392,0.8714956288911533,0.8472805978239721,0.8271332671088367,0.7961870844930408,0.7921768226923822,0.7839423205701403,0.7798274034513439,0.7902939985281363,0.7752192750852958,0.7850034727813973,0.7922091050702194,0.7962152331152983,0.8015636345992401,0.792326844951285,0.7922196227247422,0.7922196227247467,0.7922089745350451,0.786349800153971,0.7835933111075128,0.7921547012338235,0.7922864850755498,0.801709753198244,0.8111646737642539,0.8060767080519948,0.7800534513191719,0.7731077104059847,0.7615772880829677,0.7407432210001637,0.757988136842537,0.7726661726349038,0.7732604775961689,0.7827957981191243,0.7921437158899818,0.7951972608603524,0.8285418557305557,0.839042606943087,0.8086516833002526,0.7554757959654568,0.7060179355407579,0.6484674704225211,0.5856318280415724,0.522778377951854,0.4599249278621378,0.3970840668270199,0.3411444179862526,0.2901345678649001,0.2275466673285349,0.16675064475307932,0.12258542604431888,0.09230372339040027,0.1106943151073736,0.15690947800313904,0.21881266062225757,0.28166597440104546,0.34432768320544627,0.39623395252890203,0.451225053144674,0.5140445850059021,0.5768980350956205,0.6397514019530566,0.7018853407871162,0.7501959366132174,0.8087100754864474,0.8348188422188207,0.812720282064789,0.7967866488732209,0.792228749206751,0.7923763846233651,0.8020901280694712,0.7957113820882324,0.7922228968882972,0.7922196227248532,0.7922222813094089,0.7949067453019101,0.8114301533768513,0.8295740598419594,0.8609258652037686,0.8782944899623741,0.9085952927139114,0.9399799446802142,0.9655269139742515,0.9785030838914204,0.9535241777628705,0.9147970934825107,0.8813168273301053,0.8500075267727123,0.8256690590654161,0.7989615031059358,0.7922490531116275,0.7922196227249021,PM
1.0,0.9676160104649796,0.9230338724370073,0.8778388996277018,0.8696228598678903,0.8992780183741962,0.9477776317135769,0.9725322176691975,0.9673523062537175,0.8980351865003913,0.823557843899116,0.7580800548724556,0.6724344202569963,0.583847950286497,0.5180308521344488,0.45263421515680147,0.3826422238752407,0.28843132372158475,0.22191979189362687,0.15483775173581193,0.08089581189357009,0.03146843763629015,0.0017262233768065016,0.0,0.03654300233259722,0.1315280085107169,0.2111360783146914,0.2772349525499873,0.3531946156453847,0.4195035110098786,0.46782828707480206,0.4313464585501823,0.35412368880066847,0.2919095457713565,0.3083171032837839,0.3595885207164846,0.42561778674729656,0.5116604506419247,0.6033373254350334,0.6744131605568455,0.771704262230732,0.855769114649334,0.8782226503066148,0.9108728488845754,0.9558490482689681,0.9983297072509343,0.9766051654125958,0.9958929764976086,0.9795963961828154,0.9729267408418876,0.9697535031244815,0.9407810728793811,0.9159287938886607,0.867581965540178,0.8300031976684394,0.7870715070692231,0.7530219644785996,0.7207171747664161,0.6954518402503256,0.6948548919795972,0.7034161182448937,0.7358944373579837,0.7801779882854651,0.8264705658998803,0.8614837935328961,0.9001081226484731,0.903399353459422,0.899771577223798,0.8712611403008452,0.8674098692368499,0.8385536517071301,0.8166110410123775,0.799306165384067,0.7991220241444399,0.7991220241444443,0.7991220241444479,0.7981694145822615,0.7710994590482736,0.7643708495429236,0.7643623989260098,0.762423173704617,0.7336591934536871,0.7520796020291911,0.7313686190120858,0.696283088421116,0.6715495597321706,0.6911351352736688,0.7396144450956452,0.7640028532729879,0.7643626353092774,0.7643626353092801,0.7643626796311427,0.764818298912318,0.7891569864585852,0.7991035982380419,0.7943219181357213,0.7665153483659592,0.7641085362630742,0.7411272539294282,0.6800682535331113,0.6602178480478065,0.6602607986604907,0.6772434783962664,0.6955337734994433,0.7209906506798465,0.7028183048996048,0.6280865803730924,0.5732208893926183,0.4955193805757512,0.4216474567006241,0.3604118918296413,0.29289318650413065,0.22837224980812554,0.21008071174674114,0.25922721109019964,0.3428539201442886,0.42034718697814455,0.518190237441587,0.5857000281862925,0.5919730629085178,0.6238672811841042,0.6727055027682418,0.7196750602982096,0.7519427026884413,0.7643345450614358,0.7607885821384075,0.7330710263827918,0.7561825299626106,0.743818932993058,0.7014064556509823,0.6800394618238705,0.6479085646907174,0.6153968937925995,0.5684281439053693,0.5262690576220477,0.5212733032983694,0.539489872797251,0.5322807874645603,0.5525634558951253,0.6013591993038787,0.6507319291549578,0.6995477022479752,0.7303764892770594,0.7579006444742413,0.7643618539314874,0.7643626353094177,0.7643216776098791,0.7486657760765549,0.7366000288088959,0.7634144187402772,0.7643633053228367,0.7670919100394435,0.7957658508538623,0.7991211869540233,0.7955751427590405,0.7670157603844858,0.7643629021965834,0.7643626353094595,0.7643724044587721,0.7715347580702483,0.7733866361228117,0.765092347920219,0.7907904896509619,0.8228207271212478,0.8338592072573556,0.8338814129799141,0.8335219141110546,0.8116161050938429,0.8247820837272748,0.8442530074356309,0.8519846994663336,0.8411722788501157,0.8677277784367874,0.8691617365510096,0.8937593186461052,0.8972213474440123,0.869582067399052,0.8393060350049941,0.7908142924555168,0.7633332436615987,0.734145427646343,0.7416018401435629,0.8021951499066979,0.8569601208934552,0.9023606252200365,0.9022314872388124,0.8656209365181988,0.7891228495954277,0.7227300309587505,0.6542745995871391,0.5681706098656365,0.4942722848861383,0.39739335141876175,0.32604871883495967,0.23945042913952097,0.20858950014697175,0.2269828274401533,0.304655944211639,0.3805749013854216,0.4783115053972624,0.5583938110399274,0.6403592448853956,0.7343634659654334,0.7669903781845493,0.8083422661789577,0.8722738574682705,0.9205530206796135,0.9381940322837155,0.9513112884219979,0.9726955956026258,0.9721025415427853,0.9460763357359792,0.9381692999292905,0.935865788116085,0.9054709786254209,0.8666639514471308,0.8181823152029217,0.784690691103676,0.7646103199932632,0.7623142009338846,0.733512351134646,0.7557215594196149,0.7974480667492152,0.8477782057320127,0.8850533249232173,0.9033486912199082,0.9023157912972151,0.8742351315929797,0.863493010180016,0.8358696273413875,0.8227072978507746,0.813035599496919,0.8336924701317585,0.8277842273123452,0.8090880101190079,0.83311344209097,0.8338814129800864,0.8338030131359142,0.8143568476746967,0.8213858879803464,0.833852463679599,0.8304163325802314,0.8025898040535298,0.8254858028792125,0.8145368062892446,0.7992568270797058,0.8007630559720793,0.824585413619296,0.8061981934851756,0.8245818430723002,0.8000887911517278,0.799122107043206,0.7991216630038638,0.7961472670437928,0.7672877456985931,PM
0.43247932872697636,0.43709808235980674,0.41715697795516027,0.38840008038486884,0.35453266120993954,0.32720340490370536,0.2967346291124693,0.2687982113223777,0.2415058008954547,0.20760479199077797,0.1859014245734465,0.1904697449971109,0.19076833128179582,0.19355656556140888,0.1985923091815942,0.19145292011776904,0.1911281315313762,0.19814211239352741,0.19459672659192995,0.19464127460055258,0.1999970702771845,0.19999987735831604,0.19471055954012906,0.19079542967319818,0.19385341253334798,0.20509311342902992,0.22043149948382235,0.23404161833540948,0.23725138922457667,0.2311246098214046,0.21533492537786003,0.19971430163361292,0.18236047947220468,0.17371369005534598,0.17212074640301078,0.17144225892459075,0.16245872980420617,0.1508720306735043,0.1400241195844787,0.14303596697441567,0.15439414808890084,0.1760624941751805,0.19715809269244677,0.2149712998838642,0.24065690909306836,0.2686525288040644,0.2972530667815245,0.32594439079189463,0.3521319308953874,0.38017711023291545,0.4132612827385429,0.4405105862982426,0.464610052060598,0.4613846992690269,0.4302074970986589,0.402828604189682,0.36919190284732273,0.33685857087911075,0.30925786892900264,0.28206295048835806,0.2514742561993082,0.22369660828743054,0.1965307405859209,0.16889053759113404,0.17114478554219326,0.1737836738081031,0.1865111119580043,0.19033657866273335,0.18066844354932488,0.17581632286465654,0.18235799014461018,0.19230737767893125,0.19977679447801133,0.19938557285196556,0.19193124138220496,0.19076163483289643,0.1925337245874308,0.19971900457254765,0.20522841325522312,0.209031213387743,0.20283377071449293,0.20729488438924637,0.20402426392627682,0.2134780409836401,0.21874580260694487,0.22427085065184804,0.22888859659730865,0.24116411207387145,0.2565020108599201,0.27270597548650377,0.2816317486651525,0.27864470697064414,0.26563064083844456,0.2494967415926832,0.2321143325202102,0.21355726334963987,0.196140709504246,0.17873548882291468,0.16537530506530884,0.1689960406618891,0.17023206119632617,0.16692315836689953,0.1806817968303085,0.19019866129599827,0.18724612741765823,0.19395914803611403,0.21310472801329627,0.23469757656927337,0.26060207611257624,0.2889013351084311,0.3171976040000599,0.34582571686350105,0.37462771802383843,0.40259634809677536,0.43328284416988594,0.45923326004083953,0.46606883754567563,0.44344913373297445,0.41006700782739913,0.38270516549254396,0.349240777158925,0.3226440964275672,0.2970249271377421,0.26472722512498126,0.23713401024793979,0.20792084449944892,0.1885031829354582,0.1961452522220397,0.19871501241652,0.1920314032852326,0.19868763206679496,0.20007736991367753,0.20086318285347748,0.20825366079620156,0.209397704068371,0.2094289097861981,0.213921510905142,0.21619734452085115,0.20967015512541165,0.2144765320595805,0.21752014824809596,0.21067168022426785,0.21829259947709967,0.22819566317534323,0.23633979166730312,0.236568062762883,0.2290542159112563,0.22475624934219018,0.21858165179230538,0.2109414959576572,0.18944990108003323,0.16571276929017786,0.1463383962489777,0.12319273437496103,0.09670041753468683,0.07059925739860407,0.047339444209257175,0.024001763716072988,0.0,0.00034660991804225105,0.020314418320725114,0.03894044087229842,0.060206838233834103,0.07805581394126881,0.09193379522548129,0.10623674065479505,0.1156263143410341,0.12471771618521332,0.13834863706238965,0.15474711416861653,0.17685426876693455,0.20158733386878236,0.22815548189170953,0.2573945560730877,0.2859582352841583,0.3138812991107365,0.3427474332855296,0.37403164859930094,0.40812389593092857,0.4355951523392887,0.4691758319756332,0.5014733243865022,0.5297842301433109,0.5638847505821805,0.5914711059746505,0.6246944343692744,0.6588866600584091,0.6863953236366047,0.7198298523413071,0.7499684840872485,0.780240666454664,0.8114999572692829,0.8316919677223065,0.8569681849169792,0.8915635302407763,0.9263867250801372,0.9585754049357078,0.9846342137565216,1.0,0.9889667034073155,0.962742697698145,0.9304014845800865,0.9029702916729803,0.8689404449298865,0.8344956612435639,0.8066509063724014,0.77376779406812,0.7389397915453162,0.7041097094148623,0.6692796272844082,0.6346137941133427,0.6058709378519127,0.5740959808551052,0.5392789954501769,0.504448913319723,0.4696188311892693,0.4347887490588156,0.3999586669283621,0.3652537327578931,0.3362859578013695,0.3047718549050331,0.26995803509413063,0.23512795296367694,0.20037065126708065,0.17064287554592728,0.13993554414962084,0.1083828745557458,0.11417260826431974,0.13809837651506318,0.15587558883213837,0.17576796709457887,0.19064459600854744,0.1988037778504368,0.19298492284692847,0.19939104414179876,0.19461848119038128,0.18988775467493846,0.18271170659764935,0.1887584594338405,0.19090453933639262,0.19691376812674144,0.1983268771544735,0.19119582849607553,0.1951352318796431,0.20586166172413645,0.20133011877997498,0.19121208767157638,0.1880840493272522,0.1830631661832156,0.19303687972689376,0.20529980844892726,0.2172601359748776,0.21184207301835656,0.20316209478903424,0.19477582612964528,PM
