0,1,2,3,4,5,6,7,8,9,10,11,12,13,14,15,16,17,18,19,20,21,22,23,24,25,26,27,28,29,30,31,32,33,34,35,36,37,38,39,40,41,42,43,44,45,46,47,48,49,50,51,52,53,54,55,56,57,58,59,60,61,62,63,64,65,66,67,68,69,70,71,72,73,74,75,76,77,78,79,80,81,82,83,84,85,86,87,88,89,90,91,92,93,94,95,96,97,98,99,100,101,102,103,104,105,106,107,108,109,110,111,112,113,114,115,116,117,118,119,120,121,122,123,124,125,126,127,128,129,130,131,132,133,134,135,136,137,138,139,140,141,142,143,144,145,146,147,148,149,150,151,152,153,154,155,156,157,158,159,160,161,162,163,164,165,166,167,168,169,170,171,172,173,174,175,176,177,178,179,180,181,182,183,184,185,186,187,188,189,190,191,192,193,194,195,196,197,198,199,200,201,202,203,204,205,206,207,208,209,210,211,212,213,214,215,216,217,218,219,220,221,222,223,224,225,226,227,228,229,230,231,232,233,234,235,236,237,238,239,240,241,242,243,244,245,246,247,248,249,250,251,252,253,254,Target
1.0,0.9579648151105777,0.8763012893452355,0.7889594402859599,0.7643648739068905,0.810951591450368,0.8381528516663641,0.8390887908858531,0.8390889440980471,0.8390889440980338,0.8390889440980205,0.839088944098008,0.8395688322959769,0.8585495280875541,0.8714956283757909,0.8716106346817254,0.8716106346817121,0.8716106346816996,0.8716106346816863,0.8714956283757278,0.8585495280874662,0.8395482583966656,0.8317545240652899,0.7869222777734661,0.7481627088725906,0.776968645988596,0.8060434650380337,0.8270645333851201,0.8333007147223395,0.7854666243450499,0.7091888032525615,0.7022140522520939,0.709329803266054,0.7273836283767485,0.7331449712966362,0.7005733994568031,0.6292843315994121,0.5108137813041598,0.37318989553498305,0.29749738289809713,0.4000114429573731,0.5560355414577733,0.6917652818769806,0.8190431287935134,0.8635931178185432,0.8303163926132502,0.8017477097747072,0.7725652028977619,0.7210014507552591,0.6547808372418666,0.6975669884273348,0.7541439746049932,0.8015491443665343,0.8065562061042826,0.8030364271726196,0.7774125588550609,0.7556342158492395,0.75745444639157,0.7757780735075075,0.8004197753127471,0.8153399894024291,0.8421047717648804,0.8685037348722453,0.8851193298788607,0.9041388098191607,0.9236368648955233,0.9534853398976306,0.9438808053844587,0.9589871511246573,0.9296041056644206,0.8874609165404861,0.8433346366237178,0.8556282973725997,0.8713660265834067,0.8766427814201379,0.901460177834803,0.9013168769238504,0.8761340903895585,0.8519959318175712,0.7801095536349196,0.7260473397477476,0.7534469593395761,0.7400236432687102,0.6360459052643055,0.5064077125824529,0.4607564935333128,0.5907737252223182,0.7283287947909596,0.8540166885422407,0.8919298465143699,0.8030872583550792,0.6906798407678547,0.6448124919982012,0.612968714862971,0.5350023371830037,0.5027947543289786,0.5728145910023326,0.654279633565519,0.7522324643481326,0.8455830615262228,0.8997785873063249,0.8950447870799927,0.8422508118404686,0.764595837506584,0.7128299430365903,0.7197024223016824,0.7430791471112537,0.7686205077730124,0.7761697476108695,0.8005504415989986,0.7952401548601102,0.7747383624898232,0.7740455629295706,0.7740455629295582,0.7745241019234141,0.7914094296285432,0.7778474607562664,0.7457687491976186,0.7051240559507352,0.6518719121604333,0.6619126679445033,0.6935857785737234,0.7087939930776281,0.7098224727858327,0.7299486518038867,0.7060751957776086,0.6447976311606887,0.6310243896161563,0.6265456611287359,0.5998202799632439,0.5728548683919676,0.5661591182497174,0.5838189391076396,0.6402412438500207,0.6780453578961145,0.6956404243032868,0.6848393578782925,0.684219931446731,0.6958958736458971,0.6959968585788774,0.6991516874120505,0.7075948492136579,0.6743536650245785,0.6635371518486108,0.6588521778407364,0.6295030060769022,0.6015441892655398,0.6049810336868697,0.6727524993314811,0.75714482943558,0.7887427802383105,0.7302003323588684,0.6417100520766068,0.5508395322506248,0.4652074333554177,0.40879397539977447,0.4203517412708644,0.49069440094518857,0.545051881912185,0.5440131996244855,0.6130223270478723,0.6538698308700459,0.5462616327247591,0.4014716938042753,0.2665066277409487,0.14289823177225625,0.149728804516859,0.2625893883506283,0.39137998231087767,0.5258574351491045,0.6315756626113869,0.6236843093353981,0.6083809512795835,0.6755414462703344,0.7527267118898155,0.7950159840073292,0.8121456699332299,0.7945400123676709,0.7935206791467175,0.7846115819734081,0.7482227527433825,0.7453276585918038,0.7729692610160583,0.8244761336402098,0.8560267750270398,0.8582485505128741,0.8401909259232188,0.8252307912747687,0.8023612120076269,0.7825760827101931,0.7561084690089794,0.7307037415304674,0.7184503272626932,0.6918847692787002,0.6661416531355622,0.6635524348027575,0.674435754049072,0.6977842851139453,0.7232449872555602,0.7201950604777325,0.6738771339002243,0.6080450690155361,0.5505830417532138,0.564475969900541,0.6257720250474996,0.6878626965047756,0.6973398839178317,0.7010316821351408,0.5861493854168591,0.45046434424438786,0.2942857022246823,0.15824198547238577,0.02579143477035739,0.0,0.09978213417251514,0.2295841664779461,0.36294767630073554,0.4865906443208772,0.5787613968884564,0.6279986901989947,0.630877380729645,0.6192983655339095,0.5991577781612039,0.6159903908534732,0.6876240208613842,0.7412101604877721,0.7285596609231808,0.7015735494179527,0.6662162380555552,0.6663658169821538,0.7031199183756884,0.7505543333838913,0.7609894855043766,0.7618327071311413,0.7828628736016494,0.7934824337328097,0.7866931995096706,0.7667580175059836,0.7903395142582177,0.775887160363407,0.7612228121125346,0.7610368866969566,0.7610281953991151,0.7558145664126448,0.7377333524874174,0.7592233800886117,0.7610298375327886,0.7564716515412604,0.7192765490133013,0.6937551015244185,0.6403548148624365,0.6584987954348573,0.7267606017008639,0.820933954272208,0.8872643684620698,PM
0.7932548696736674,0.7037577267842812,0.5861164571785888,0.4588120526447135,0.3320849387530309,0.21625243223503432,0.1891607109539395,0.29379887506029334,0.3998372381679478,0.5067464693066626,0.6253361404570583,0.7399870306086189,0.8491272546961879,0.9167667090651079,0.917222616821654,0.8967712293533374,0.8992637721562282,0.8871546401852823,0.8893535483222816,0.8660829701038892,0.8317343428869837,0.8397367534412181,0.8920351424334729,0.9057997120625325,0.9181969711525424,0.9093478710097314,0.9142134199348497,0.9022897850001534,0.9002810378483703,0.8885297810998276,0.8643376855863751,0.8333068837044912,0.8251606175103845,0.8212848263676564,0.8026460515488356,0.8173553456122029,0.8677086572027184,0.9342178891684476,0.9835180402600221,0.9901785184336775,0.9748657154161542,0.9318021953080313,0.9183086871569834,0.89966681157218,0.8802682514855933,0.8741131904807595,0.8407542555103111,0.7754514103144974,0.664011193993554,0.5309148789168003,0.41123776601987627,0.28879587229182313,0.1686288548245849,0.1421019030604107,0.24696132484869082,0.35241810543982144,0.46191426280837433,0.5813885232066114,0.7113589974051324,0.8164976068262719,0.8876400176331112,0.9003680314867601,0.9004725601751957,0.9004607312108615,0.8954212159894199,0.8557088503380701,0.8209912676193474,0.8222924004269734,0.8419490534439928,0.8574779191633217,0.8630661863071776,0.8627665786453491,0.8676459262194491,0.8857316808909745,0.8960651507946169,0.9004425029919112,0.8964187725442887,0.8874259748907436,0.8703419588270824,0.8514359760254271,0.8431646201200511,0.8231560296959577,0.8227933179865108,0.8812107356841858,0.9420881362392395,0.9937940972841908,1.0,0.976221671628779,0.9388993428344534,0.9181981973361664,0.9006982686121576,0.8942897967820729,0.8833103777695275,0.8504237287634684,0.7659867112993863,0.658106141927485,0.545850145297436,0.4256470024063064,0.2956684384357873,0.20164817478823815,0.25489863405339674,0.3507104409527906,0.46793469316962444,0.6043984010245378,0.7130789493620009,0.8232699939939145,0.8931359264808298,0.8876934908823353,0.8734501574739664,0.8593191514614498,0.8737441365671028,0.8651712750460874,0.815227011176912,0.8024802925260879,0.8314447396768534,0.8525847465475991,0.8675568047324456,0.8806057700039602,0.8993606109535479,0.8934054256851782,0.8968629991567658,0.8866665507323823,0.8855142206664901,0.8754383854781134,0.8687005888118495,0.8563615087247571,0.8206146150967282,0.7700738675487049,0.7683110875642516,0.7837624938480454,0.7824703414029752,0.7872442047832369,0.7767058857918974,0.7780525968069387,0.7744128761469957,0.7773545673043225,0.7651051258590069,0.7588569499391431,0.7175099860260508,0.6903709787291303,0.6967469014377539,0.7367332639188877,0.7641974680503649,0.7648425540873527,0.7664727684022266,0.7911788510098763,0.7760696999785122,0.6847336398541923,0.5791566979122811,0.45711584022658336,0.34048178704956866,0.2302916835968558,0.11072103678664513,0.042883308514094054,0.08258418400410372,0.17450839070487456,0.2908300284313632,0.4168044931890309,0.5467512485385577,0.6646356889579441,0.7529738045055367,0.7870786306256399,0.7900432883695787,0.7990920577829916,0.8011119290515127,0.827367762168703,0.8794459858110022,0.9082944291499055,0.8850675027582522,0.821575574718314,0.76470416185649,0.7230249255222354,0.7287460762710429,0.7298128994930959,0.74590049112226,0.7698051804173778,0.7702375895245339,0.7807821410360258,0.7893787410887505,0.7741958625140981,0.7648495467444043,0.7565510926535834,0.7577448715154853,0.764501761690835,0.7452854104315234,0.7000327329242744,0.6958379531865049,0.7433709966131907,0.778604025665329,0.8015246794015143,0.7971014513476096,0.7899980634740631,0.7845763040156708,0.7238071953496368,0.6175152641779507,0.4951311046861617,0.3800288298331642,0.26118918407606717,0.14250639091661021,0.04290847023446309,0.0,0.04672868376020345,0.17154015487346852,0.3034835351536649,0.4261347217566116,0.5383302171328297,0.6552342093987877,0.7420027539151075,0.7703088722514471,0.7808297050002047,0.7898577829001345,0.7931200343422526,0.8224330159058031,0.8458937803690558,0.8849059396915591,0.8728735562441221,0.8074199239051234,0.7463298582584681,0.7007143876248181,0.7056511242614016,0.7001131182978364,0.718668375947118,0.7382406664295038,0.7537158238250248,0.7808940210643982,0.7965847542679088,0.7976896988523743,0.7837194556515747,0.7997631729244334,0.7930124969828034,0.7973340714061541,0.7803669654257357,0.7525486515191844,0.7228046373575001,0.6990663386252587,0.7483872220852632,0.7874348599033665,0.8008520434377475,0.7979911298656832,0.7915698737656172,0.8201966447183668,0.7976097079090332,0.7049646177826849,0.58834950463755,0.45345998000596843,0.34669759237947595,0.23541401845297694,0.1227611244404585,0.0455287462656595,0.03389945438570763,0.13688382743869365,0.25381514768995217,0.37147501581078934,0.48726189289939503,0.6010394063884559,PM
0.7574941327546094,0.7214006889867566,0.6780937057291725,0.6989076765642017,0.7565170321372192,0.8324047645211929,0.9182227326130552,0.9518385389459989,0.9200233516531262,0.8641889689055748,0.8176531404053282,0.8078008075644472,0.8135461285150436,0.8027608885550439,0.7578102743192532,0.6625017832181457,0.544132157663372,0.4482103027997133,0.5174503693339809,0.6490719652086621,0.774001982697893,0.8855265257591993,0.9036349026593835,0.8129470305315221,0.7539194554744553,0.7736247797049627,0.7812449032889064,0.7407245223205039,0.6638618125659059,0.6756893648627482,0.7320289315353996,0.7261543171678038,0.7092256376119872,0.7053372948044028,0.7302948210786955,0.8050911614819265,0.8928957298879951,0.9343860096068797,0.8927113830208624,0.8141246245835445,0.7480640322442804,0.7252056285509845,0.7336021542717917,0.7539858707683256,0.7264896461484929,0.6432763028620698,0.5349956196614944,0.41555260778389425,0.3812202635605315,0.49100010604123945,0.620720659208533,0.7438166239027137,0.83815616568014,0.8016744705759571,0.7156157444659366,0.6865072389577538,0.6832216292020963,0.6519823874500643,0.5931825058935738,0.6264315029039382,0.6961871522329517,0.7168246040522148,0.6900794804690182,0.6675113796020136,0.6911339336783753,0.762596917053767,0.85737980986262,0.9445830833394253,0.9900596896323477,0.9593511567088662,0.9042042917662418,0.8744044221739671,0.8584241785572622,0.8282056332815673,0.8026845237083791,0.7539590559425986,0.6444333935692863,0.5213202046927243,0.3998334281317115,0.39837283868232776,0.5152440825979707,0.6499698299454066,0.7755598311522749,0.9005198577589435,0.9599721702895305,0.8817614207843651,0.7936132606156678,0.7539054926422315,0.7503405257561027,0.738636418330763,0.686890186840746,0.6546007586322133,0.7273034372866651,0.7894113125931437,0.7864484750781,0.7477343148593811,0.7079356791038465,0.7227265010475348,0.7709905677622837,0.8578968765249466,0.9423580997629375,1.0,0.9772228194805606,0.9134884232528675,0.8467329115195739,0.8057345905741595,0.8183508676458997,0.8394797187537995,0.8300113115588141,0.7611150157920599,0.6490122722168299,0.5270674264122595,0.42005938421916733,0.4677966173610244,0.5972229135327325,0.7267258471700355,0.8647104512328658,0.9590999662839157,0.9216764986047616,0.8287157603038757,0.7749616485237443,0.749166519636657,0.7202430785407161,0.6815725518982148,0.6963511221863161,0.7269495970006767,0.7651832107504211,0.6972011440539441,0.5713186196748401,0.4395763405652642,0.30399019834006946,0.18641212552189357,0.09724078643722889,0.12698750127657554,0.24237380871692515,0.3597762722026947,0.4680942139602422,0.5759701430674693,0.6955384545095606,0.7715098524249231,0.769770100893151,0.7477841032442556,0.7447300498818099,0.7589286135217042,0.8205998705704949,0.8857714319194687,0.9239005460402954,0.8622222646024653,0.778277381455418,0.7025896546073294,0.6532101185707759,0.6427311948669736,0.6811886390110296,0.7224129220851547,0.6983428277862842,0.6252496983295543,0.5586772192817389,0.5834699171057709,0.6602894501846319,0.6828928814766502,0.6944578267752597,0.7168103507870076,0.7426582555273709,0.6505605288240082,0.5193117453514136,0.37912295054732503,0.2389883868334466,0.10828721077008696,0.0,0.019870807664488233,0.13353667652208223,0.25768944898566337,0.38058795289589664,0.5036436431068281,0.6284348909484727,0.7250971149655037,0.7578503897068254,0.788150907083744,0.8111942531129475,0.8334017936895632,0.8700675064837622,0.9138530300811718,0.8586912437433534,0.7704794637988446,0.6826925687877323,0.6213834505025848,0.6051346745263211,0.6229961901481249,0.6462374833417224,0.6204628464221722,0.5483687633047896,0.5083006033924464,0.5580674085538813,0.6222371732644434,0.623612891180481,0.62249743777708,0.6556962383038236,0.619132357663255,0.48638153291841624,0.3608022500403929,0.2238739934554772,0.09794524371500968,0.00930256322077705,0.06088039923089639,0.17592380225925863,0.2963461202051234,0.4216378075663374,0.5423315724041697,0.6495020901202464,0.6758471601626068,0.6625932833961001,0.661949990575982,0.6915212490145093,0.7560097402119745,0.8375283982967123,0.8442712922332531,0.7672273711896609,0.6890739543225863,0.6390167656411228,0.639695186694655,0.6474980355973834,0.6604249110473224,0.6643456230583245,0.604367909640386,0.5713941983755038,0.6324465401000956,0.7064796383682377,0.7206114951550733,0.7028249195422003,0.682426107072589,0.7032781970574047,0.646904065006769,0.5242466995630726,0.39066864383964406,0.26517859421785817,0.154633449746707,0.17135920200053167,0.27476695393601647,0.37427805260233393,0.492257571794692,0.6181633618717721,0.712830533595195,0.7495303239118645,0.7443191310394042,0.7454719572929509,0.7820508713139738,0.8387052532662582,0.8826534687942895,0.8422170491911434,0.757341845071569,0.6840374201682087,0.6331304554862296,0.6089558275299569,0.6379567544158284,0.6807697177957603,PM
0.8464283584092049,0.8370620692968482,0.8325104761735074,0.8490508552930098,0.8571662496024532,0.8717681958993637,0.8724127872760232,0.8724128975462939,0.8724131859454869,0.873349820607066,0.8797271500004933,0.8550094982932683,0.86866934522785,0.8546905971093999,0.8346958125933797,0.8044063858001484,0.7970262441046403,0.8177440078082698,0.8492099024544575,0.8729950574661234,0.89949129362736,0.9159264224933836,0.9161945153162594,0.917052499956875,0.9334854373189003,0.9550362591722901,0.9758418318070841,0.9649067379241485,0.8898434434236666,0.7876914012171854,0.7193522991604309,0.7891727018047088,0.8725815779121628,0.9287013559741095,0.9550147400643603,0.9494097890160953,0.935160585460149,0.9147493665585316,0.8768750431440808,0.8607090807329487,0.8923166207918007,0.9164136214470546,0.9318548777389175,0.9173612755228917,0.9161947358566369,0.9160023816306082,0.9050107381919492,0.8877228064592115,0.8666082272472049,0.8507161633301976,0.8383987785372788,0.8451407279559895,0.8307926774869827,0.8286335842484056,0.828632111043992,0.8300252861085067,0.8386509074740562,0.8214937927743975,0.8072094392581288,0.805141057418854,0.788483710101171,0.7785519000005934,0.7601972760798792,0.7258081239313428,0.6855840650650369,0.6664457997637037,0.6647060241545844,0.6953508305683753,0.7079492917530956,0.7203162770974441,0.7368436683280084,0.741057337650227,0.7410686549629601,0.7413848512602135,0.7597032465484728,0.8048401778450995,0.8188423679803294,0.7554427434710407,0.6525491210487306,0.5468114983199044,0.5174549106490822,0.5970353181035564,0.6785463960554012,0.716948719420107,0.718956875397498,0.70151789898748,0.6745704647156541,0.6459706730879518,0.6148369154183517,0.6346626282326162,0.6826049052710168,0.7159874034810216,0.734013384729014,0.7616995960300215,0.7780744405007041,0.8004185760625928,0.8254330465939801,0.8486926402160018,0.876442752197244,0.9111634835388025,0.9328799176766105,0.9461752664387095,0.959614654554863,0.9617163746565329,0.9786081485760141,0.98185989456845,0.9818669928646062,0.983214677869638,0.9959006345057002,0.9971663411253533,1.0,0.9768258223876458,0.9604306611057134,0.9499400950124519,0.937183263548028,0.9206875921011082,0.9159067965945713,0.9028950848578128,0.8791692930192894,0.8307418363980612,0.803156714309833,0.8186127284015678,0.8270418151606722,0.842816719125886,0.8599747032867602,0.8698755287307156,0.8878351964723232,0.9066089870889882,0.9241327439762039,0.9136458693059644,0.9083552698366653,0.9224008649756281,0.9112161025899286,0.9012326281424952,0.8862768631504707,0.8855442444948394,0.882959315498347,0.8659203974007168,0.8548724217610326,0.8286119963217184,0.7915389983014305,0.7720092587341845,0.7434482818156316,0.7156130514403012,0.6942316532007715,0.6956853391341307,0.6705177923833063,0.6496106045786587,0.6124569233730668,0.5628364035990625,0.5276332196015683,0.5273043501716161,0.5750333251336714,0.605697056179062,0.6272969452799675,0.6431044928001062,0.6125760578188859,0.5283456862223548,0.43790801893562303,0.3349830898416406,0.24406814509107155,0.14102490077436736,0.05164578461061975,0.0,0.06221061247253479,0.1668753902154445,0.25830054911600353,0.3615557919674197,0.4692106229238062,0.5685768021684297,0.6572115401467049,0.7124505894463824,0.6941335364500509,0.6781372071205727,0.6735467160889348,0.6644040512161116,0.6574609334051345,0.6618913241030158,0.6415262073140022,0.6238657667528202,0.6106311984016259,0.5789556545089232,0.5712044640430687,0.595403740831105,0.617297173171246,0.6566545917043145,0.6866746938741914,0.7068492785625691,0.7137310063218312,0.7307141934084296,0.742176333840681,0.7540057527554165,0.7542030792214125,0.754205260988416,0.7564759822581633,0.7734118861070081,0.7760904533876389,0.7767950477654879,0.7916262872777158,0.797995825955808,0.8052091900806264,0.8339737289000348,0.8417282774818076,0.8417659076099868,0.8417650763417006,0.8400188075963837,0.8187516202826455,0.7842989368456883,0.7785059240238072,0.8122302920865834,0.8561150408655904,0.8663889982063431,0.8733832425968044,0.8713010927733666,0.8335679761028678,0.7347611853752092,0.639168098793998,0.5408695378743436,0.43717468898720657,0.34657667177639917,0.2683512314397398,0.28203297728131416,0.34844156712552854,0.4220245909093787,0.5263293195145136,0.6272539116891389,0.7204990268548892,0.8243214617463526,0.8863433244495353,0.8735505474413987,0.8637539416432829,0.8597540937141157,0.8431717760802377,0.834978299034316,0.8203605154500053,0.808323127468273,0.7772292240965646,0.7421497844785301,0.7189528477449518,0.7183612988185244,0.752744440995361,0.7771349822923308,0.7960117407962728,0.7907146226669686,0.7895803906211074,0.7876026135067504,0.7926563299884184,0.7998518485451118,0.8066662443923143,0.7981841162521315,0.7924152943373675,0.7769505872158051,0.7760939602068242,0.7760937863190809,0.7760937863190942,PM
0.5366383827420562,0.5493586123213041,0.552257692789508,0.541435108955604,0.545984753122283,0.5372755110760985,0.5696085750146227,0.6136380779830284,0.6257917803664603,0.5878292170316102,0.5278704690689202,0.46294816695509455,0.4346174594677108,0.41582159377424155,0.4107986461451807,0.4132942857802817,0.4386555112296713,0.44624199387290053,0.3614638375102319,0.29803925503280215,0.38866026072030646,0.4966261378886183,0.5820886353472834,0.571388378990275,0.4857945839864919,0.43784633950539886,0.4261647429941742,0.3769448815173466,0.3022005035820152,0.2945924510407023,0.34774822952505113,0.3618562410732915,0.36202213426250607,0.3580889948881283,0.3478396170630518,0.3685529288832896,0.39835530758513915,0.4319416094529158,0.41911277267105485,0.3693267556434492,0.3201133904747526,0.30880482713610036,0.3133381925877994,0.322107663979887,0.33852027919124605,0.3720313994182618,0.4262548961605752,0.4690917509118582,0.4088812218325675,0.3573075512766981,0.4522483663160126,0.5559348844701533,0.6363860295304158,0.6188080351133558,0.5506475345915143,0.5361215315465375,0.5456818143666333,0.4841080259375308,0.43024653730268003,0.46303449534660635,0.5123235859249857,0.5293885703190875,0.5012907823293822,0.49575485715412837,0.49688685181502157,0.5117821175534787,0.5565563145167443,0.5944460971637944,0.5995448675643416,0.5506895699061682,0.4879652579493974,0.4427427417712084,0.4145781578726271,0.4063599984506343,0.40547090758701376,0.41992867698045266,0.45534540593094563,0.49699160041915436,0.4526607438636323,0.3504009851812748,0.3526261429786559,0.4590683103846298,0.5671201351225306,0.6407543911235112,0.6010745774872341,0.5252397142602301,0.5031289946049333,0.4717039557771838,0.4167942938045268,0.36341897165069126,0.3932446467317643,0.44896512532990007,0.46939614822459186,0.46456741891609843,0.4622970568249207,0.47195180756628163,0.4702774064467561,0.48346699595700704,0.4738757552010706,0.4390409705616318,0.40752698393010256,0.3710049116657994,0.36207354323850804,0.36204661724449627,0.36747396535205334,0.4008909671979124,0.4422067180258993,0.5230954762592765,0.6370223639568713,0.7557054250764108,0.8682030976008241,0.9730214791584513,1.0000000000000004,0.9259503753843261,0.8299434406549708,0.7136957247679256,0.58164609635126,0.47147538027385005,0.49098008528805215,0.6066585077914,0.6442705536677313,0.5801746939534005,0.5154523221639091,0.4897824068828194,0.4247566716247553,0.37995366263908537,0.3657129570012345,0.3115793110329994,0.2861728514910853,0.3361496146273537,0.41388939206261055,0.4475856868287367,0.4875762202573255,0.44887262139453865,0.34209884605512286,0.27032146773095267,0.32405177910055416,0.43511094733483846,0.5545846487229213,0.6651123870623432,0.6197954442196205,0.5114579745959307,0.4177486371035348,0.3482438345868957,0.32185143384605963,0.30437174018677693,0.2919808679503877,0.27942555454353535,0.28328229542243877,0.3163670675683772,0.3524893871877244,0.39007756965516505,0.4009235844368293,0.3970893557966817,0.3855974937428326,0.387961200698244,0.3796684104448884,0.3945572028619613,0.3601989599108717,0.30560729577900236,0.26569154464957334,0.2970547593232671,0.3761510488995614,0.42432879150905745,0.4490397935680295,0.4781268435551467,0.4777015377938203,0.36123456881523763,0.24388464992004222,0.12862261132376718,0.033189500754160495,0.050660760307438935,0.16306718910964602,0.2839640793382334,0.37581425625976106,0.36587590706154804,0.3348770520236304,0.3286847238243431,0.34473267079867753,0.35267875735238885,0.3738411799971315,0.4257728120962123,0.48526112898841633,0.5144895705742418,0.5023069568406284,0.45925558841352876,0.4247496194249889,0.41737101279469746,0.4234249293999661,0.41815428546417266,0.4406325838328562,0.415317772832263,0.36950641225068637,0.3573688600523077,0.41580881027606953,0.46061268561545576,0.4504562157619021,0.46952152684020154,0.4852822855825374,0.3922533475296883,0.28509116560946435,0.17169892402576448,0.08366918829144243,0.11530547206492914,0.23109312809759386,0.32588196070336606,0.3077655900240184,0.2786611073721432,0.258401351217564,0.2422712104426532,0.22683086889056447,0.21725163086426047,0.22173570706192924,0.27634175917885484,0.3331252199305488,0.3428978321061744,0.31434848974679896,0.28286165337017977,0.2736402072365207,0.2655777636610894,0.2787195640850668,0.2775206244093158,0.2421585368388115,0.19309633802693416,0.19849255446921488,0.2706256382112957,0.3415123657251722,0.3678428571794399,0.3924120393841357,0.4409968767386663,0.3735119810491683,0.2633827904473547,0.15386287886085848,0.06653216331946288,0.0,0.04534422436396479,0.16971534008733258,0.3043894356758936,0.35694598966959257,0.3375175928626959,0.3280051097207144,0.3313854713183697,0.3499609048582455,0.3607728718405463,0.4027482006227463,0.4672773588259447,0.5244227376747177,0.5402717172879927,0.4975964733569911,0.4683345836167727,0.4515117010365981,0.46695972017090126,0.4741142247181718,0.47216309275119217,0.432653461365311,PM
0.4690476005605495,0.41798272367424527,0.36232153977315296,0.35199494163938905,0.3914930867915243,0.4183047774679496,0.44013490389431364,0.4445983500685289,0.4604017258175954,0.5068095809148057,0.5825902962839571,0.6710954038090886,0.7631541785070577,0.8523756220399656,0.9127751844761289,0.8638503837779217,0.7708428720131608,0.6651640438311044,0.5702340052577881,0.4669305755895192,0.36725752955555313,0.3162157601147455,0.385086649440634,0.45444947589075557,0.47529503864270684,0.459734615373415,0.4237545522554953,0.3939760411072153,0.42820181460574425,0.4551030652134114,0.4823250778176429,0.5087835515724946,0.5131521960194236,0.5126205363954202,0.4988377289104702,0.47997817679635135,0.46848390634740644,0.4711538984079575,0.4784540979190277,0.47856121350738867,0.47856121350738734,0.47818438200770386,0.46284824084087006,0.41725117736583783,0.36666398280782087,0.36491197530275477,0.39822748834641963,0.41913394322761865,0.42694998544419427,0.4380820117359425,0.4612925097974121,0.5192834806263402,0.6040484354473259,0.6939419008313124,0.785620591580865,0.8597750097806722,0.8435258621951394,0.7516906873607065,0.6569454764921061,0.5513381735793583,0.4557645802016266,0.3533587343015401,0.2707213478999315,0.3193814924610159,0.39844553381245706,0.4259751879105629,0.4209816149172858,0.39652114945870487,0.37131838570382847,0.39414695333214844,0.41802489856781877,0.42461031200059773,0.411611442708419,0.40910635746978796,0.40081246671350046,0.4028381501442606,0.39333554113409264,0.395230499322174,0.40820157040037586,0.4180446260853721,0.4247805792761121,0.4118010863977104,0.4053260891509458,0.38283679000745297,0.3291050825403614,0.27471109728039167,0.26510088787484065,0.2942180557996865,0.3088285793392034,0.31590176243096835,0.32918316599974773,0.35412285181644165,0.41504720659398675,0.4958428227705496,0.5659021869998213,0.6510580520068334,0.7520802595752318,0.8464386499356324,0.9457586343692714,1.0,0.945923076710439,0.8517621901740786,0.7473627128058871,0.6530821514235239,0.547606458475919,0.4435953519486424,0.36261381780974977,0.3921852127401091,0.4799611350190971,0.5494589520776949,0.5539746748568315,0.5340978905377116,0.4937638300694225,0.4628926589982978,0.4913233209172394,0.5050317652100063,0.5035810805578773,0.5041228875152948,0.4961241751948178,0.4883365051864601,0.47880101124641605,0.47856121350733716,0.4785612135073358,0.47856121350733494,0.47855852579505864,0.47661825465258145,0.45911799297038547,0.4269171868954653,0.4198011564001587,0.4248981542678698,0.43574958173157663,0.42430094113583294,0.4141714313364555,0.4230152374941376,0.4364024540364313,0.4426098639076317,0.4473117786573497,0.45111965486026673,0.45424843117331504,0.44438996609766734,0.39952825369994827,0.3827236871351789,0.44026149471751896,0.4773520253968577,0.4959767424507624,0.4620236965569795,0.37523831319072976,0.28305338912913136,0.18891058402133432,0.1160307255238977,0.12627672383140176,0.21106306224699933,0.3110616593461133,0.405448290790849,0.509807969502162,0.6103491194637094,0.607521667364336,0.5195768716192708,0.43223959563077896,0.35418843484518225,0.3038487483825487,0.27849941374189324,0.2624238881027514,0.2485241758078116,0.23565289457470273,0.20786569165672297,0.20694049868676556,0.24766944391126744,0.3061171366177433,0.3471338447027956,0.3527768739999275,0.3688581089572285,0.3686244966197423,0.3665614260379244,0.3536853801123727,0.3505399979945989,0.3505298569122757,0.35053203437610403,0.35223166833838615,0.36577103292807145,0.3772666135098266,0.36623179674006634,0.33305185456777364,0.2963078479093464,0.30279385004606985,0.3542293406552526,0.3788445890682861,0.35955209025436163,0.2778901270378751,0.18828843700368747,0.09654250401034092,0.024543767899532387,0.05160497622498994,0.1455649327922246,0.24192651615707783,0.3289267330385064,0.4120484485580955,0.5065333503336449,0.5965560213728951,0.5658535626189187,0.49258497611054697,0.4262571167679092,0.3966512444589121,0.385479313022278,0.37986038133425204,0.356011359898293,0.3251359588666629,0.3017872612295238,0.3216610933974189,0.3691479677744338,0.41874672905285726,0.43448326108851454,0.4267857387053815,0.4364290442061174,0.4353764615293061,0.42236261630596506,0.4225018041896793,0.43629414441656866,0.45185479878531476,0.4676471594268108,0.4568683384869412,0.44717777114400903,0.42123918424284046,0.399110668625569,0.3621943925142981,0.32199598213160296,0.3417476574871965,0.39910722190172,0.42416157195370197,0.404856332182137,0.31255666464568854,0.21860812970769317,0.12259180489551236,0.03298634871032924,0.0,0.0675690653286578,0.1606562915179124,0.2645660369099061,0.3587742810660961,0.463454439352164,0.5617277607116686,0.6563714208802787,0.660465221040984,0.5669375946439468,0.4888711197571318,0.434072515177768,0.40858738687756624,0.40186369454601545,0.3870686336292679,0.3595899939247884,0.3258785862502416,0.288894418405385,0.29352096717725074,0.3445038803881473,0.39901236585984545,PM
0.6753905474332353,0.6855973075378912,0.6796152828223234,0.7018025565458195,0.7223681852595916,0.7234733121152348,0.7162010942017605,0.7000016310363404,0.6993261342265558,0.6986133504484546,0.6829863050885705,0.6904987053525242,0.7058765254835753,0.7179919103508907,0.6999821279503728,0.6855043776038658,0.6949457554375242,0.6789878448017901,0.6915053625343339,0.6992730966254883,0.6989854736640635,0.6847688451478153,0.661573438912753,0.6670340351156163,0.6563341817321384,0.6509624666944762,0.6509464794563158,0.6509464794563145,0.650946477286396,0.6504844451513141,0.6353105104557533,0.6277955074702888,0.6435437227694378,0.6305561490964484,0.6105727483191963,0.6055201437550171,0.6269536636211468,0.6393289446453458,0.6485995369229589,0.6429138142034785,0.6274826150982493,0.6409902744065854,0.6596484780413054,0.6461810052945478,0.6210266272769358,0.6272942907583623,0.6699082054584369,0.7262953151271732,0.8029524496634273,0.8653860723093545,0.921607696572027,0.9756637777541495,0.9999999999999996,0.9857792391509004,0.9411526504967838,0.8804909250011419,0.8361234673245623,0.812129417263836,0.7389944784455698,0.6307720646715511,0.5329626030925922,0.42780446781866077,0.34828564493308045,0.40481797494914273,0.4954707841912831,0.569207623641097,0.6259352231405293,0.6716778187734747,0.6756245257344564,0.690618766708671,0.6945669323027421,0.6766329244389397,0.6751370131492198,0.6753081213996333,0.6869146174483434,0.691388191534577,0.6628896661579349,0.6744686318944009,0.6702441418163096,0.6690755469799186,0.6750972673238413,0.6753714529486361,0.6925078628950829,0.7069212413289816,0.6993882410677545,0.698013715149759,0.6794115165698318,0.6603836138570647,0.6622553125352413,0.6413110541131815,0.6448652099052965,0.6340605082347084,0.6104199891202033,0.6030343396311424,0.617675361565877,0.63855344483899,0.6617600514363979,0.6578897536454167,0.6605291906748771,0.6289709787721045,0.6042270201455646,0.6160065617536858,0.6695340239724956,0.7419590433207852,0.809212700878422,0.8835100771532951,0.9496751975660076,0.9876235111789771,0.9784465114791341,0.9339161129903011,0.8820951389959446,0.8321251093979796,0.8186415075866678,0.775527747549178,0.689828317930838,0.5926053723811164,0.493709890226409,0.39308772178250306,0.42028527469115584,0.516580572275454,0.5709559795783012,0.620690614706485,0.6479190300550655,0.6213312871049386,0.5794753905204328,0.560615652795867,0.5144554284565168,0.4681746566563616,0.378154124994726,0.27083708161694453,0.1674637297639574,0.054833744404684026,0.0,0.056744295841572256,0.15735985860659962,0.2723702163835724,0.376594370896183,0.48728837990240725,0.5847678268525458,0.674426981208895,0.7330532612747942,0.7608683075055978,0.8066828373480504,0.8610050363090545,0.9050452363482031,0.9100794986715779,0.8477192458630429,0.7690128886068384,0.6985613235450141,0.625819051859466,0.5648321761340869,0.5443994811193078,0.5313216847232196,0.5460570406382428,0.5837197741881077,0.5792372977586551,0.5776064266076801,0.5529854242408692,0.5407635779152096,0.5225987795813491,0.5341066249652138,0.5497578638521086,0.5675204491611523,0.5742885531145601,0.5917900453612401,0.5940349004647687,0.6117024381154965,0.6170652246700503,0.6162823083197781,0.5992865621589587,0.5929153724010003,0.5928907609331051,0.5930335873317012,0.6038077715557488,0.602642895613402,0.593164086185781,0.603481197261452,0.6021195534677029,0.6092109704100142,0.5937608016150926,0.5825447484933766,0.5859828535785252,0.613856506299904,0.5976844832034369,0.5886066765771378,0.5390810542005395,0.46480204815095005,0.3760644530941444,0.27121530578722597,0.1720624910222659,0.07553874009941675,0.02418688303020078,0.08237490525457547,0.18344539936032866,0.3041772766772417,0.42478223205359633,0.5257260857426598,0.6222687093885431,0.7186776685581493,0.7645116212179697,0.7991779400252663,0.8522741821569437,0.8974702478883798,0.9105651275814544,0.8647470426595674,0.8055468947593316,0.741640147569393,0.6806002958439126,0.617383764041235,0.5682747720821779,0.5455046111225772,0.5528475954599616,0.5681557859812809,0.5650481541762291,0.5468953279294131,0.5630265127928871,0.5839565974816181,0.5618301585528407,0.5445221335214994,0.5277580923304046,0.5263503665390954,0.557906949282851,0.5686134052068357,0.5687008782151772,0.5687242657978699,0.5748313683925277,0.5832443034660542,0.5755654976687112,0.5920992561122658,0.5928907609331655,0.5928879755386407,0.5902477733708515,0.5788439152984513,0.604001077388983,0.6208975760808113,0.6390478142742344,0.6262331779820483,0.6171614300487756,0.6170826011407335,0.6191993938020395,0.6376741382724167,0.6379148941677246,0.6287334700683096,0.6189805966790014,0.6195280210446277,0.6381061146399554,0.6335999024110706,0.6187873958943682,0.6354721060762651,0.641041640232701,0.6312687961393162,0.6302739157855166,0.6044629009944802,0.5930226099260634,0.5928907609332001,PM
0.9894273333341934,0.9950235875794478,0.976987628298766,0.9693448796864697,0.9831754679951639,0.9884349956586178,0.945284792008273,0.8647211515186448,0.7578187856399181,0.6437755179475022,0.5287480072614461,0.4406130977141596,0.5073006869759251,0.5980557972639262,0.7097252766179547,0.8215843349280945,0.9337357089163729,1.0000000000000002,0.9946532946656108,0.9361445529688333,0.8922086071452118,0.9133333416882456,0.9469154489639233,0.9519444674693875,0.9424518195733904,0.9407001201931371,0.9493380267743905,0.9749470422613042,0.9704277589964987,0.9551532429690013,0.9617371838074147,0.962226110840031,0.9363278738838485,0.8499898021052725,0.7444888562690839,0.6322002420603698,0.5157191915368793,0.41017521284134095,0.43161396897909143,0.542671206800555,0.6577097822873428,0.7688537140524436,0.8759074614167612,0.9572308335080091,0.9721600936120824,0.9378493718321541,0.8760687184189153,0.8810422130580722,0.9212646937492874,0.9413159543284466,0.9572987178439696,0.9457740235194112,0.9349911004662308,0.9601583463697756,0.9759201790435037,0.9642312087504561,0.9572514981062021,0.9630918878099897,0.9627486595934733,0.9149297043589428,0.8363755395213504,0.7308314956560971,0.6164323528555757,0.4971897682277573,0.47551129916654333,0.5805688136608136,0.6937631319981101,0.8081007708974315,0.9143660575005372,0.9732730914391647,0.9656068342548607,0.9120103497230467,0.8990558075170847,0.9389440809564864,0.9561633610397136,0.9577496704145168,0.9715136597789915,0.9583532495488003,0.9631116113841436,0.9781752587889503,0.9705938416088438,0.9716248468513975,0.9699882704711358,0.9767402150587559,0.9446216181086895,0.8779352445587862,0.7769968324874406,0.6628176876108236,0.5493059415886787,0.43132662857318516,0.36645451834068443,0.4503366007576355,0.5688822297899179,0.6809990544292914,0.8025382774945149,0.9099045731087585,0.9711141916384938,0.9585077280837717,0.8990335873995916,0.8766108589991088,0.9125419386563276,0.9398733456596118,0.9438172835484624,0.9551428348275184,0.9637627883311388,0.9789108549036005,0.9873998267320656,0.9795281805536302,0.9792415940185653,0.9787927773578871,0.9588215136860809,0.8886492354185636,0.7873174457469789,0.6752888077720625,0.5581266927381725,0.4476527495773486,0.40435293578466536,0.44737751333867837,0.5082079865565887,0.6267801056903044,0.7299639029122817,0.7919363911724682,0.8780725155238536,0.929016572898701,0.9266549708932159,0.9248135324586448,0.936142022423393,0.9285945479239823,0.9095946256691254,0.9005662982809091,0.8994807123466873,0.8891254494159828,0.8776851858850081,0.8525312859875271,0.8156306759519565,0.8327754387967572,0.8935740570822597,0.8977743138165175,0.8083528550702812,0.6987828410456893,0.5814069894167637,0.4689199562686637,0.3551246492575373,0.2371717061857146,0.11341354059693987,0.01687900067352599,0.0466027790369099,0.15438625707946985,0.2698418222915049,0.38584414774848796,0.501619456277725,0.6177147371378251,0.7313241858964978,0.8378445936599441,0.9129322673528029,0.9272818626239221,0.9133921792228434,0.9183428122248338,0.9276390532267202,0.9207873411146095,0.896110767428201,0.912013087176293,0.9170951080236922,0.9067185130958222,0.8853373075911473,0.8434319783990627,0.843526396583943,0.888675219456889,0.9086859733277166,0.8299729364186474,0.719974790027458,0.6073758484022964,0.49151705856349337,0.3791524014881793,0.25748988292397335,0.14523272971584622,0.03413175317007067,0.008361255187778083,0.10249170204301805,0.21483440336405368,0.33356540146172553,0.4466941718142621,0.5660796442707798,0.6801753175342629,0.7914930544127114,0.8761715525122404,0.91331584297049,0.9111288462813534,0.9076058371870055,0.9152223442281568,0.9152988871301846,0.885508436073416,0.8903245345444597,0.8975602873119024,0.902977051131123,0.8865305124278986,0.8505880006547006,0.8138448303549397,0.8375434003948736,0.8995822045623301,0.8959521902768606,0.7981253849690304,0.6874050843330817,0.5741774054274293,0.46236443414707185,0.3444613859256538,0.2535670165998887,0.14153020072748657,0.034066995717412674,0.0,0.08614688251366243,0.2011436877488324,0.3174337503399951,0.43347408328963843,0.5575340387284757,0.680902086037787,0.7910998306026624,0.8787027143659552,0.9170998478459287,0.9086631842231363,0.9076069892321617,0.9158542074705667,0.9089217902257538,0.8914027578550081,0.8861745428074508,0.8930881416031882,0.898950735905639,0.8722947416083298,0.8445282121896514,0.8563319218040599,0.9170436832834714,0.9386839266759359,0.8621381060994879,0.7530341158693605,0.6403569184465303,0.527128075141605,0.40823046858657963,0.2840208244583613,0.16102373034245065,0.05564719341701374,0.03499355351374067,0.12871916598948707,0.2443990977659063,0.35671032236157507,0.4793324055845918,0.5940284427086684,0.7105046206661425,0.8190594504674389,0.9082182676939887,0.9389913392228386,0.9273173550717122,0.9199583616146059,0.9208840574995911,0.936588333594494,0.9256647008417029,PM
0.7672050598803715,0.7860393548903204,0.7892764614593419,0.717732940815293,0.5862675230875096,0.4598035646214731,0.5330718578316969,0.6586778963287392,0.7692355585006219,0.8792955084657281,0.8899993084764919,0.7868994736362129,0.7333853414542357,0.7023528584544412,0.6482130549604221,0.57199825751532,0.5536232626688893,0.5994351747074518,0.6437827317256497,0.6474427742260707,0.6474461653853938,0.6474461653853902,0.6481118779114157,0.6669506311104776,0.6883224870092048,0.7059272700153052,0.6894759762003417,0.6849177816839411,0.6999315428720205,0.7037912778863902,0.7516926180971915,0.8075488082249285,0.8789999490674827,0.9553963619147332,1.0,0.9905834426691991,0.931780891927203,0.8619627149239539,0.7928635355290767,0.7434785635442633,0.7302709485930912,0.7019081590804817,0.7092180057026418,0.7367840446363463,0.7626576929836899,0.8033063294560039,0.8456373468429135,0.8175450069816224,0.7032833562872556,0.558551429637304,0.5736430182973731,0.7022264878920854,0.8250152404921289,0.917951688102665,0.9074877375115546,0.8180567913075532,0.8133490162508128,0.7881141367937516,0.7542944214541887,0.67104648642787,0.6283207369310579,0.6746407940478374,0.7125537428876232,0.7358265296229964,0.7410498813274771,0.7565926810178176,0.7452258933102893,0.7675592250789478,0.7929273775820604,0.8189218144504915,0.8139781985322649,0.7967278196196759,0.7957172197893811,0.7778394389987504,0.7615318422635555,0.7602539886341226,0.7969707892083111,0.8572985889003659,0.9354866438293881,0.9899404289470466,0.9950311473980307,0.9429126818864537,0.8575298461317074,0.8006898845024653,0.7453127209756643,0.7036499939933414,0.6800115849104325,0.6772159671733293,0.677850685299215,0.7054581493948113,0.7510145040330052,0.7388548937713058,0.6516725723742907,0.5221444292162154,0.39414335341109474,0.3913083910100186,0.5287207612513525,0.6598029125478471,0.7670313130900439,0.8580262930606715,0.8232347852694275,0.7269335628264058,0.7343304078957837,0.7455584180971577,0.7008558277708836,0.6369096414502895,0.6536725905427927,0.7030351348579043,0.7429766102166475,0.7854807254290854,0.8238336441320726,0.8261396008084718,0.8398620813686772,0.8887082990554669,0.8972176059667367,0.8893757897917087,0.9057024087737986,0.8934353147883041,0.9037745501556245,0.8863243095676623,0.885580787738312,0.885535115342523,0.877168827802258,0.8364383105511379,0.7751956609900406,0.7549482731472326,0.7658474410426814,0.7824544615772364,0.7643845874255408,0.7804628165967031,0.7854294075432628,0.8004254709297127,0.7863391480390138,0.7820983573860083,0.7565806052161124,0.7286881439363029,0.7237296339498664,0.7009294373149535,0.6519031749907835,0.6071163398320234,0.5507860634093147,0.5199535547039558,0.5468088562079414,0.6062436742745518,0.6230780513718885,0.610463419964244,0.6430089351948824,0.5538045643429763,0.4159937390821655,0.27681737060632106,0.13761764346114536,0.01867060046685065,0.0,0.12406089102951601,0.2843766591563872,0.4299746638682631,0.5602354793603066,0.6400389151505657,0.6216951120979433,0.58926689856085,0.5740343549032021,0.5608126567565783,0.5594341869439372,0.5843937582288987,0.5984388797951574,0.6469179610926599,0.700793033960343,0.7647367341509215,0.8468716906619544,0.8948860886819308,0.8582030729981032,0.7790719725446307,0.7184986016368873,0.6740129927074374,0.6457146930003814,0.6608014716915829,0.6779887405922009,0.6772600458205122,0.6740050241389497,0.6918711444641001,0.7148504809785035,0.6903655204550585,0.6659188772785898,0.6446525099833735,0.6407767940415505,0.6485509278105184,0.6342460103304024,0.6099284085861258,0.5716508316996327,0.5201200069826815,0.507900966327651,0.5575742578977501,0.645741264757274,0.6932721306335843,0.6955464372254889,0.7244731155023842,0.7623866460799569,0.6511117464974934,0.5195435010772336,0.3813148837858238,0.2485093823686384,0.16954881325159032,0.22938824152855197,0.3715799112748561,0.5099689756286834,0.6623938867664929,0.7246138745001405,0.6868626284656383,0.6541416479366013,0.616494508616463,0.58798845828015,0.5871152562029254,0.6226728636679093,0.6103474377252871,0.6293271595530125,0.6924978423510924,0.7650910226916317,0.8438118143240514,0.8905977802823797,0.8737627733754945,0.8094502989587671,0.7229011143372697,0.6774767893137446,0.6308427280009976,0.5835143677162673,0.5760237242083566,0.5772734743257351,0.5980406758804628,0.5932918961399345,0.5620916693661986,0.5464955701525627,0.5462389508853027,0.5462389508853054,0.5462247143659251,0.5397161558879056,0.49328985680113924,0.45169018785100334,0.43786213360442794,0.49332590539599774,0.5714258653211655,0.6278536219600417,0.6452648964803203,0.691684910378342,0.6273585731788813,0.5097082486902531,0.36932265391389585,0.2240334064747751,0.12348686495807293,0.15950166198927285,0.2896214689383978,0.43715642053526604,0.5760657300949745,0.6768074256083798,0.6674033493860332,0.6381243358435569,PM
0.895877032246533,0.9192174869868022,0.9334698576727982,0.9558413484486445,0.9710389546468847,0.9750075284479767,0.9535895008651396,0.9205575002249882,0.8877642085171202,0.9011462209767087,0.9378960943983832,0.9634012511705614,0.9818653954352334,0.9954148765915618,1.0,0.9923468775173445,0.985342598384586,0.9820138119511883,0.9399789678870492,0.8567788701873025,0.7564843515444006,0.6648954490567909,0.5651924015359331,0.4819089479679133,0.5252038056195794,0.6261307697313181,0.7206573334756867,0.8161527492135217,0.907770448764925,0.9742551710121945,0.9528460276476998,0.8895104043739992,0.8736242805989596,0.8633872960693174,0.8362697756075179,0.8206098941279603,0.8607906820648612,0.8885268252330261,0.8927378530446521,0.9036694378101324,0.8991573086637672,0.8779450457617579,0.8587428392570842,0.8336097750886662,0.8016316812614996,0.8166632807891858,0.8611073463859036,0.8954227712917793,0.9194042966276816,0.9453826988153224,0.9499518426682307,0.9597674181358982,0.9728048116784294,0.9834187899215068,0.9511171540529393,0.882266284346366,0.7978988332954491,0.7091562172408428,0.6140767707058212,0.5189665995141999,0.4189628622125532,0.39174872989907805,0.48225135458549095,0.5800300960174631,0.6729404067664895,0.7742998710950242,0.8670243251501071,0.9583397273991769,0.9986040405307692,0.952803457101079,0.9210351815939797,0.9065534366191925,0.8727545811546271,0.8368093318177761,0.8445325793063851,0.8617508582599336,0.8686039221429636,0.872441919143486,0.88567865349648,0.8952032685182525,0.8882596737839625,0.8649551468572136,0.8234387251900834,0.7802436727111317,0.792936472700144,0.8389628003165615,0.8786037277657788,0.9037524393231906,0.9240624178291914,0.9396934345019492,0.9575828960139035,0.9702193733257598,0.9984094393239618,0.9926569549508444,0.923830901188643,0.8296479014701039,0.7359740630723577,0.6339731613054607,0.5483343457844367,0.5880935232456244,0.6885248535959136,0.7811302156954829,0.8787122683864732,0.9656479429476015,0.99533299729088,0.9510134189894375,0.9303011054995989,0.9079087944679274,0.8774885102341865,0.8599138332803902,0.8897312714661907,0.9200989912257977,0.9341818275693474,0.929893039567455,0.9381362164954639,0.9349055282474379,0.9227925134774089,0.8903612226857942,0.8510913734814749,0.8592795494537335,0.8822640411606222,0.8834010594367312,0.8815859403980437,0.8837135111711465,0.8648512928939707,0.8316722077580296,0.8038831645166207,0.8124732331486064,0.8537638513481478,0.8759590966526396,0.8869329397769952,0.8695190294132047,0.7782011209795416,0.6826867568513593,0.5877439952954386,0.4856696796810116,0.39013349986737644,0.29517156880106543,0.1942264888680909,0.10453758290230653,0.05745654023327629,0.12270744653523336,0.22098705696648868,0.31265641326880744,0.4138350646200606,0.51208782571537,0.6046536360759021,0.7048091789829996,0.7962533157443445,0.8914932200655774,0.9433485338653926,0.9276540879820119,0.9073293727795275,0.8908855173166903,0.881523751748376,0.8636606974473011,0.8333608532517629,0.7912844513864123,0.7418635349121234,0.7089364565679408,0.7328725353569645,0.7820879444813391,0.825047124246518,0.843097247489891,0.8419961238532978,0.827477768955521,0.8262966374954805,0.8167432636677869,0.7928888614619618,0.7654376838482664,0.793305642810568,0.8313917786111973,0.8651806238385698,0.8764168291761494,0.8868275480480472,0.8599165567598805,0.7718298304916473,0.6731854675327327,0.5745331212148694,0.4822704062588792,0.3806177201097525,0.2806026188259869,0.18906726264263973,0.09147063439404657,0.039614314724482735,0.0961345879549822,0.19687613167388274,0.2931334853535843,0.38739569721493816,0.48776986849376014,0.5792083333736344,0.6794968176778018,0.7739302227282012,0.865676676205068,0.9211924468874946,0.9195555445790573,0.9088596389077006,0.8992884997053987,0.8847086064157139,0.8633008361898846,0.8391911492513304,0.7973251507403587,0.7523988592196149,0.7487837779476672,0.7820656719511043,0.8101746730547501,0.8288444971108122,0.8465633550435347,0.8523852073699412,0.8492556834701106,0.8465279674303496,0.8213300103777947,0.7803872582678482,0.7758597103653333,0.8114123551822638,0.8262732729001727,0.8384771665106858,0.845486829530004,0.7797207754396518,0.691057010415157,0.5973098955795462,0.4952240913949275,0.3943342337180411,0.3028888600713835,0.20264248856537703,0.1017781287239139,0.016252209236529147,0.0,0.08267988000881243,0.18481493762784562,0.2866663961593974,0.37934566117878377,0.4774221558988816,0.5787106602784928,0.6703944575233387,0.7688897856302295,0.8583026977689063,0.9253886760136854,0.9337865495401543,0.9424943835578641,0.9576135860862305,0.9523196527109485,0.939354465472559,0.9189845719322647,0.8940575637513399,0.8555217095464305,0.8328309713251865,0.8546532162851284,0.8951495748968994,0.9223685611047032,0.9228878835064056,0.907818271990978,0.8859584923772044,0.8676543755086157,0.8360614104843802,PM
0.8206407125728168,0.6925886400468899,0.6649353774661009,0.8158231038648891,0.8535002712417308,0.7397079950021386,0.6729418209517162,0.6483600393927089,0.5576874847951787,0.518755769486285,0.5464187472170243,0.6067691279712379,0.6502045203008961,0.6608034502179461,0.6608440189295335,0.6608440189295317,0.6608110670127276,0.6512680325787708,0.6191519875718736,0.6210810911674516,0.6841046730100757,0.7849711063092686,0.8595547457078636,0.8580988302762753,0.8032061040807577,0.7317103316602891,0.6738124938254808,0.6609084665926126,0.6620892057703767,0.6927982335448206,0.7361817998340285,0.7692124970775112,0.8549311928119963,0.8424892086726965,0.6897621400577378,0.678530406060923,0.8467218102129923,0.8994979671656687,0.8183682335845104,0.7675045670208869,0.7377123765366367,0.6801281466775331,0.6961460418975101,0.7844027683731181,0.8574662589284365,0.8804647860777646,0.8806531083484765,0.8805160602317885,0.8644824345134383,0.8208092448937787,0.7914554031986611,0.759000437250581,0.7686146188490612,0.84115561190072,0.9233986171714852,1.0,0.9948694582016193,0.9225992170307187,0.8243339698854664,0.7507514724238815,0.7104868020209363,0.7048135136995333,0.7049165783287901,0.7207626604577815,0.7364138828233191,0.7410663290960846,0.7381674245900811,0.5933298681889294,0.5670096746434901,0.7506715365568892,0.9106882198173878,0.9121274400387769,0.7857611409571197,0.7127362050080501,0.6673112160839265,0.6147814169452275,0.5967668615644657,0.6138219672062561,0.6632770892270665,0.7248378001728106,0.7109941564553406,0.7184649236353167,0.7299806649423344,0.7032453405865153,0.6702100431732951,0.6608669885071263,0.6608818476273886,0.6717729107764239,0.7276851228596666,0.8070745731464113,0.916355689283229,0.9784209436462756,0.9605899145746672,0.8880887559120252,0.8110544117491054,0.7651173653275771,0.7366310340566811,0.7111748035664105,0.7355250619370493,0.7317694813115363,0.725543776607906,0.7173207071398835,0.7744955080601974,0.6867324303981022,0.5758659206905019,0.7331123608427106,0.8892752218017996,0.8659645034671142,0.7538673340061024,0.706896377917495,0.6703402852525562,0.6159530940984528,0.6129130276960986,0.6874655603732549,0.727799779394168,0.7719248290954654,0.7924758094355369,0.7927294725807901,0.7924439534519943,0.7808159242305486,0.7609834805306521,0.7488466809144718,0.7480335156403184,0.6958501128275536,0.5969656709447193,0.576357018120718,0.59870326536962,0.6017323819800637,0.6329140737780756,0.6208040366345609,0.6106504911036659,0.6165532727454357,0.6280171527898091,0.5939011463711479,0.5552583357069407,0.4927990079675819,0.4473510561987233,0.4488132486880474,0.5207258607722194,0.5615319543855071,0.6066076845363702,0.569979309023787,0.4230317959763221,0.269948624562252,0.1016107976768641,0.056177632989755644,0.18772298640047147,0.3717752075436742,0.5029508195248482,0.5513019551046581,0.5553323484624437,0.5530885782161574,0.5289435234032069,0.5674371520625288,0.5990100517212991,0.6453666923644397,0.7468698164398431,0.8050658866417946,0.7535188826797219,0.6699162720414105,0.5938909250930671,0.5237585133413232,0.49277476585683466,0.46946743160186877,0.4986746650922411,0.5204766669555836,0.5535206052275541,0.5807442789709159,0.5757539774718978,0.5554787051164789,0.5380809079416435,0.46911197823234474,0.42470900010803714,0.4496066825558529,0.5270193939548102,0.5592032746751636,0.5816233918640421,0.4654247125002602,0.2729166938139338,0.09300258235765124,0.0,0.11013210187651534,0.30158033485841873,0.465714823314892,0.5333674852997996,0.5486019057410134,0.5169717244947991,0.5307381962122388,0.5310909078442725,0.541327124384205,0.5832233336345576,0.6398561374277971,0.7271786567420238,0.8079218384905094,0.8361363208121038,0.7380224309485959,0.6509340807784021,0.6075426372427053,0.601246505372365,0.6333312934778288,0.6699710646483963,0.6969479596294388,0.7031443650408127,0.7274337089221392,0.7289352374811537,0.6910125632968498,0.640366608211604,0.5649431385163899,0.48347194629148404,0.48634087212522203,0.5380740464344775,0.599552263169036,0.6366372329307621,0.6616434043329491,0.5109003619227499,0.29056171465356506,0.1413220179088679,0.1852102288373283,0.36102445416538576,0.5425972344719545,0.5794364578702673,0.5329513432658137,0.5532487425692088,0.5227563981905377,0.50154150946525,0.48284572834679906,0.5114716817287155,0.5437218296631547,0.6038706720625333,0.6784690789643992,0.701812834702733,0.6255775489351727,0.5196464006395454,0.468530843274233,0.4668428716956461,0.44566964728711866,0.4894556731788118,0.5110059274770338,0.485600261513353,0.4518991230339928,0.46900720794896245,0.49690305126144985,0.4660334943540052,0.4175246682875873,0.37285543634258644,0.35675639855568697,0.4346928140130979,0.5029029292569218,0.5336803761644928,0.5143917104821272,0.35563758312046634,0.1814502136083842,0.1524920594224355,0.3115100734450946,0.4853768006087167,PM
0.8848655257744569,0.9038833639539177,0.9377951731127445,0.9697525854157356,0.9854846027195929,0.9844204128308798,0.9648784393632788,0.958006043480017,0.9644108730322629,0.9566161244386517,0.9334975036936006,0.888407945834448,0.8194139046555775,0.7390103196802156,0.6453003197525602,0.5613781345702296,0.4917323714629047,0.4331130628629585,0.4931295491815195,0.5816241872321668,0.6690801704021263,0.7585097545383963,0.8386125045487063,0.8890791548629986,0.9028913578014826,0.8821812535639029,0.8705497644426519,0.8984217679376831,0.9143989459642246,0.9123610740627441,0.9146529044132379,0.9144313963495709,0.9084398163937686,0.9133301730955479,0.9055452106996698,0.9042222681984224,0.9042257990310194,0.9066083581069067,0.9296689058319987,0.9661654932004864,0.99790929496071,1.0,0.9822898546999075,0.9629064743958695,0.9612826919941511,0.9507979444839973,0.945168476663242,0.9162970145743534,0.8658951648387108,0.7989625191503027,0.7201631787062461,0.6303895440658391,0.5459176336369982,0.4515901192133218,0.38733909598592753,0.44996860327830257,0.5361458791661899,0.626032423323251,0.7152507679748803,0.798631582688988,0.8582090495067556,0.8733107576210166,0.8579635513958173,0.8246487132803533,0.8519126701109068,0.8745578214128642,0.880871032023669,0.874243732394925,0.8798748733897273,0.879565001036462,0.8857751672966274,0.8914869474797875,0.8973189197578408,0.8893990117310882,0.8890530962666037,0.8906794484549536,0.9083187656929659,0.9402873446496893,0.975597996555376,0.9794613087529487,0.9665730588427608,0.9509282836965149,0.947913520351936,0.941596292932025,0.9271458757312963,0.8931560211728513,0.8392820238598064,0.7644129157468011,0.6721808164613554,0.5880511482007154,0.4965495105391562,0.463286873732494,0.5325259193880902,0.6236171269051569,0.7091666689870721,0.7950638866544577,0.8609843269945316,0.886365297324144,0.8728884557329937,0.8431484378277312,0.8585394623607652,0.8761167917820631,0.8895366773252862,0.9019568125819544,0.8955778895340192,0.9001880556453759,0.9041951263311945,0.9042207110942835,0.904220711094283,0.9042219299575693,0.9056135010466306,0.928273254918758,0.9626536350914656,0.9850885455041101,0.9931628086665372,0.9820098063116904,0.9797407789452857,0.963644791438059,0.9323308238985759,0.9315225658037551,0.9314144997610643,0.9424053778351418,0.9329558549846007,0.8997356514053823,0.8672817150090193,0.8532862583643084,0.8526446681192485,0.8526443720634336,0.852644372063434,0.8526443720634345,0.8526443720634345,0.852522759049505,0.8454782686510938,0.837051631948944,0.8188738673888576,0.7813155781276531,0.7820098794057291,0.820331712067988,0.8377971192737057,0.7901726625433385,0.7055163424143918,0.6203520589641527,0.5292291815537653,0.44137989819541357,0.3530453845102901,0.26446244637892335,0.17733801401570037,0.09269205574910155,0.032319361826311344,0.06588207776600585,0.15705749358465781,0.25264531945567237,0.3476369035270126,0.43294971715807984,0.523868320461983,0.6097559763060043,0.6959162468993947,0.7732299274076313,0.8368403016181394,0.8804173216534936,0.8975548597839413,0.903471996410731,0.9142204096918971,0.9286963622670616,0.9407312761634041,0.9146329833771825,0.875567160329243,0.8543517406060559,0.8526469687871545,0.8526443720634389,0.8526443720634393,0.8526304446131241,0.8493354821817145,0.8383769064952276,0.8374755130381111,0.8374748605837796,0.8372360388058051,0.8233460464677775,0.7852810262358552,0.7706953087713271,0.8026620040594672,0.8309223098712621,0.7923325753942456,0.7075499715597382,0.6234616627182548,0.5302515411297808,0.44562280544597144,0.3539526533027133,0.2688840945593516,0.17745165365433269,0.09009221037566562,0.011484982568465307,0.0,0.07646069066943428,0.1618988193385702,0.2563891688624387,0.34172683452359487,0.4329799060769024,0.5229216759271003,0.6092581509573392,0.6975889992273268,0.7791693771944654,0.8459581909132683,0.8896360313250447,0.9096730314341221,0.9133147062852673,0.9161194932316588,0.9333645466015272,0.9532421750248714,0.9352433068197459,0.8997632985154334,0.8696357483987707,0.8537566322673378,0.8526916750926636,0.8578408413197964,0.8613995518894968,0.8654178240533237,0.8671221966724354,0.8603300868168091,0.866903591382771,0.8624475482134941,0.8630476481167322,0.8364802512266194,0.8153982608939199,0.8308468958908577,0.8553458127801918,0.826842390614515,0.7490274199158122,0.6648643831332044,0.5716078218135676,0.48725370905310594,0.3954117653682041,0.32032947929482525,0.24830690631103725,0.16472892972141784,0.10674643238100767,0.15689135967301993,0.2406259054127029,0.3326066389402509,0.4254878491009886,0.5097921721263661,0.6030614213707799,0.6871543546897039,0.7701973691319801,0.8441004755574606,0.8952719927535187,0.9126551975767843,0.9133236378673457,0.9146095139960395,0.9302467465701008,0.9366560579975824,0.91772420630961,0.8815805501173797,0.8535931841206033,0.8381652920034153,PM
0.5366383827420562,0.5493586123213041,0.552257692789508,0.541435108955604,0.545984753122283,0.5372755110760985,0.5696085750146227,0.6136380779830284,0.6257917803664603,0.5878292170316102,0.5278704690689202,0.46294816695509455,0.4346174594677108,0.41582159377424155,0.4107986461451807,0.4132942857802817,0.4386555112296713,0.44624199387290053,0.3614638375102319,0.29803925503280215,0.38866026072030646,0.4966261378886183,0.5820886353472834,0.571388378990275,0.4857945839864919,0.43784633950539886,0.4261647429941742,0.3769448815173466,0.3022005035820152,0.2945924510407023,0.34774822952505113,0.3618562410732915,0.36202213426250607,0.3580889948881283,0.3478396170630518,0.3685529288832896,0.39835530758513915,0.4319416094529158,0.41911277267105485,0.3693267556434492,0.3201133904747526,0.30880482713610036,0.3133381925877994,0.322107663979887,0.33852027919124605,0.3720313994182618,0.4262548961605752,0.4690917509118582,0.4088812218325675,0.3573075512766981,0.4522483663160126,0.5559348844701533,0.6363860295304158,0.6188080351133558,0.5506475345915143,0.5361215315465375,0.5456818143666333,0.4841080259375308,0.43024653730268003,0.46303449534660635,0.5123235859249857,0.5293885703190875,0.5012907823293822,0.49575485715412837,0.49688685181502157,0.5117821175534787,0.5565563145167443,0.5944460971637944,0.5995448675643416,0.5506895699061682,0.4879652579493974,0.4427427417712084,0.4145781578726271,0.4063599984506343,0.40547090758701376,0.41992867698045266,0.45534540593094563,0.49699160041915436,0.4526607438636323,0.3504009851812748,0.3526261429786559,0.4590683103846298,0.5671201351225306,0.6407543911235112,0.6010745774872341,0.5252397142602301,0.5031289946049333,0.4717039557771838,0.4167942938045268,0.36341897165069126,0.3932446467317643,0.44896512532990007,0.46939614822459186,0.46456741891609843,0.4622970568249207,0.47195180756628163,0.4702774064467561,0.48346699595700704,0.4738757552010706,0.4390409705616318,0.40752698393010256,0.3710049116657994,0.36207354323850804,0.36204661724449627,0.36747396535205334,0.4008909671979124,0.4422067180258993,0.5230954762592765,0.6370223639568713,0.7557054250764108,0.8682030976008241,0.9730214791584513,1.0000000000000004,0.9259503753843261,0.8299434406549708,0.7136957247679256,0.58164609635126,0.47147538027385005,0.49098008528805215,0.6066585077914,0.6442705536677313,0.5801746939534005,0.5154523221639091,0.4897824068828194,0.4247566716247553,0.37995366263908537,0.3657129570012345,0.3115793110329994,0.2861728514910853,0.3361496146273537,0.41388939206261055,0.4475856868287367,0.4875762202573255,0.44887262139453865,0.34209884605512286,0.27032146773095267,0.32405177910055416,0.43511094733483846,0.5545846487229213,0.6651123870623432,0.6197954442196205,0.5114579745959307,0.4177486371035348,0.3482438345868957,0.32185143384605963,0.30437174018677693,0.2919808679503877,0.27942555454353535,0.28328229542243877,0.3163670675683772,0.3524893871877244,0.39007756965516505,0.4009235844368293,0.3970893557966817,0.3855974937428326,0.387961200698244,0.3796684104448884,0.3945572028619613,0.3601989599108717,0.30560729577900236,0.26569154464957334,0.2970547593232671,0.3761510488995614,0.42432879150905745,0.4490397935680295,0.4781268435551467,0.4777015377938203,0.36123456881523763,0.24388464992004222,0.12862261132376718,0.033189500754160495,0.050660760307438935,0.16306718910964602,0.2839640793382334,0.37581425625976106,0.36587590706154804,0.3348770520236304,0.3286847238243431,0.34473267079867753,0.35267875735238885,0.3738411799971315,0.4257728120962123,0.48526112898841633,0.5144895705742418,0.5023069568406284,0.45925558841352876,0.4247496194249889,0.41737101279469746,0.4234249293999661,0.41815428546417266,0.4406325838328562,0.415317772832263,0.36950641225068637,0.3573688600523077,0.41580881027606953,0.46061268561545576,0.4504562157619021,0.46952152684020154,0.4852822855825374,0.3922533475296883,0.28509116560946435,0.17169892402576448,0.08366918829144243,0.11530547206492914,0.23109312809759386,0.32588196070336606,0.3077655900240184,0.2786611073721432,0.258401351217564,0.2422712104426532,0.22683086889056447,0.21725163086426047,0.22173570706192924,0.27634175917885484,0.3331252199305488,0.3428978321061744,0.31434848974679896,0.28286165337017977,0.2736402072365207,0.2655777636610894,0.2787195640850668,0.2775206244093158,0.2421585368388115,0.19309633802693416,0.19849255446921488,0.2706256382112957,0.3415123657251722,0.3678428571794399,0.3924120393841357,0.4409968767386663,0.3735119810491683,0.2633827904473547,0.15386287886085848,0.06653216331946288,0.0,0.04534422436396479,0.16971534008733258,0.3043894356758936,0.35694598966959257,0.3375175928626959,0.3280051097207144,0.3313854713183697,0.3499609048582455,0.3607728718405463,0.4027482006227463,0.4672773588259447,0.5244227376747177,0.5402717172879927,0.4975964733569911,0.4683345836167727,0.4515117010365981,0.46695972017090126,0.4741142247181718,0.47216309275119217,0.432653461365311,PM
0.9315608158736433,0.936634642304216,0.9256618885322785,0.8626360061833764,0.7750762585495454,0.6796562386618377,0.5780900476921833,0.4958728333936173,0.41087448646831404,0.37273257711389784,0.46452214999072416,0.5704362416027375,0.6657017800075755,0.7664690494434578,0.8610334507430284,0.9525145652909244,0.9868333845158352,0.9516376405908791,0.9439002196318398,0.9153329175652509,0.8566009291030225,0.8409171320129716,0.8721893329260391,0.9044320676034612,0.9167894098944032,0.9050186754618539,0.9040403308194536,0.9112393392547624,0.9109313070571232,0.9078291322112328,0.9071956664663456,0.9150983291030699,0.9096371326839903,0.9099980727444665,0.9125422395829867,0.9037586437704468,0.8836573866714759,0.8734425455565005,0.9057437929267753,0.9634066587606427,1.0000000000000002,0.9928768655496143,0.9578494437446585,0.9350013148234766,0.9273290446336719,0.9267315312278621,0.9213262402028091,0.9319928999588429,0.9280782574410769,0.9009554357525713,0.8401494052955949,0.7593310364327552,0.6648550919421716,0.5699279666123351,0.4860663458302217,0.5393978874026752,0.6423016963255403,0.73850339110397,0.8396027269704194,0.9302153431313533,0.9780441254818462,0.9444298638029396,0.9122620860107611,0.8881550282366641,0.8339853838448479,0.8246123883703131,0.8553289372523587,0.8896554672631323,0.9106378740290613,0.9041402486647814,0.9045444012489339,0.9099554502912877,0.9048999735921559,0.9120463937159149,0.9033429954308094,0.8943707806718921,0.8994042807720624,0.8991939342322708,0.8999978229309724,0.8947728269595518,0.8811803626936519,0.8673706239662085,0.8829866941845752,0.9339112642439977,0.9771496612897066,0.9761289298034852,0.9539074736207585,0.927491265995714,0.9166785482674482,0.9142354886917985,0.9095927475872723,0.919724534705898,0.9193614347635146,0.902463897020706,0.8519036791087149,0.7708257065646349,0.6787640634153413,0.5769782604852429,0.5560046447552216,0.6405211915642155,0.7469759832632927,0.8530803107369691,0.9390039661821248,0.9731798119901163,0.9379598453062792,0.9178609787425323,0.8886275440963869,0.8392424079718317,0.8500600011165822,0.8741391749736283,0.8875714292748846,0.898342411421001,0.8964947088591451,0.897245257585974,0.8917772578946106,0.903976063970579,0.9068976860136011,0.8936308226603693,0.8796880173135311,0.8448471462901488,0.8401885742788286,0.842632203337826,0.843525334892518,0.8361005414969849,0.846152797396315,0.839760611124355,0.8202867182988929,0.8208096401360525,0.7987032031178896,0.7674048529202675,0.7911352405326884,0.8533606219981522,0.8781538097414503,0.8606380465280099,0.7760559241560216,0.6811282411484434,0.5761084577139626,0.4801909186938176,0.3760642459085808,0.276272950485539,0.1769831897879366,0.09618774715171519,0.12179377255351898,0.21270363486713584,0.3104423316534468,0.41748030159074356,0.5144174786755811,0.61707836247275,0.7154806795740878,0.8001929163320465,0.84958715977937,0.845001955631919,0.862783103553104,0.8636281434313273,0.863630161803062,0.8651759067291136,0.8808504391282355,0.9001649887581153,0.924757874931659,0.9009746549123572,0.8523733110303653,0.8073824857708425,0.8023768317685767,0.816484174059444,0.8406256029290387,0.8467889584057986,0.8468367866618001,0.8468367866618027,0.8464010740478771,0.8315118474095813,0.8363389520711413,0.8466576663131014,0.8421532077042448,0.844903657458026,0.8465348597759605,0.8322213370297609,0.805270981797799,0.7704213178664949,0.7755057206147298,0.8225206464222985,0.8503456230659674,0.8794395591979851,0.8460664178297159,0.7539229834286785,0.6500790630455044,0.5545961566303912,0.4487126746893033,0.3522542864203022,0.24883457260924602,0.14588109610451983,0.05554106484932486,0.03292833427041142,0.11169532908161539,0.21131388396686357,0.30863368405869296,0.41086851922998036,0.5175928246308661,0.6132073363490977,0.7118822948903996,0.7951342081360588,0.8571303073686296,0.8777317521700654,0.8723201666231708,0.8718233445345158,0.8640248541918714,0.8717243146838862,0.8884523388508885,0.918249591983473,0.9408249394363726,0.9100426358781106,0.852622854113495,0.815580693936871,0.807423166025609,0.8292044483298964,0.8455630184716914,0.8545545302992188,0.8520567614784886,0.8581489292687772,0.8527127699882995,0.8504169207306183,0.8558067622714571,0.843137649370078,0.8419511915663158,0.8493365162348157,0.8479443239520326,0.8518103512340669,0.8481611054150247,0.8194955665837107,0.78767561817917,0.7706678856984734,0.8154422803216976,0.8664453901419897,0.8811291098635705,0.8646759370354624,0.790591366269952,0.6957687699708777,0.5906998184495287,0.49494751298328254,0.3903957564171787,0.28488923375888375,0.1895365377821967,0.08448186467386498,0.0,0.0017927025083837034,0.09091208235077586,0.18644929679520428,0.29327759894643557,0.40126912111808344,0.5092573671879539,0.6151650863290337,0.7103292912062982,0.8042496070273157,0.8563032806565525,0.8693990989948042,0.8427088209866114,PM
0.9197262044331971,0.9187603556090485,0.9198071204808469,0.9266277804318641,0.946449676599223,0.9597967818606554,0.9578276661132905,0.9538542418473586,0.9484757997768065,0.9485131336626258,0.955514034601489,0.9561122019846657,0.9405914394066748,0.9027787096002593,0.8359551934728313,0.752706878590093,0.6678380711737917,0.583520114443058,0.5071323598545019,0.42837472918443376,0.41664014304742425,0.49469514849327223,0.5778368900846009,0.6534190247650138,0.7368388664489969,0.8167347176926971,0.8924041414909014,0.9643488381016156,0.9999999999999998,0.962541944247141,0.9296832597272837,0.9070569362669463,0.882019320978894,0.896567689998512,0.9098667223236332,0.9110727873749889,0.9118736870695592,0.9166497720274511,0.9113990407009271,0.9110738753550638,0.9110738176876934,0.9110734613379361,0.9104679264383473,0.8990051987075385,0.8869559413693298,0.8862742434869866,0.8884953757869305,0.9089814350436878,0.934194698009503,0.9385500008741638,0.9269138141799671,0.9234975124810962,0.9234763761141884,0.9234759518867046,0.9228082436179952,0.907654587857982,0.8582889538838143,0.7935422025055094,0.7194760694112912,0.6480114404890096,0.5801756957059863,0.5054456449148932,0.4239944075829949,0.39354885785971194,0.46089506662397084,0.5455099949707252,0.6285716489751807,0.7041703543673383,0.7862085676251942,0.861388194973683,0.9356307217448723,0.9741777230434414,0.9352742235663298,0.9068877474475012,0.8893839931260865,0.8604514640760039,0.8741650824191594,0.8938138990089362,0.8972372051867203,0.8880293472450871,0.8900491713038761,0.8907549974500839,0.891443804148216,0.8875531955889444,0.8862712588325825,0.8862687008345935,0.8863021339282533,0.8901822889550883,0.8983223781440624,0.9043256129588897,0.9235121703765945,0.9351071757505343,0.9293646171764836,0.9235890163901146,0.9248898693290231,0.931470561040378,0.9344547303100994,0.9320174574207882,0.9121040972490151,0.8685284426960191,0.8156110779021808,0.760742360350311,0.6861546459675743,0.6016181764279622,0.5232861150951702,0.4440176807780969,0.3664416945427065,0.37963510533096056,0.46180655531870873,0.5419681810672359,0.6194793285678701,0.7035703960121091,0.7801251951807324,0.859970141464945,0.9335518230761288,0.974239010768805,0.936931764507303,0.9094906919337304,0.8906551814831472,0.8698802207935936,0.8751144978748557,0.8385403992853082,0.8288334876751113,0.8546294604560731,0.8763070686565098,0.8667857718924095,0.8051022432449189,0.7349479211735241,0.662184688620217,0.5778792546201734,0.5003079836680024,0.4202116940343221,0.3357986567928051,0.2589358880558883,0.1783517383375295,0.10905882086149887,0.11408336560482235,0.18322708781489827,0.26515530039661805,0.3407480108898395,0.42397723953629796,0.5006693553228994,0.5817781049875157,0.6653766390794238,0.7409519556018307,0.8192464652543261,0.8777974488800269,0.8992430653674075,0.8955636678653554,0.8937158985682621,0.8932989603425521,0.8895553654374615,0.8975739273904371,0.900183875049869,0.8813857703832728,0.8694336623781911,0.86311539091976,0.8566662068700255,0.8565025606109455,0.8565025606109478,0.8565025606109498,0.856502560610952,0.8565025606109549,0.8565025606109569,0.8565025606109591,0.8564827790135554,0.8528123595624237,0.8311192492450872,0.8148258540600994,0.8370043976619674,0.8654213881402597,0.8815132274725517,0.8558850380609055,0.7828113539080812,0.7023220156822672,0.6174979641093421,0.5326255544847294,0.4477552955734425,0.36416579452319375,0.2886257351432444,0.20554798957977272,0.12355776323510637,0.048733864768645496,0.0,0.04201433417812295,0.11595771183359571,0.1983266725745645,0.27668034862100543,0.3559297142021338,0.44043574168745336,0.5180237320519565,0.5980709908080364,0.6791115105509755,0.7556680511254468,0.8310715577511072,0.8773530678935699,0.8889869223985498,0.8925768343265019,0.8892764349401256,0.8870845114618671,0.8885856103727872,0.8982737761689827,0.8992809598509746,0.8743807937304393,0.8561592683584625,0.8475974353563551,0.8555910927230415,0.8577239603856259,0.8688935886653713,0.8801011265604395,0.8813060969492448,0.8813076774640483,0.8813076774640505,0.8813076774640527,0.8813076774640549,0.8813053638368673,0.8799233313129442,0.8636875248641902,0.846021496417056,0.8625300785609598,0.886612764511409,0.9061128347266758,0.8781272996336147,0.7998508240484867,0.7241853756728354,0.6403698026385221,0.5583011266704339,0.4822681944898586,0.39830917229958485,0.31997986291067293,0.2407508274142458,0.16208459984034707,0.1274077233886426,0.1813819007057198,0.24904531417962472,0.31625774250413863,0.39885199053998677,0.4800228557096795,0.5566822748004474,0.6407842615140911,0.718166466428128,0.7974926362651977,0.8691023618822171,0.9110209650505146,0.9184291210746351,0.9185153527436378,0.9185153527436396,0.9186086864536815,0.9222004867030009,0.9252221514049197,0.9138420935538798,0.8934434350769578,0.8826407904386462,0.8813507008677555,0.8847873386385834,PM
0.7197824904382557,0.7180448434431836,0.7484168074156239,0.7761830894343049,0.7806271501821493,0.7799842503803589,0.7613146387683125,0.7202958939150772,0.680690857772817,0.6443478170364703,0.6893819161911097,0.7259438754495049,0.6627809429962204,0.5656861373323276,0.5087387668123582,0.5666713879818563,0.5817943248139961,0.5791982377745772,0.5455277641948482,0.48543968543029425,0.5081807611875448,0.5574336925526806,0.5947930374628569,0.6297087257886909,0.6693752590023525,0.7166119836061196,0.7770262953366167,0.8494390291004672,0.9379270122538346,0.9958751033603166,1.0,0.9812250674140008,0.9768708713454561,0.9705483683040663,0.9776449190161527,0.9588666454976726,0.9414574193677065,0.9242916960725083,0.9024202418036156,0.8665899809874817,0.8552272349717356,0.8551568497733575,0.8551568497733566,0.8552340140169132,0.8647118762048338,0.8757074799866436,0.8678373712388767,0.8586578464076879,0.8852873986870637,0.9253364062789595,0.9698767077782282,0.9322323401214367,0.8340498636268112,0.7288999294125951,0.7100673994857756,0.8024940634208786,0.849755715600601,0.8334546626496211,0.8180384178670606,0.7679221148821762,0.7040213082253457,0.7408705884916307,0.7865849949982149,0.8048923171693199,0.8054767768856843,0.8054767768856834,0.8054767768856816,0.8054767768856816,0.8054767768856799,0.8054772424643204,0.8070418457387643,0.8228725848505496,0.8085669696206539,0.8039988859137095,0.7853022855219782,0.7721614501477463,0.747338559273695,0.7443581352310389,0.7609424715773301,0.7854729121062904,0.8112844451979795,0.8294778625914114,0.8388370833460028,0.8546325460867186,0.8551906514870957,0.8623754798217842,0.901280436702244,0.9613829017677631,0.9481703296278372,0.8641459452365039,0.7548750733954961,0.722873925671923,0.7971428117607315,0.8255452626166537,0.8217713206063193,0.8066360268040791,0.7502879355548604,0.699950546093909,0.730036762619954,0.7696769117068873,0.7877512740395369,0.8046525621686147,0.8040951334078592,0.7912709764066932,0.8022340013236766,0.7917731316944367,0.8046788539146128,0.8054767239789866,0.8058859221847134,0.8207313608307318,0.830218979625827,0.827378456259753,0.8081155086632839,0.7974839349262988,0.7623875644524638,0.7465706689777694,0.763677175777989,0.7665351532652203,0.7210330905971327,0.6780067086257673,0.6724685524463236,0.6960419543064025,0.7266050936267279,0.745000085476117,0.7500057722263813,0.7573474597365042,0.7521873334959723,0.7433848922858353,0.7240744081800408,0.7210251064202211,0.7210206529766339,0.7210206529766356,0.7210206529766356,0.7210206529766365,0.7208314791866091,0.7066956222211003,0.6621109475320619,0.6206425337066466,0.5808040305179283,0.633069134088458,0.7105449617946062,0.7441489585015733,0.718720215954435,0.6459213547340865,0.541807927226825,0.4315713257852565,0.3092336064177146,0.21945543100490816,0.24406707242921,0.3654788619235738,0.49353735836878343,0.6046862411102154,0.7163424011146811,0.8071168931980521,0.8206625483540595,0.7955496930496277,0.7776397985520926,0.7834484312700756,0.7711114551389873,0.7689066164267588,0.7493760619665224,0.7270420791596477,0.6966665186051944,0.6725335371788819,0.6723974059452593,0.69005961438519,0.7069687942467864,0.724695502408987,0.7438941341116827,0.7458595148925511,0.7458606894204891,0.7448887417343171,0.7311389382014912,0.7380867374446183,0.7398900645025064,0.7458283606936638,0.7458427041920981,0.740060997601879,0.7333318027636331,0.7171371097499764,0.6686357697062006,0.6119432891488481,0.6141573345060847,0.6855313832375156,0.7508876894536298,0.7645013024034739,0.7102256519208785,0.5958428025073159,0.47367364935617395,0.3616301614551638,0.2546865941606309,0.24895899775095298,0.35887922248141546,0.4601151528551828,0.5593402697554675,0.6702125644554986,0.775299194338734,0.8362944779618955,0.8190611902706326,0.7976586476674745,0.7960175888128074,0.8059074574671792,0.7965292407730864,0.7849808593322569,0.7792809049939473,0.7536353193769418,0.7787083816123319,0.7764027567818008,0.784473356473983,0.8126307124869863,0.8429059461937598,0.8615578695088786,0.8825583988332317,0.8996850686105029,0.9057109228729807,0.8955930852184597,0.9111116339084138,0.9199266675233657,0.9232439186368637,0.8672790678450228,0.777244248248965,0.7101152800727144,0.6591456139914977,0.6038802005616679,0.5690459956469929,0.5338973096698831,0.49636669088694285,0.44590080018830136,0.39629990999195686,0.38770114155493607,0.44645998834044054,0.5107680391259,0.5161814983375126,0.4438389942606933,0.3323952528390195,0.21309258351898475,0.09940717452943915,0.0,0.012503521343535162,0.10701452090104269,0.23027690379523102,0.3595104052458473,0.48354264146132087,0.5739850972133094,0.5855940551786745,0.5586734469852352,0.5738726866362289,0.6260417747567928,0.6658251641742567,0.7053655098107594,0.7206918788114907,0.7144705985557591,0.6818647311873649,0.6488658384338004,0.6465018688738913,PM
0.8795359673935048,0.8878350304177431,0.9215797301855553,0.9656126457217067,0.9999999999999998,0.9862322018406264,0.9558836431222069,0.9271233795283733,0.9036183697496398,0.9038056023962031,0.912302865160165,0.9080108464859526,0.8921926393905715,0.8509625656278528,0.7948134103377698,0.7132622852403874,0.6189215260056751,0.5237297216547199,0.43190546894698745,0.4004413919352443,0.47903499262534455,0.5637908572255099,0.6370065859835303,0.7233686607234933,0.814901647942506,0.899101988101535,0.9648037925589181,0.9522784358356018,0.9272090105201432,0.9192119347897416,0.8930982214190106,0.8856291659450111,0.9080509074186416,0.922990817882267,0.9304254061786834,0.9317737037375864,0.9229572485915238,0.9120289367067229,0.9066653641623825,0.8940077105012552,0.8827802539186671,0.8860310113401451,0.8950119653231063,0.8959072806953119,0.9109009827665415,0.9429413087591831,0.9717815874566476,0.9682241384708885,0.9388827005522244,0.9069976847858527,0.8750136523452319,0.8685287044837666,0.878395098076522,0.8868634315314419,0.8770284285938155,0.8419677265742604,0.7676295106213107,0.6823943190078603,0.58890026512321,0.5038577299922122,0.4125915026697611,0.37518849943162214,0.452801332836797,0.5375492645259212,0.6311564254812374,0.7238576076412782,0.8087406021404269,0.8968386188692545,0.95146963553314,0.9360354340678614,0.930513484416166,0.9202928224174018,0.8944920928739879,0.8802947235413081,0.8991117295367388,0.9147620077000862,0.9171760431608897,0.9143308085441875,0.9140538306996888,0.9149166913243143,0.907603402166907,0.9146697976002522,0.9045680225025878,0.9000570769282652,0.9018416749271474,0.9053095642953608,0.8997173561003582,0.8863511249816172,0.895370048790763,0.9287214262037813,0.9725940176462415,0.9959582930609165,0.9783403911531858,0.9462495013839505,0.9180703292935435,0.89570985387567,0.8939095320379014,0.9021688464596787,0.9033169680322157,0.8783312433501622,0.8230356334095721,0.7592328577351501,0.6733843700071189,0.5886994575642694,0.49517103388297534,0.4073457896772308,0.416551165156664,0.5076670294713539,0.6002297111379005,0.6852276543029914,0.7787064409878035,0.8640826754431215,0.9444866598335662,0.9576333265206418,0.9372196160072479,0.9220621611397,0.9043581382087715,0.8756657134779628,0.8829903500428127,0.8869600568444616,0.8522687755735181,0.8219124516682454,0.8113071924244586,0.8326779142858791,0.8672464681246888,0.8855503712397204,0.891584624106051,0.8546686859828545,0.7628080039255873,0.6680657139411419,0.5818520146746871,0.49104496699598643,0.3958996044733327,0.3041327133909397,0.2186223502411495,0.12519407322273146,0.04268929342869732,0.0,0.05451276575581354,0.14173791185258366,0.23408556226621524,0.3191411436753977,0.4132899244441688,0.5078374085585247,0.5934930097970967,0.6847699967684806,0.7670678476730781,0.8235544756250623,0.8515157600142544,0.8502198171960831,0.841470816905846,0.8461564819974925,0.8559869766910146,0.8921543327790313,0.9290622540719242,0.9325316061813302,0.895518341203773,0.8561462017291748,0.8367019385198382,0.834407621906833,0.8467747870002522,0.8420095871212172,0.8478349636296543,0.8497596756486938,0.859608902476672,0.8557899951724923,0.8567136483991689,0.8613903629256596,0.8679039232724215,0.8663115677380426,0.8589691073237151,0.8353438446221488,0.8288317860002874,0.8507187257395257,0.8733700773810884,0.8726410165669856,0.8587638769682095,0.7865355602386563,0.696320365243549,0.609817765199715,0.5152219580038628,0.4274786778826005,0.3383965395443911,0.2455851924685888,0.16101470746720303,0.08327116291086045,0.08443058895664102,0.16182691527736592,0.2563446616491287,0.3515440969120358,0.4458177761514812,0.5309688812477744,0.6231176401916005,0.7110481818412466,0.7829339170676952,0.824497048084673,0.8382806230632769,0.8249126150631232,0.8160646315272608,0.8231051946074659,0.8468884253405646,0.883098619774904,0.9175219008244027,0.9307824128034514,0.8971016710867865,0.8627037070253072,0.8456564997060096,0.8442599444527918,0.8436847813420203,0.8348616692123134,0.8346884343767338,0.8444065281233024,0.8606777128524505,0.870022641014123,0.8821932658655871,0.8754975230489761,0.8699083757644017,0.8713109036603892,0.8515572313412545,0.8318242651265375,0.8419358963780341,0.8694007235263685,0.8813376886304842,0.8786012411340283,0.8107834036023795,0.7250603779974278,0.6304951309783664,0.542227328887221,0.4536780872724171,0.3597229607817831,0.2747082637363454,0.18299785377438083,0.09941359866351718,0.058579387790126836,0.12467461265664781,0.20945702050210113,0.302903348368432,0.3883417490937957,0.48009145997805014,0.5687942928235965,0.6563920266291425,0.7410040186906455,0.8065158328546762,0.8491873209499861,0.8599752779989471,0.8498739385470506,0.8494896454925598,0.8662958667238227,0.8975578624822311,0.9328040806867579,0.947410749554612,0.9086776526728142,0.8665048758576541,0.8388632566443432,0.8297991442365931,PM
0.6171251940868361,0.6518891328954632,0.6812218069100524,0.6869801454031546,0.6972616587428693,0.694535238937652,0.702911538496239,0.7031437131661997,0.7025578830096526,0.6925069639357648,0.6832736823318974,0.6672830564529351,0.6899605028770779,0.7536545124101606,0.8184293121343886,0.8879673231252285,0.9547043290724329,0.9690544377955757,0.9226695368185442,0.8626145823122062,0.8102994353821629,0.7598703564996594,0.7186062394408808,0.7210345961465539,0.7061681604242152,0.7314083103057429,0.743690897112951,0.7667969394538279,0.7154223344379238,0.6020594553087273,0.5505719076876461,0.6545778190026166,0.7775139708140015,0.8371745336869427,0.783130631503572,0.7335693553216363,0.737535805976119,0.7231061390100546,0.6724341187210658,0.5904115840884052,0.5554165989763855,0.5714078832633995,0.6196602681673591,0.6654217712917792,0.6707365240214482,0.6673162020911967,0.6626312091644246,0.6558049909394841,0.6533534243876691,0.6464044570262022,0.6598996121066705,0.659358467084914,0.6680203362638686,0.7169399507458882,0.7719421683528402,0.8351463979815019,0.894057867946418,0.9070464203553534,0.8699009927164552,0.804824965224789,0.7427233214965554,0.702226998043133,0.6752444598862075,0.6674773271154004,0.6517872531722544,0.6533181452933929,0.6852866533890607,0.6912615760806835,0.671495541168496,0.5732189078045216,0.5672941502727422,0.6778924518049818,0.7633490798814924,0.7341656587573144,0.6746666314255956,0.6737209826690744,0.6769666624147952,0.6536251262657302,0.598370143070734,0.5814321266867721,0.617369317535279,0.6672444757680491,0.689217575828355,0.7028990628240983,0.7114486205281558,0.7273379553527395,0.7279968084760604,0.7279968142194289,0.7278414722283442,0.7175061887994545,0.7147200817470294,0.724798447341473,0.765105594403229,0.8385575873828763,0.9155103420979325,0.9731829741586653,1.0,0.9744310519563673,0.9144822213617516,0.8542826676925932,0.7937940858251036,0.7509471272976578,0.7296251523819377,0.7122261271817365,0.71756694521524,0.7469861132261633,0.7410746251536429,0.6513631984126169,0.5681205245291165,0.6532838717216682,0.7722854675926785,0.8405498618453491,0.7961075142640439,0.7247394247744925,0.7123183474491199,0.6842423014881476,0.6643207667471742,0.6103610207075327,0.5644893359573566,0.5569013701729864,0.4887589250088271,0.4131514131298992,0.28293178015005527,0.14254089362247768,0.0243294090187276,0.0,0.0468357994863724,0.17628619750728225,0.3165997085530421,0.43523802234649844,0.5129485051087599,0.5705587522203839,0.6017042702923892,0.6251814961255926,0.6531691571453475,0.6485242900089521,0.5325130925537573,0.43847598604178506,0.3306671708748432,0.2601155745121342,0.3271289634255816,0.44326610798873123,0.5682248095851707,0.6452202344213598,0.6518780466073455,0.6272731515845829,0.6337119559243307,0.6303141492764901,0.6552016901108564,0.7036855174997276,0.7626011839387195,0.8195044052627543,0.8783769287199581,0.9085057080160341,0.8717637357594414,0.7939554727839502,0.7160207219366317,0.6648086879537107,0.6328400682676216,0.6226193330248497,0.6266934584775576,0.6388226937654728,0.6428849226460889,0.6311108625888107,0.6557638897924383,0.6468331788283734,0.6222996346445715,0.6072026110684092,0.6001455302310665,0.5678974124534282,0.5132579429146564,0.4778072959785513,0.48181298112939297,0.5042726401485003,0.5680705709321865,0.6000740965313831,0.5960256212343347,0.5813855798632499,0.6142648031223983,0.5519989167241555,0.42945548414558576,0.3111584933048528,0.23670101109215924,0.2953222320446094,0.4051813615675104,0.5179440884853328,0.5763081424638865,0.573158860393443,0.5596199778595183,0.5777912637676392,0.5715274277478204,0.5777629222749372,0.6104770741063703,0.6537905598926512,0.71612657365994,0.784322093054544,0.8064820628621474,0.7580277227232406,0.6886206008056783,0.6369954546209069,0.5841507105463442,0.5581115575371625,0.5602233141492734,0.5468940302052778,0.5616566759399149,0.5541690257951055,0.5597785935467279,0.5776703539637809,0.5772842344858109,0.5840565003494542,0.5363451266734569,0.48515176982229535,0.4494793646711499,0.46623404386329215,0.5012419613956527,0.5841056661775545,0.6330772264101832,0.6386062725909722,0.6500133468025622,0.6680639160141091,0.6725830216134003,0.5509337007425255,0.42219515967602206,0.30782456379395073,0.2919241429517392,0.3882535064696273,0.5051691963232066,0.6159609271423374,0.6429683801292141,0.61972779713963,0.6085533412621764,0.6265319966978993,0.6230123181557454,0.6553580064720883,0.6929601135129655,0.7554112188883817,0.815686650692907,0.8702361252874002,0.8667958291280726,0.7915550514439271,0.7222632498856454,0.6630997105809096,0.6036577904361149,0.5802585983361062,0.5946204059063316,0.6150731545309922,0.6272662074063948,0.6203852672326633,0.6186046577198745,0.6119263336736456,0.6100656084153311,0.6159635181415775,0.5947851705174494,0.5554776985910643,0.4992653647685046,PM
0.7490517768570846,0.7554739446153449,0.766367952554821,0.7699054990022338,0.7836302067674161,0.8040424823562637,0.8356953154859315,0.8431076281733967,0.870842954009257,0.9127813429012583,0.9585336489991412,0.9844709452458167,0.9772835893026088,0.9165693302166047,0.8569014454477855,0.8076457264477654,0.7878969406728729,0.7874725668712892,0.7729105949436987,0.7743108068076303,0.7798535030065938,0.7781277491887288,0.7549979229222878,0.6761856236407837,0.5706426631016015,0.4704165927249302,0.4002361330327213,0.4721707093692813,0.5754548317203456,0.6749872670663848,0.7532348517020964,0.7692877818175559,0.7552908210210485,0.7376963672485224,0.700599468845875,0.6791180904418153,0.7070519720995159,0.7135414798761941,0.7289823515208158,0.7458689683583639,0.7382781134870853,0.7384492293705462,0.7469361090294977,0.7409906340782193,0.7475009036164133,0.7389902752964908,0.7499454663411842,0.7761850204232101,0.8133935002027246,0.8246385094189792,0.8248013973802371,0.8631188651906587,0.9028828957348516,0.9490875163384764,0.9530860801477385,0.9161018139151915,0.8676632561692696,0.8156108528358268,0.7863437446231956,0.7641806316273207,0.7630761163935467,0.7584518880880813,0.772396542907217,0.775067303929883,0.7549616681811453,0.6725798253686972,0.5819980435000516,0.4815436916514688,0.4185876544089213,0.4975776085954786,0.600789349323021,0.703674426822201,0.7767218968939389,0.7736813147219266,0.7788860844708858,0.7705253641579963,0.7356977620338565,0.6897943749726156,0.6822030290668981,0.7223663380486167,0.738537386607482,0.7573052872841122,0.7519265956925665,0.7400891594962657,0.7513457237881234,0.7400497787194622,0.7364653849360385,0.7225499310409891,0.7281851763014533,0.7582233169524075,0.778901829509246,0.8149801012603679,0.837307675313435,0.8585620282774973,0.89761272377952,0.9461264158537399,0.9987833550691088,0.9999999999999996,0.9513977084695568,0.8914577174905602,0.8195102493621342,0.7888510597701539,0.7720726153394057,0.7780058216442667,0.7819164565649293,0.7618772880307971,0.7777448723844178,0.784332999920546,0.7444871048887753,0.6593974859908842,0.562985777807866,0.4657766620753305,0.42427711388024836,0.5199012332836497,0.6226239216568579,0.7177436962949804,0.7701983559617918,0.7655321197186713,0.7315156356350347,0.6967643232288383,0.6708486910402414,0.5792971518332517,0.47659188940074637,0.3639140969388559,0.26331213780611407,0.15533356804997478,0.05981434476518599,0.0191750354955178,0.09468153366251775,0.20494828284313904,0.30548274233261496,0.41650884403100275,0.5157585350184135,0.6129829617567597,0.6930708218706112,0.7039431052835581,0.6994263793034308,0.7007035204447605,0.7195286678332362,0.7038153890612708,0.7164002349873106,0.7337684440891374,0.7825513562369468,0.8539397689263488,0.9106412848093433,0.9326345025274678,0.8833693887930734,0.8367749157785886,0.7985393822617608,0.7773383094390383,0.7507187156999389,0.7143626147971096,0.6837599087934678,0.6715997215910869,0.6580778357430375,0.6628229052819647,0.6704110401377501,0.6776831474416225,0.6679109575926239,0.6576038249806642,0.6503963637756409,0.6840549280894761,0.6730326057257439,0.6646221612489418,0.6292232186306723,0.6060283441760443,0.6326792193387112,0.6738281494525635,0.6982781532376454,0.6875561853146555,0.6700499375063806,0.5759497411813626,0.4750134287267329,0.3687746987427296,0.26525586680813973,0.15651790523344777,0.05712800068279211,0.0,0.061301864297853115,0.17016296802143138,0.2705477971788306,0.3785379525632293,0.47886869622844985,0.5790445093972107,0.6682141378925683,0.7018691101658705,0.6975323974991232,0.6829620691711669,0.6992510643591601,0.6942005646521663,0.7029110703728936,0.7185899486687415,0.7640713924768403,0.8161731716602851,0.8641643430620256,0.8823916612094784,0.8459207580711645,0.8028294590447613,0.7448307788642934,0.7335610966278643,0.7415717133761666,0.722557430957329,0.7057414663552017,0.6793056909595414,0.685320942452285,0.6752263495536361,0.6685108286577801,0.6691080099786713,0.6764392101525671,0.6661692435638336,0.6654535778861455,0.6690702529018959,0.6630408153721157,0.6332393354920152,0.6148697489167905,0.6153098358410838,0.6059307838521786,0.6451605292930704,0.6792648934422711,0.6811774170877012,0.6971736451933959,0.632637917523069,0.5304892556110086,0.4237931362429257,0.3202072380822538,0.21419938489906576,0.11414932305765779,0.053840518033532625,0.11574190980190657,0.22342094784137645,0.325429815117114,0.4371629926720386,0.5363234063451916,0.631937902011741,0.7010597525792415,0.7118788835819885,0.7075399850317914,0.7028689036288243,0.7176280746699897,0.719931818626975,0.7350106329731658,0.7741709209599064,0.8399930953872565,0.8862341828656484,0.905037427141985,0.8821128084652843,0.8345664142496925,0.7958750162678405,0.7723494115048912,0.7588332770195301,0.7260808157030278,0.7049758947378617,0.6935361793456112,0.6861893818288789,0.6816588287151499,PM
0.9552741583565556,0.979138609770934,0.9986769283729542,0.9923684546300411,0.9750315797828177,0.9893577300939898,1.0,0.9911932970622148,0.9886106789063644,0.9855264111466742,0.9739046991904079,0.9735068683180259,0.9603132161356598,0.9474820470199505,0.9413011025566549,0.9197901000843158,0.8859531972056551,0.8274934943347425,0.7545659468069621,0.6987829748761598,0.7292259743263516,0.7898381979105142,0.8597017098653037,0.9001145256869902,0.9395668886264401,0.9472606445509495,0.941106062048533,0.9210838757825695,0.8956625984726152,0.8165255017937847,0.6790489745790014,0.5346104925308861,0.43614903465842225,0.5068711242855919,0.6332767697398403,0.7554067239390116,0.8389139903552012,0.841805756354927,0.7952461650697353,0.7471777065768226,0.6916099519371741,0.7188345508961822,0.7575055479047581,0.7856386025431421,0.7875716249241274,0.769222677762901,0.7622142461756898,0.765276192095067,0.7855579680133289,0.7886181624740098,0.7890583350358318,0.8018029890749929,0.7920584127454564,0.7880802111280794,0.7719247280709185,0.7477685768526223,0.6835525098009922,0.607199828355415,0.5740244579850797,0.6174279764488046,0.6792353794026988,0.7275368706547765,0.7596385077854118,0.7741614149385834,0.8026352180096374,0.8146898734332133,0.8015707026952752,0.7469829209220009,0.6347051258880994,0.5113270638746208,0.39332774731057407,0.43266900852353496,0.5629067324105153,0.7094366893143143,0.8336020860401154,0.9105058727238493,0.923722252447714,0.9219245592243093,0.8623544455952885,0.843029585477681,0.8615917622510061,0.873796480444117,0.8831750348949381,0.8684676883034976,0.8679628529548626,0.8680484363004588,0.8775920888965372,0.8982197571923507,0.9073875758826153,0.9120796338080703,0.9207856758214978,0.9208532816327981,0.9177505054817621,0.8848272811955287,0.8311022271367072,0.7416475493521926,0.6768953269198033,0.6750998927766068,0.7467879990166431,0.8049760254873544,0.8561183446945106,0.8913449752302522,0.8820456670637622,0.8864717210704516,0.884156299914368,0.8392903616013179,0.7661545939080794,0.6779904674365067,0.5843728612210652,0.45504054307509456,0.35263064770629526,0.43192525390889047,0.5727091370710395,0.6998466928324945,0.8247930857308612,0.9065401365427403,0.9017324460188743,0.8696293236678709,0.7918583197328601,0.77880432942049,0.8022336553087763,0.7897630160969218,0.7454153728753417,0.7042451533241829,0.6803223088299175,0.7078496549939128,0.7833238230710027,0.8252812035882702,0.7627650898562637,0.6236978448202724,0.4961296808780462,0.35835914044379935,0.2287647029825859,0.09471504364473393,0.0,0.03572264685660986,0.1548932203709552,0.2812721175802033,0.4224626530111486,0.5490547481967818,0.6704321017956278,0.750295584127783,0.7968993860328402,0.8049678573758206,0.8160285969371959,0.7733367320625568,0.732023003752019,0.6729900415388395,0.6127242543852098,0.5732836399646937,0.600296656818549,0.6671051933036241,0.7425376001314641,0.8030803508856001,0.830239690745433,0.8366317732882722,0.8456314559121187,0.8263966699875542,0.8129672506990726,0.8085931246176896,0.8001041038048449,0.782106297138057,0.7996941020399158,0.7895133576625835,0.7934750409500868,0.8040508473693668,0.7901424969830613,0.7734823816628849,0.7546031510264912,0.7879440925785204,0.8281602398654293,0.7876839982835326,0.6690763069545502,0.5418054499945697,0.4010466495249352,0.2736253542195768,0.14564759613233225,0.05653643968230204,0.09901061369412112,0.18836811199410963,0.3131168843126222,0.44888899712813135,0.5760435442170504,0.6901530955572239,0.7427443519259453,0.7348008007735407,0.704052699788341,0.6945512641944473,0.6589837014072115,0.6035445813791691,0.5359137470099169,0.4906823728518255,0.5013259235151786,0.5531396900578764,0.6351891469571322,0.6938747933143823,0.7009455507597693,0.7031832552046575,0.7140321311804083,0.7249248401005071,0.7152955783612125,0.6992502403957488,0.6986994713901842,0.6960195192097896,0.6785213901248968,0.6991284914154434,0.7217949220099547,0.7026478173247792,0.663707891757606,0.6126329473532932,0.5954082375293455,0.6372061229469157,0.7110537111721431,0.7351104288499393,0.6606695096868149,0.530378932220831,0.40299426448339437,0.2747367653952262,0.1510231571176961,0.10954473760170558,0.20997488241458795,0.3392750867183656,0.46638518428725817,0.6047947709126777,0.721821343651678,0.8050048360049944,0.8514502929252572,0.8587225857896481,0.8672402475515861,0.858958570086652,0.8159723172290576,0.8049296215721284,0.741188335815055,0.672140656697974,0.6222672061846772,0.6076032087694125,0.6603124923285755,0.7264695336439493,0.7944945821790412,0.8386660710178653,0.8570551075285415,0.863695043687513,0.8685438632207987,0.8955248745187641,0.9100353152233192,0.9102727076759383,0.907159337273761,0.8968531825717507,0.9097982450368045,0.9102780199643101,0.9104371403630278,0.921825388219399,0.9280402890830981,0.8997773994006808,0.8669010431741571,PM
0.6753905474332353,0.6855973075378912,0.6796152828223234,0.7018025565458195,0.7223681852595916,0.7234733121152348,0.7162010942017605,0.7000016310363404,0.6993261342265558,0.6986133504484546,0.6829863050885705,0.6904987053525242,0.7058765254835753,0.7179919103508907,0.6999821279503728,0.6855043776038658,0.6949457554375242,0.6789878448017901,0.6915053625343339,0.6992730966254883,0.6989854736640635,0.6847688451478153,0.661573438912753,0.6670340351156163,0.6563341817321384,0.6509624666944762,0.6509464794563158,0.6509464794563145,0.650946477286396,0.6504844451513141,0.6353105104557533,0.6277955074702888,0.6435437227694378,0.6305561490964484,0.6105727483191963,0.6055201437550171,0.6269536636211468,0.6393289446453458,0.6485995369229589,0.6429138142034785,0.6274826150982493,0.6409902744065854,0.6596484780413054,0.6461810052945478,0.6210266272769358,0.6272942907583623,0.6699082054584369,0.7262953151271732,0.8029524496634273,0.8653860723093545,0.921607696572027,0.9756637777541495,0.9999999999999996,0.9857792391509004,0.9411526504967838,0.8804909250011419,0.8361234673245623,0.812129417263836,0.7389944784455698,0.6307720646715511,0.5329626030925922,0.42780446781866077,0.34828564493308045,0.40481797494914273,0.4954707841912831,0.569207623641097,0.6259352231405293,0.6716778187734747,0.6756245257344564,0.690618766708671,0.6945669323027421,0.6766329244389397,0.6751370131492198,0.6753081213996333,0.6869146174483434,0.691388191534577,0.6628896661579349,0.6744686318944009,0.6702441418163096,0.6690755469799186,0.6750972673238413,0.6753714529486361,0.6925078628950829,0.7069212413289816,0.6993882410677545,0.698013715149759,0.6794115165698318,0.6603836138570647,0.6622553125352413,0.6413110541131815,0.6448652099052965,0.6340605082347084,0.6104199891202033,0.6030343396311424,0.617675361565877,0.63855344483899,0.6617600514363979,0.6578897536454167,0.6605291906748771,0.6289709787721045,0.6042270201455646,0.6160065617536858,0.6695340239724956,0.7419590433207852,0.809212700878422,0.8835100771532951,0.9496751975660076,0.9876235111789771,0.9784465114791341,0.9339161129903011,0.8820951389959446,0.8321251093979796,0.8186415075866678,0.775527747549178,0.689828317930838,0.5926053723811164,0.493709890226409,0.39308772178250306,0.42028527469115584,0.516580572275454,0.5709559795783012,0.620690614706485,0.6479190300550655,0.6213312871049386,0.5794753905204328,0.560615652795867,0.5144554284565168,0.4681746566563616,0.378154124994726,0.27083708161694453,0.1674637297639574,0.054833744404684026,0.0,0.056744295841572256,0.15735985860659962,0.2723702163835724,0.376594370896183,0.48728837990240725,0.5847678268525458,0.674426981208895,0.7330532612747942,0.7608683075055978,0.8066828373480504,0.8610050363090545,0.9050452363482031,0.9100794986715779,0.8477192458630429,0.7690128886068384,0.6985613235450141,0.625819051859466,0.5648321761340869,0.5443994811193078,0.5313216847232196,0.5460570406382428,0.5837197741881077,0.5792372977586551,0.5776064266076801,0.5529854242408692,0.5407635779152096,0.5225987795813491,0.5341066249652138,0.5497578638521086,0.5675204491611523,0.5742885531145601,0.5917900453612401,0.5940349004647687,0.6117024381154965,0.6170652246700503,0.6162823083197781,0.5992865621589587,0.5929153724010003,0.5928907609331051,0.5930335873317012,0.6038077715557488,0.602642895613402,0.593164086185781,0.603481197261452,0.6021195534677029,0.6092109704100142,0.5937608016150926,0.5825447484933766,0.5859828535785252,0.613856506299904,0.5976844832034369,0.5886066765771378,0.5390810542005395,0.46480204815095005,0.3760644530941444,0.27121530578722597,0.1720624910222659,0.07553874009941675,0.02418688303020078,0.08237490525457547,0.18344539936032866,0.3041772766772417,0.42478223205359633,0.5257260857426598,0.6222687093885431,0.7186776685581493,0.7645116212179697,0.7991779400252663,0.8522741821569437,0.8974702478883798,0.9105651275814544,0.8647470426595674,0.8055468947593316,0.741640147569393,0.6806002958439126,0.617383764041235,0.5682747720821779,0.5455046111225772,0.5528475954599616,0.5681557859812809,0.5650481541762291,0.5468953279294131,0.5630265127928871,0.5839565974816181,0.5618301585528407,0.5445221335214994,0.5277580923304046,0.5263503665390954,0.557906949282851,0.5686134052068357,0.5687008782151772,0.5687242657978699,0.5748313683925277,0.5832443034660542,0.5755654976687112,0.5920992561122658,0.5928907609331655,0.5928879755386407,0.5902477733708515,0.5788439152984513,0.604001077388983,0.6208975760808113,0.6390478142742344,0.6262331779820483,0.6171614300487756,0.6170826011407335,0.6191993938020395,0.6376741382724167,0.6379148941677246,0.6287334700683096,0.6189805966790014,0.6195280210446277,0.6381061146399554,0.6335999024110706,0.6187873958943682,0.6354721060762651,0.641041640232701,0.6312687961393162,0.6302739157855166,0.6044629009944802,0.5930226099260634,0.5928907609332001,PM
0.8379122973275002,0.8419723049490533,0.8342257531781185,0.8249328064820931,0.8316124635934679,0.8397883405117774,0.8703190552180935,0.9037723054366991,0.898621168719175,0.864340598031176,0.8326980932249093,0.8118069314022529,0.8115478902620836,0.8235364936225698,0.838126557159454,0.851034609127046,0.8847066824563523,0.8989717108727353,0.8338356231459523,0.7334562399991262,0.6315131273066954,0.5392789951001586,0.5058906597864614,0.5916432012860913,0.6880317404746039,0.7709227257067419,0.8395705131253846,0.9232053140682908,0.9899331523957837,0.9708797732503274,0.8967059602189957,0.8558482872881927,0.8392227498336013,0.8119765331744686,0.7861890509881482,0.8117887513747393,0.8326011957844162,0.8392202329201894,0.8393108265502449,0.8393706520802451,0.845029628855233,0.853536493850553,0.8505103366714848,0.8408428255710114,0.834389317729503,0.8464730271759047,0.879265745871638,0.9095944184227491,0.9014334961219035,0.8625636356889173,0.8307529582580471,0.8120286061172979,0.8173211155875069,0.824467199624475,0.8354534573224917,0.8542813686192816,0.8902651294282609,0.8580366502071102,0.7733512396704336,0.6757672911981087,0.6009846198230928,0.5338920815825103,0.5727125633809727,0.6671757973818426,0.7584073077747457,0.8567368500292605,0.948876150503672,1.0,0.9620987966730867,0.8883627487719372,0.8547844218760519,0.8353923983420031,0.8007183976653662,0.7895486511792233,0.8262876762188314,0.8582400970891291,0.8622673943790398,0.8549143210112415,0.8547438832552707,0.8548929100540517,0.8614663112380851,0.852371080387607,0.8495042514899254,0.8363703536421494,0.8224216237461497,0.8159248818056892,0.8252943353088398,0.8599612187539445,0.8980952734576584,0.9086659011588205,0.8820331719618868,0.85397451103964,0.833815402420885,0.832403475816633,0.8292315587204393,0.8366066512124166,0.8347893227769876,0.8458489088211385,0.8393118610151715,0.7652811852990546,0.6734673783608045,0.5770634662191445,0.4757559737396795,0.42573646861494874,0.5069255539506612,0.6042996027716141,0.6960769220335425,0.7880676612152042,0.8724923820805954,0.9435328639967837,0.9392446160359533,0.8709508339869054,0.8399262529911367,0.826441438125662,0.7843841537726353,0.7778590754588883,0.8006159011635012,0.8214776503084837,0.8041247256461177,0.7778937097438838,0.7703538266443952,0.7448301294833559,0.7205242747389624,0.7241755194170407,0.769990322440087,0.7932351839245917,0.803795649064659,0.8370159671932513,0.8061308565993266,0.7198207130548853,0.6234995098833442,0.5328225582380726,0.4335246656206704,0.3408446834958916,0.24410939994404335,0.14612612429620975,0.05607770222957775,0.0,0.056306436441196483,0.14941938942210342,0.2513130133385699,0.3471273368022443,0.4406759944153209,0.5421695198085126,0.634439757495048,0.7294942347535365,0.7836916826604607,0.7867459993360288,0.7804243591070237,0.7720751727632802,0.7816008067424085,0.7978519488882916,0.8235397813032765,0.8524503142062811,0.8427840554988011,0.7990695376628993,0.7730839909509561,0.7660420128962859,0.7746894520562582,0.7902607578382259,0.7934100179128327,0.7945345205429746,0.8018975748689097,0.8052522036228238,0.8097781660223138,0.8139118138207047,0.8127242348338584,0.8048998269065435,0.7705584679758575,0.7373985637936764,0.7331922859029523,0.7666720832823741,0.7999180601087472,0.8099083414905826,0.8362656411512375,0.8691579393088351,0.8080568541605495,0.7166060272064003,0.6231135344810381,0.5300239949117014,0.45745295789934426,0.36283316071333527,0.2606619827953187,0.15857347418548007,0.06793010346061767,0.04713286339816736,0.12314164172373232,0.21521704214322135,0.3120921578442095,0.41318176353262803,0.4936148371394795,0.574091365191356,0.6745799475180867,0.7693336771997461,0.8067925301000849,0.7951277587428538,0.778612996260541,0.7709862835141275,0.7660142151509586,0.7729825952048985,0.78958210803901,0.8162461153699185,0.8524418252814434,0.844015217996692,0.809007797967789,0.7884192461129387,0.791533275823912,0.7945878780510003,0.8018034738475941,0.7945718574366971,0.7923723598417132,0.7955697708989642,0.7878125213527163,0.7865790605068899,0.7769590414206644,0.7522421437028992,0.734171823689648,0.7530845835135898,0.7908663477801183,0.8090644976873747,0.8181939442056332,0.8638617412063994,0.8303202434177539,0.7437762242553325,0.6487617901690901,0.5563538442311278,0.4548545416148402,0.36146092917889217,0.26581540947176663,0.17308083909740746,0.0904834352263959,0.09677673456051772,0.18100369885068934,0.28208709029466306,0.3834652350695218,0.47477358019196325,0.5733341325388084,0.6751800270480688,0.7669426858751551,0.8166515540191228,0.7987306035691817,0.7857258463474617,0.7736712916248143,0.7714117983221542,0.7725662900628758,0.7935109317322322,0.8263322106140567,0.8510908329821958,0.8322898015736633,0.7994792345910655,0.7837753412691919,0.779239733674097,0.7814888082818285,0.7867530141847272,0.786838433752961,PM
0.9552741583565556,0.979138609770934,0.9986769283729542,0.9923684546300411,0.9750315797828177,0.9893577300939898,1.0,0.9911932970622148,0.9886106789063644,0.9855264111466742,0.9739046991904079,0.9735068683180259,0.9603132161356598,0.9474820470199505,0.9413011025566549,0.9197901000843158,0.8859531972056551,0.8274934943347425,0.7545659468069621,0.6987829748761598,0.7292259743263516,0.7898381979105142,0.8597017098653037,0.9001145256869902,0.9395668886264401,0.9472606445509495,0.941106062048533,0.9210838757825695,0.8956625984726152,0.8165255017937847,0.6790489745790014,0.5346104925308861,0.43614903465842225,0.5068711242855919,0.6332767697398403,0.7554067239390116,0.8389139903552012,0.841805756354927,0.7952461650697353,0.7471777065768226,0.6916099519371741,0.7188345508961822,0.7575055479047581,0.7856386025431421,0.7875716249241274,0.769222677762901,0.7622142461756898,0.765276192095067,0.7855579680133289,0.7886181624740098,0.7890583350358318,0.8018029890749929,0.7920584127454564,0.7880802111280794,0.7719247280709185,0.7477685768526223,0.6835525098009922,0.607199828355415,0.5740244579850797,0.6174279764488046,0.6792353794026988,0.7275368706547765,0.7596385077854118,0.7741614149385834,0.8026352180096374,0.8146898734332133,0.8015707026952752,0.7469829209220009,0.6347051258880994,0.5113270638746208,0.39332774731057407,0.43266900852353496,0.5629067324105153,0.7094366893143143,0.8336020860401154,0.9105058727238493,0.923722252447714,0.9219245592243093,0.8623544455952885,0.843029585477681,0.8615917622510061,0.873796480444117,0.8831750348949381,0.8684676883034976,0.8679628529548626,0.8680484363004588,0.8775920888965372,0.8982197571923507,0.9073875758826153,0.9120796338080703,0.9207856758214978,0.9208532816327981,0.9177505054817621,0.8848272811955287,0.8311022271367072,0.7416475493521926,0.6768953269198033,0.6750998927766068,0.7467879990166431,0.8049760254873544,0.8561183446945106,0.8913449752302522,0.8820456670637622,0.8864717210704516,0.884156299914368,0.8392903616013179,0.7661545939080794,0.6779904674365067,0.5843728612210652,0.45504054307509456,0.35263064770629526,0.43192525390889047,0.5727091370710395,0.6998466928324945,0.8247930857308612,0.9065401365427403,0.9017324460188743,0.8696293236678709,0.7918583197328601,0.77880432942049,0.8022336553087763,0.7897630160969218,0.7454153728753417,0.7042451533241829,0.6803223088299175,0.7078496549939128,0.7833238230710027,0.8252812035882702,0.7627650898562637,0.6236978448202724,0.4961296808780462,0.35835914044379935,0.2287647029825859,0.09471504364473393,0.0,0.03572264685660986,0.1548932203709552,0.2812721175802033,0.4224626530111486,0.5490547481967818,0.6704321017956278,0.750295584127783,0.7968993860328402,0.8049678573758206,0.8160285969371959,0.7733367320625568,0.732023003752019,0.6729900415388395,0.6127242543852098,0.5732836399646937,0.600296656818549,0.6671051933036241,0.7425376001314641,0.8030803508856001,0.830239690745433,0.8366317732882722,0.8456314559121187,0.8263966699875542,0.8129672506990726,0.8085931246176896,0.8001041038048449,0.782106297138057,0.7996941020399158,0.7895133576625835,0.7934750409500868,0.8040508473693668,0.7901424969830613,0.7734823816628849,0.7546031510264912,0.7879440925785204,0.8281602398654293,0.7876839982835326,0.6690763069545502,0.5418054499945697,0.4010466495249352,0.2736253542195768,0.14564759613233225,0.05653643968230204,0.09901061369412112,0.18836811199410963,0.3131168843126222,0.44888899712813135,0.5760435442170504,0.6901530955572239,0.7427443519259453,0.7348008007735407,0.704052699788341,0.6945512641944473,0.6589837014072115,0.6035445813791691,0.5359137470099169,0.4906823728518255,0.5013259235151786,0.5531396900578764,0.6351891469571322,0.6938747933143823,0.7009455507597693,0.7031832552046575,0.7140321311804083,0.7249248401005071,0.7152955783612125,0.6992502403957488,0.6986994713901842,0.6960195192097896,0.6785213901248968,0.6991284914154434,0.7217949220099547,0.7026478173247792,0.663707891757606,0.6126329473532932,0.5954082375293455,0.6372061229469157,0.7110537111721431,0.7351104288499393,0.6606695096868149,0.530378932220831,0.40299426448339437,0.2747367653952262,0.1510231571176961,0.10954473760170558,0.20997488241458795,0.3392750867183656,0.46638518428725817,0.6047947709126777,0.721821343651678,0.8050048360049944,0.8514502929252572,0.8587225857896481,0.8672402475515861,0.858958570086652,0.8159723172290576,0.8049296215721284,0.741188335815055,0.672140656697974,0.6222672061846772,0.6076032087694125,0.6603124923285755,0.7264695336439493,0.7944945821790412,0.8386660710178653,0.8570551075285415,0.863695043687513,0.8685438632207987,0.8955248745187641,0.9100353152233192,0.9102727076759383,0.907159337273761,0.8968531825717507,0.9097982450368045,0.9102780199643101,0.9104371403630278,0.921825388219399,0.9280402890830981,0.8997773994006808,0.8669010431741571,PM
0.8034429447796922,0.8248387286316925,0.8552053641500432,0.8709284863211826,0.8646931039972587,0.8330644577637107,0.7652278205993426,0.7224656612161331,0.7277358210310947,0.7613359466925944,0.7944148755400553,0.7834853769694607,0.7926771982354106,0.7104985500006666,0.5688142519403039,0.4452188363459486,0.502625992448297,0.6063044102224762,0.6677548442856116,0.7343409326593928,0.7472108496358345,0.7698338320856495,0.7739343696030199,0.7936519913127862,0.8071871079145145,0.8103483514241328,0.784924171107563,0.7692446253860945,0.8090500235026079,0.8305423067443343,0.8004545480561944,0.7622566308165917,0.7542072477460113,0.733524179065661,0.7433943207962628,0.7436612211891953,0.7557344800066499,0.774253815542977,0.8180642530705651,0.8445501211690498,0.7525679240751479,0.6155106952198315,0.5975182159675523,0.7121043492183459,0.8060480386358346,0.9064929333485185,0.9720865939500216,0.9913347703014024,0.9960330065181004,0.9798306518032094,0.9865561734093742,1.0,0.9745575496616938,0.9548832419147635,0.9675798934107469,0.9561726259367935,0.9681809797284844,0.9549684847918343,0.9471415827413914,0.9203902214674722,0.8936984843260829,0.8909825964927345,0.9002747270634792,0.9138978901114285,0.941645260260521,0.9764720452651767,0.9652816029666402,0.868935117251378,0.725914046194915,0.6718373318503179,0.7665806094994068,0.8463664727434175,0.8934540048489383,0.9173131228705325,0.9189231883701678,0.8931467769839454,0.8884358338237108,0.8786404855501715,0.8839569767781414,0.8804657980240904,0.8946737761720076,0.9098927026034049,0.9005758422204284,0.8968969980672314,0.8466435437218651,0.8545445577376309,0.8860876668224398,0.8608506128700988,0.8070980764299982,0.7975533265637864,0.85883417175266,0.9237146571183885,0.9321056534761816,0.8588458340621647,0.7645780958651036,0.6791091960347835,0.6019688654110746,0.5909637034540047,0.5758344481021398,0.5848128385963323,0.6170023756724694,0.6558903789396711,0.6379378225082544,0.5205904108891248,0.42637412805238295,0.5018411247133105,0.532305597450156,0.5860742444629699,0.603355665965033,0.6429666506882317,0.6538404591895963,0.6434317555814575,0.6334679003343764,0.6192039489410632,0.616419447437174,0.5593899822564428,0.4645352837655423,0.30583247660226753,0.14038214012193517,0.014868230054142728,0.0,0.07235898363611071,0.23128938857929082,0.3916625173651527,0.482808059972208,0.5236550847274808,0.545035987795301,0.5349881383551409,0.47843882999955145,0.48209661458388187,0.4097256324538723,0.3270346032180589,0.2016533184336966,0.061408904851893986,0.01394253767121345,0.1177459671121408,0.2557716032463224,0.39496564692994873,0.4943309151673816,0.5168235032229642,0.4803844469999099,0.46321447497842616,0.45312523192500986,0.49571811801794485,0.5597568054932092,0.6408833979952968,0.7334141024019036,0.8172993625412426,0.8044940922345472,0.7263141911646045,0.6852342358142431,0.7072272717724433,0.7539234663522221,0.7785318896767501,0.751002402503171,0.7438798810445215,0.760809747196566,0.8028284015083411,0.798894754062057,0.8037786989967719,0.7940051682468265,0.7789613256594059,0.7738266549143376,0.7527045978751401,0.7989622030983732,0.796957885506071,0.8287946372006703,0.8262775001355767,0.8017198436820063,0.747763858614217,0.6499600943011101,0.5095319980999413,0.366408283682115,0.24382542669231633,0.24474294765668692,0.3594318085142465,0.5035523334674616,0.6465684635377329,0.7955768338818379,0.8659329086461964,0.8286407310151214,0.7947951959682493,0.7910223483806513,0.8055501096075899,0.8012171118900824,0.8253130171484706,0.8340930071206882,0.8472926554074567,0.8347851463842257,0.8297734629378448,0.8528059208875352,0.8613141958596158,0.835474517324057,0.8589419008436661,0.8604756223577636,0.8606641416973408,0.863830197077136,0.880830717552584,0.898743133774822,0.8601384362547764,0.8366399690634889,0.7307627715345806,0.6280742894422833,0.5007144006590281,0.35636737488667336,0.21991754394979157,0.20102880372742682,0.31746791474406866,0.4526058095253642,0.5937248396823644,0.694482762829149,0.662254463761152,0.6533018567206028,0.6213779234606758,0.6236593676070497,0.6491318303468283,0.6431283970475006,0.6000482859988603,0.5860968568419382,0.6567587657594567,0.6859567850948052,0.7107088023800587,0.7103201187819206,0.666586908070169,0.6820145920216643,0.6995553725862411,0.6833153798928526,0.7082853863007887,0.677961603503002,0.6722228908160428,0.654449324485535,0.6392579091011497,0.593021780525266,0.5154845724686359,0.4049382649557618,0.2491463208699285,0.10953163941284316,0.042696623162657765,0.1303485695390414,0.27196859198050394,0.4323284461961894,0.5702937996586313,0.6496145808873992,0.6761355119931283,0.6707040953665189,0.642123667151667,0.6118054384900322,0.6076911723212737,0.6679473855631848,0.7251143027811899,0.7686891980574666,0.7608125430542332,0.7429713403456892,0.7245100000537636,0.689746962474568,PM
