0,1,2,3,4,5,6,7,8,9,10,11,12,13,14,15,16,17,18,19,20,21,22,23,24,25,26,27,28,29,30,31,32,33,34,35,36,37,38,39,40,41,42,43,44,45,46,47,48,49,50,51,52,53,54,55,56,57,58,59,60,61,62,63,64,65,66,67,68,69,70,71,72,73,74,75,76,77,78,79,80,81,82,83,84,85,86,87,88,89,90,91,92,93,94,95,96,97,98,99,100,101,102,103,104,105,106,107,108,109,110,111,112,113,114,115,116,117,118,119,120,121,122,123,124,125,126,127,128,129,130,131,132,133,134,135,136,137,138,139,140,141,142,143,144,145,146,147,148,149,150,151,152,153,154,155,156,157,158,159,160,161,162,163,164,165,166,167,168,169,170,171,172,173,174,175,176,177,178,179,180,181,182,183,184,185,186,187,188,189,190,191,192,193,194,195,196,197,198,199,200,201,202,203,204,205,206,207,208,209,210,211,212,213,214,215,216,217,218,219,220,221,222,223,224,225,226,227,228,229,230,231,232,233,234,235,236,237,238,239,240,241,242,243,244,245,246,247,248,249,250,251,252,253,254,Target
1.0,0.9702865278875564,0.9405789704443214,0.8286529066319769,0.7236577928051001,0.7476597074137356,0.653993254786703,0.5436530822450577,0.7259616794320246,0.7912061921440304,0.7409817570896454,0.7874053156488933,0.8079727094816184,0.7528792855247485,0.5523121562881775,0.36104498593825984,0.27941306931220955,0.30384637824895955,0.1888182271323905,0.13624204513604554,0.3364101142309128,0.3809650750991077,0.469934625873209,0.6876253197151337,0.8742970461417036,0.9155952068208292,0.8690490417587421,0.8159959362209065,0.6799058870895679,0.6729367885505085,0.7496365372815875,0.6479480827563583,0.6946487590778235,0.8080502158587396,0.7291853353656513,0.7285359937273427,0.7358218092318897,0.7468582137398868,0.7105729668398993,0.609300783086313,0.6367592959233933,0.593444338263171,0.4382716586940558,0.5489883005290216,0.680705595166435,0.6216638536403803,0.6409933705222742,0.637630679701792,0.6634516978602104,0.6406450154514719,0.5942821869938496,0.6465954659628176,0.5634498678444605,0.5042663378716469,0.6870231518979703,0.679938602151163,0.6661193599959087,0.7235651334398373,0.7135835698127703,0.7101517655255977,0.6330983084023573,0.5858264680052246,0.6018167718891655,0.47091601506740643,0.44663978987290665,0.5589295301542355,0.6707930545373614,0.6851117820657436,0.6824519203123746,0.6590289238890811,0.5987454383117053,0.603699252165749,0.40479177079916595,0.3848653731692273,0.570333411120635,0.5966315732917779,0.5501635724122668,0.6272687377542671,0.620637231423023,0.6087968110369885,0.583836618176878,0.5902965107815518,0.5210269285858374,0.30138055760667337,0.3582346010492181,0.5623020004125671,0.5955400152819569,0.568347790714642,0.6871622796454769,0.7133322667157579,0.710829677838669,0.6914604420392046,0.6975626819996547,0.7040653892580125,0.4856432192272707,0.4324713125736058,0.6421941656847155,0.697669805346134,0.6156297443867665,0.6748993671376095,0.8049044859448221,0.8501977153176864,0.8750132333393011,0.7483921296087134,0.5272991349466637,0.3527379079696573,0.3106818765034415,0.12492794377302707,0.0,0.17735928696176673,0.2716754597863964,0.24615462434331548,0.35395722766025006,0.5417858487047346,0.7329603128289895,0.7796718078998185,0.7492638347974715,0.6921245147291987,0.7278995682810862,0.5819140523247585,0.38230133580504977,0.499616292813987,0.6916137491499578,0.6982245082261872,0.7140199532633315,0.854114426953437,0.9294301687424201,0.936965595739525,0.9225514719406268,0.7382261420925428,0.6333525201646101,0.7063419126961249,0.6076953529701689,0.4151223805502735,0.3999310316675496,0.33969721762478866,0.353488825388525,0.4643006532211237,0.5118371624752319,0.5604348417461605,0.5642026211874608,0.5932067688550345,0.4227228150489333,0.26633808253263946,0.4308213479105347,0.5782803656140106,0.529466480200461,0.5292778169201645,0.6310589577876499,0.6445649252848463,0.6517115930306617,0.6122080852926682,0.6346805960413547,0.48761446721497903,0.2987633974241335,0.4279214930486155,0.6018251388280002,0.5915632718690255,0.5879860259912576,0.6740557600751914,0.6716714435778507,0.6686370073705886,0.6298684275842384,0.6459809530660062,0.4805179889735901,0.3161541298365774,0.4695434096790846,0.5959171504956594,0.5421792159663644,0.5589555622838592,0.6260246787487024,0.6356110142899699,0.6291537695150536,0.618196785834951,0.6031679957158728,0.3780135749793767,0.33801665621894716,0.544405724772325,0.6034052377175078,0.5272136155744523,0.5929053506442689,0.6483159755907465,0.6461206562759566,0.6426890369624708,0.6446958080480657,0.6545259596776741,0.44081515206745625,0.34938307299011795,0.5493304201699619,0.654358811515306,0.5846020164226341,0.6161504882354144,0.6982883661447375,0.6835078641371616,0.6151412064837881,0.6802381036066739,0.6477822605589189,0.47349518961312265,0.5469237880234677,0.7372282831798108,0.6988454717542311,0.6754294813094291,0.6746445809672544,0.6760263132638492,0.6364166401639216,0.5697184896843103,0.6371158230088351,0.5850626168016474,0.47010797369211044,0.6392119541220155,0.7076987159472569,0.6501149029793928,0.6722638935411215,0.6603555692558815,0.6424166974001305,0.5651917737212558,0.6078390949902771,0.6084016627483754,0.4810368523457439,0.603435688712488,0.7193717815946518,0.6723924046203357,0.6975512411052983,0.699473086950423,0.7045383644335871,0.6260241358780677,0.6318589831647051,0.626655548034898,0.47355515136689197,0.535648394224045,0.7072876413077019,0.6672635866372961,0.676133999028386,0.6780102814688375,0.6700326164455553,0.6274236081759527,0.5456203984890936,0.6067552411776188,0.5653763738769503,0.4231922119787366,0.5481649308899316,0.6703308212330473,0.6096848717596807,0.6038331500596873,0.5521938084733505,0.5096704067945285,0.41969655829911845,0.3683228298617274,0.43199721528574264,0.4821327687048914,0.6669453667469872,0.8042507725733864,0.7069785197954966,0.72394337383471,0.9109488331660535,PM
0.9566703000545661,0.6425345527004674,0.3243348461277381,0.2559976606027786,0.2631037960354802,0.2769875625237629,0.26300713483424076,0.14008695538209948,0.18414450165217622,0.33550229110330243,0.6230540281584366,0.9308881526891536,0.9545417474207322,0.6455338301995069,0.3342769595303553,0.26254712561303195,0.26994157710097066,0.2752902518267538,0.2739010957172091,0.16018495435675606,0.17265406596153154,0.3062683788989816,0.5794070639230321,0.9047763956468576,0.9724511193503539,0.6764636231877083,0.34875116123532124,0.25437829367312614,0.26308617279094737,0.266678821354671,0.238973161174037,0.1085175639709155,0.166032526985059,0.3193800811625406,0.6171903244464959,0.9241505837657432,0.9064259909833309,0.5965597109393806,0.28200426501578846,0.20374047635953485,0.18530191563574683,0.18186664455434054,0.17676913873587685,0.07673345772730311,0.08289053444764682,0.21848516967686316,0.48339082951551704,0.818640463726981,0.9796052336662667,0.7327599279303879,0.4053122194761839,0.32343466261830656,0.39216289600903387,0.3526005544803802,0.3339623564782682,0.24861131839235162,0.13526163793561619,0.23307305729469185,0.43249661646604143,0.7594167595498443,0.9999999999999999,0.8325621392025061,0.5015930707431441,0.25813303949116617,0.25464546469274396,0.26500672152259874,0.29398776210885236,0.2480958735718427,0.12780098314647592,0.21983820617141892,0.4083917765182884,0.7296338306955067,0.998921841398369,0.8796356554604096,0.5413831911662991,0.2763265392522255,0.2659203970576721,0.26623192778066584,0.27112851941822813,0.24868601911517307,0.23142169876062824,0.2262304722333478,0.18047628167740626,0.2986761435257882,0.6150368588772402,0.8996000551484126,0.7924474355416712,0.46618890099433397,0.23299492568321944,0.09705723461558424,0.13309577062111777,0.24951162339995447,0.24619491329847365,0.2191857007916168,0.18459650830048469,0.24105464111607156,0.5599510895077288,0.8597970466664847,0.7838699097810841,0.4617153235366803,0.23201732686222687,0.10515798414221667,0.142171756925619,0.2781674520102174,0.3042239766931397,0.339408865927484,0.29796126427929337,0.23357294294470765,0.49327795073450875,0.8175386955144007,0.8308950515111092,0.5177262591864898,0.22479422591477205,0.06935033155408332,0.0,0.11906471460347967,0.1444150867203604,0.14400502490087697,0.16023988982618687,0.1534907501743753,0.41251628956894015,0.7532843050796348,0.8753124074674031,0.5992647250447082,0.2977319521950844,0.14131315203124217,0.047152380085709544,0.1752371077485334,0.22973613472973253,0.22240296500560264,0.2244309824831533,0.19230715211021587,0.40139689886554086,0.7438926621601599,0.9147882219727282,0.6661702441453169,0.35468090836264043,0.17703128289463443,0.08715057813234639,0.20411568321035933,0.2409027890490859,0.2273922794472275,0.2150135508997283,0.19974381987265433,0.47735905390767785,0.811403147026761,0.8840697725286039,0.5888577294944016,0.3025525184579031,0.15826913252213803,0.07603470565856452,0.20279334740150146,0.2385985197083208,0.2201268496898875,0.2096836491191102,0.1803595448111165,0.4370684439790925,0.7765151372786839,0.8806460251346949,0.5964413793239526,0.30413139394928546,0.1440123969324183,0.06950585126153508,0.20246507225086952,0.23736928895212606,0.22565952692760283,0.21365369608364693,0.19959058178725975,0.4746332356813431,0.8087057406049875,0.874365159803595,0.5833577123462955,0.3007238051864126,0.15167825706568216,0.07857462460834175,0.20650326365971938,0.23669662534017466,0.22917778954866275,0.21889624327647683,0.19566564355820237,0.4633390007744308,0.7990977031930416,0.8806631841788682,0.5943475882151753,0.31351764542628036,0.15017495510742795,0.0662268332436865,0.19066628956887188,0.22336152213451033,0.21061746389334945,0.2093890407710065,0.17204797858369825,0.39997794571721024,0.7261733019662148,0.910079047813474,0.683191871585206,0.3656428731739433,0.1794177423367157,0.05897213351423691,0.16114761540027567,0.23177016019908991,0.21619207953250508,0.2192811527890336,0.18434966171170475,0.3820295688377887,0.7263333765949799,0.9619370775044006,0.7868273817767669,0.45212391228457605,0.2558023046519463,0.26135094405065795,0.26476797283854203,0.27126998120570567,0.19146971351817965,0.11069232078972202,0.22596707920255665,0.3956963710717162,0.7108263458942986,0.9864150247128228,0.8783327191648159,0.5424352954014177,0.271579926725788,0.2548303423868342,0.2513772236164339,0.2613816920445976,0.2223273569478076,0.10874283629188919,0.2071184421876343,0.36652366025461014,0.666524549290547,0.9652134898846357,0.9154287956298984,0.5973738643104715,0.3063017387972614,0.2683185180780788,0.2664974277323119,0.2740826049915349,0.25400470850928036,0.13372071797271157,0.19123197785968482,0.32982281169049277,0.619513534343607,0.9354893648693704,0.948052103776346,0.6343126959103861,0.3249826160336434,0.2651065930381725,0.26420705454449245,0.2737247239297703,0.24943636874145259,0.12445743607187376,0.1843933704097288,0.34179114161731305,0.6407223012476756,0.9519107255192439,PM
1.0000000000000002,0.9239584912322256,0.7673873411019188,0.6609841587363936,0.8255888716860544,0.7761313363691864,0.7855987431251121,0.8364807278123918,0.9108653285235178,0.8680385050092763,0.7054922620766091,0.6420658396358927,0.6835954247868334,0.6164067290933415,0.6821458518404693,0.8168108730125161,0.8814561197442272,0.8632571655386456,0.8285152855073206,0.720396448081295,0.7494802259081881,0.7673795424737817,0.6712497835258942,0.7087122487004851,0.7935832881077196,0.8256046034946831,0.7888729082556096,0.7172197686015267,0.7285874198458477,0.7165469720397228,0.6473162914558677,0.6628594340488327,0.7217221775553735,0.7897450221286764,0.6813454811558766,0.6196330996479646,0.6566254246088719,0.6193928012024379,0.6284658967332162,0.7098764075509096,0.7644403950730336,0.7269701671215583,0.6223467814835517,0.6308604594357614,0.6942995432218317,0.6630462712612755,0.7369266542678028,0.8122642561492694,0.8046103220503362,0.8420907107734099,0.7869182976464437,0.7290306159262816,0.7591291792846782,0.6892597519723707,0.6841475487815816,0.7993565042854394,0.9145165642163706,0.8884211779110578,0.7671380249121447,0.6865595493568859,0.7085975077477531,0.6541270487861592,0.657056492278459,0.7295234962699657,0.8178836450221596,0.7587391863788688,0.6353604258954622,0.6312532466321767,0.6610123944354458,0.6047328296832732,0.6781633129714366,0.7844093277770525,0.7981687693022848,0.8610731736856996,0.7321693496732713,0.6311084863319312,0.7017850501772778,0.6960474417251004,0.6904424748541504,0.7922767629927423,0.8656544689835111,0.862959289875153,0.7932829685404645,0.7329291043665715,0.7695882524771311,0.6990706720100326,0.674297749678699,0.7421071230286687,0.8311483521078482,0.7837549145105382,0.6646975755173778,0.650286107189751,0.6366353595513956,0.5853866174579865,0.6605983346321345,0.7597594006085793,0.8165951961346949,0.7034511667189445,0.6391771406136006,0.6719426252310969,0.6357888281495259,0.6157350088860578,0.5284044062766824,0.5378034096573867,0.5877196635627226,0.564178266328369,0.6421179399951649,0.7075642803764366,0.69119747749703,0.6484817386793631,0.5804061437873844,0.6801329497198589,0.678446624381394,0.6765342233654617,0.7273133216505892,0.6631508036829301,0.7476600972886944,0.707849402254588,0.6002218226499243,0.6312865285639562,0.6215168093763614,0.5444152719093098,0.6512613907815006,0.6747628546303572,0.6117293577890808,0.6810544671171288,0.5966192965658055,0.5328321280629125,0.5948592224279465,0.5489548095572145,0.5683266237910451,0.6700847496454856,0.6728479060144184,0.6677281967308437,0.6125117055510108,0.5700944423642464,0.6343333074108009,0.6187735702812505,0.6799611642670558,0.7241782608753657,0.7184316127309114,0.781930053724518,0.6902019246536886,0.5873538347311171,0.6508670580627947,0.6729405599920255,0.6819052478326311,0.7130691393893278,0.6071346878867294,0.7005901988880459,0.6940323132258286,0.5929520937638049,0.6116871541460716,0.6011526361410431,0.5298334172255939,0.5881534469872312,0.6327177534122097,0.5969751479210388,0.6309515573307325,0.5389113358848332,0.5558238629632302,0.5821021312936303,0.5492144126737213,0.6227939927886361,0.6608830392564615,0.6184865381605313,0.5929045980935463,0.571623136926356,0.6410835611798029,0.6583007181370395,0.6352281444922856,0.6875650655799583,0.6103868411870106,0.683692345281244,0.6697438793933854,0.582521834244097,0.6639145367267838,0.6947201068620592,0.6297489825774771,0.7097975510481727,0.7038845725581522,0.6730307625213074,0.761125510581316,0.6586207478625521,0.5335060904716038,0.5981784402546599,0.5930255809148643,0.5584846921405922,0.6846511699259239,0.7799830976204534,0.7453109721446645,0.762633740354399,0.7056019968387586,0.7121317624942936,0.7273708853002157,0.4013926398887888,0.0,0.08747940156162848,0.5003459631876546,0.8032754496562895,0.8678167578242297,0.8215646819256472,0.6258803459550897,0.47815301918449715,0.48203681621607175,0.43619664779419565,0.5778480563174264,0.6080897316220468,0.6006770012465046,0.6725115336237371,0.5826698561691701,0.652666315214032,0.7201393150367432,0.6747321490151006,0.6591535317962867,0.6615692481691788,0.6145176186208909,0.7177715372438713,0.7217579990354939,0.691500967397696,0.7021963502198718,0.5945516552617829,0.5606316641228533,0.5456895688822365,0.4925141437692939,0.5891495780739773,0.6445876374541049,0.6073137183662369,0.6398389886173022,0.76114970842345,0.7360648023149532,0.6002670422443834,0.5803955601605912,0.6302649259465631,0.6224790298783536,0.7282912837749913,0.7979179777977514,0.8600763359539976,0.8194333424488287,0.7031729678813365,0.7202565604286886,0.7325567478102972,0.7338293217707526,0.7910394942988732,0.7975930512776956,0.7611230124443968,0.7840451392879852,0.6937722745086841,0.665408232932988,0.6779163835201396,0.554177727861201,0.5536117327530807,0.5622654333801453,0.6692186790153485,0.9284774440657497,PM
0.9949007499164877,0.7720378536593577,0.7527963348967619,0.9054817289919559,0.8590960676519817,0.8771213791422254,0.8760668606230915,0.8767386444199887,0.9022290178542873,0.8425289864137566,0.6263899696969635,0.6770645690460573,0.8427529938191465,0.8161853988204231,0.6144017134131992,0.7836407998441592,0.9842892653004729,0.9291428180525845,0.9574396629955244,0.9913881642868809,0.9999999999999998,0.9602668895715636,0.7467510624643141,0.6586064560086291,0.7200198789213523,0.6089492265333369,0.4552153333056923,0.611535378598056,0.8027077115610195,0.8488887621378387,0.9003417785672041,0.9196509162356592,0.9041050097427752,0.8619210437383267,0.712618507368413,0.5530231907605148,0.7125848934803483,0.8360577646358285,0.7081525896183114,0.5278173840785365,0.7671642583397047,0.8960663441347776,0.8498026074558596,0.8452080227193464,0.8274678253092733,0.8041893146349106,0.8340230095842733,0.7890387542165131,0.5944964378854916,0.6939052776220769,0.8445974876280591,0.7716846210034853,0.5861048379872082,0.7890917235233201,0.9189553188871413,0.915149501646745,0.9251779054274276,0.9068750746283458,0.8962910389129122,0.8304608007120635,0.6194726390825822,0.6518381646157461,0.8268122390099812,0.8015582210372361,0.5896511512380416,0.7130683809906846,0.9005778360754912,0.8968529642414074,0.8763714753744891,0.7572013534150819,0.7500662074643858,0.7855285110590282,0.7800090376815865,0.6477851466744085,0.4709909322376671,0.5643056324055375,0.48165581071139174,0.6373357859009554,0.7319180693188128,0.7204083530665888,0.687955735813029,0.7237377706333725,0.8406765166270078,0.8352097450190141,0.8033183681983205,0.49623830529196766,0.1806298745117707,0.3447603356850679,0.6853903599722146,0.7824103496104897,0.619443568133905,0.5160711517835601,0.7206170614695104,0.835799016981251,0.8548694296899921,0.8742123231982031,0.862737741989229,0.8624092343305667,0.7534728061716458,0.38603013463851443,0.15276337463044132,0.4197737153316681,0.7320641501881797,0.7719566924260113,0.5793171237980619,0.5214114973767707,0.7347888536179266,0.7786168847354447,0.7591074300279246,0.7829716807929179,0.8028894754585332,0.7931802710269804,0.8409869944466497,0.6679990566679628,0.3216405200342112,0.16412698786986324,0.4409056219477807,0.7251416819512597,0.7573608004313497,0.5649030868915199,0.47991819251157364,0.69770070956646,0.8250819253410255,0.8630075499573289,0.8704652227735594,0.8419345416144153,0.7727016360106209,0.7059792127268048,0.40653430363345877,0.045219859328091694,0.0948008106534759,0.431140239453079,0.5954390219561827,0.6652722181682329,0.5692930871712272,0.7361197886208526,0.9304563286544545,0.9520019421072388,0.9410823035119174,0.8982607440169821,0.8740060409436834,0.9180247836922224,0.6519565914698724,0.28099598179401464,0.30314954045996845,0.650730076373158,0.8095973643945167,0.688994619529897,0.5147102847230416,0.6526093189781417,0.8395158823988713,0.836925815424493,0.8261122770993319,0.8284868234946845,0.7988684730229461,0.8245199627091873,0.707733679816493,0.3657484304696257,0.3179913302766486,0.6635994271126477,0.9253022521449843,0.8815602423707021,0.6610159711713874,0.6280127175647767,0.8148659677568166,0.8521943744930303,0.8406159163903224,0.8236798956534319,0.8245384788446573,0.8019654357960875,0.8071692954297447,0.5233694489277751,0.19318687777613852,0.31311880551583204,0.6442375490377799,0.7434377040600788,0.5903390748631587,0.4537507835904169,0.6387009085773325,0.7849975800229625,0.8139878873559023,0.8253520327746524,0.760282878915086,0.7292841678776256,0.6499733203761808,0.3112611827201561,0.0,0.175856409459064,0.5296843673677849,0.7381806415948506,0.696915992826322,0.5552757264495423,0.7150310837597873,0.8540325172522032,0.8628838341369849,0.8927667628791944,0.9035147858278336,0.866921579834643,0.8564963691020042,0.8327415566724541,0.5022906395192741,0.19398577175840925,0.3707319671782805,0.7007687383306664,0.785186996674518,0.6197015849245513,0.5554786915924692,0.7653803009290097,0.8918359943733114,0.9198779116851834,0.943909453349739,0.97653098581417,0.9616943442627097,0.8997108197457628,0.6922863430011703,0.6398565298561698,0.8166178203440841,0.830073270619456,0.6531152341210926,0.7881738568768168,0.9525172864104337,0.9039739707122674,0.945989916509099,0.9617164060185497,0.9378501845763652,0.9170687245839675,0.8887353118867349,0.7047023899175286,0.6617369682997649,0.8053745876401355,0.7400800219188952,0.5041556432847567,0.5328698595905581,0.7698478266490378,0.7923055172651865,0.8539328818173322,0.8804804037761351,0.8585693522069309,0.8252808737230373,0.6422002081424538,0.5272263114354727,0.7071290800573271,0.8001693276061324,0.6531515955707978,0.665374933173799,0.8891566418728172,0.872330629275422,0.8874931421571111,0.8758875106510253,0.8947376605534001,0.9074128430084027,0.8797079231448142,0.7092603035750737,0.7547737763975748,0.9553587090599029,PM
0.986061175823362,0.665471831435954,0.4991961987745257,0.1250996906636046,0.0,0.39762881723873233,0.5068892123218336,0.7833943100798324,0.752113692747165,0.6366279705710896,0.5414613275674096,0.6420204455749161,0.5846917510760816,0.3593127102755207,0.5054731040679501,0.4698925678079564,0.5913553817382282,0.6566270778760059,0.6460612031431445,0.6738251613867581,0.5873058705255803,0.41352628298574157,0.6146321752788273,0.5722029487363791,0.7317562771356587,0.7290590086359212,0.6110283686302695,0.5412872941051674,0.4776747923740392,0.2257260319226413,0.33792331449404145,0.38558244463939184,0.48384418111431726,0.588729196682872,0.45970080466968843,0.3718779640557641,0.4366669422609557,0.2672741576600415,0.31265396751071695,0.37027395169364397,0.4530749965796086,0.5827742691732944,0.52794998881813,0.4821572525179718,0.5476732092961436,0.3955354570945553,0.45082755750902326,0.5029396909629451,0.6063601835518821,0.628025202275551,0.526568894175985,0.46218549705235823,0.37647508809839936,0.19139400119002037,0.3763894517309523,0.3550060555851471,0.5176124024998523,0.5604069300768479,0.48281106116636296,0.4918165082102415,0.428609517154801,0.36984455557567,0.5638926342257853,0.5460377764496447,0.7079468782844347,0.629668930675821,0.4928197008730675,0.535060425395173,0.4463182387204512,0.31208810808600873,0.48781826120368654,0.473954075363602,0.6422589778340937,0.5844080380550047,0.5187444700022268,0.5923008985392868,0.5308909062189753,0.3968949596073825,0.6058832521139466,0.5536362795077019,0.6792207752697133,0.5432242202795026,0.38079145500226197,0.42044686799220354,0.49032634378068485,0.33129402522572127,0.47349200786097523,0.49396912209723753,0.591628995051678,0.6193821783219944,0.4633767985680195,0.38833525789288537,0.45007437197762057,0.33605982324469386,0.40313775064364643,0.49930261220253946,0.5371072144789273,0.679717754117612,0.6301018330559263,0.5780787566448669,0.5848237102098617,0.38497215450496514,0.3795402363380811,0.4881651004652454,0.47372209057361125,0.6282414857740659,0.5344443891520778,0.4843455306154749,0.5178122185796306,0.31324368159171634,0.38405218845015066,0.44359751957508253,0.4961995626788078,0.5758771243908765,0.44922690859073056,0.37410854467107013,0.41387674746500513,0.2359794643901365,0.20449218203634612,0.2929638391300875,0.2780866478744608,0.45185854701673156,0.40648627890068445,0.4055499041166777,0.5015361826209279,0.3274027649202682,0.3167241559683891,0.4465234319157658,0.4632157082271431,0.5923894350445922,0.568765059773308,0.5676943407950308,0.7287345161602872,0.8034246297621599,0.828077005281636,0.6745884994056257,0.6746917661772214,0.7451102264576166,0.6986157734491631,0.5876247455340784,0.4271575093442901,0.5453787402617047,0.555679776551675,0.47390251934806615,0.539384951973263,0.6292666500293227,0.47644431463304926,0.42027600519563446,0.3072368314051883,0.4815745479619684,0.4978853700848962,0.5062215423432197,0.6555187851821627,0.7703893137056528,0.6469053420012902,0.6046114450634814,0.44601915823331106,0.5899490002285197,0.5949108247530264,0.5985334691372852,0.7232682081319521,0.7808305941168032,0.6574852189603893,0.5308513255793721,0.5521127225771312,0.6938541524488442,0.6640869333397585,0.7162771694611978,0.8236256696951281,0.7700528057472842,0.6614331403007432,0.4869647184661545,0.5289498364582412,0.517682090252956,0.5093337454550881,0.6727244599454569,0.8226921430811736,0.7243273411622475,0.6468831538595285,0.47171962553020563,0.5799946159246971,0.5190873658782609,0.4896891747200187,0.6682484151795016,0.8698409701189869,0.7718542613525892,0.7151037176932755,0.5555469493828129,0.684764424032374,0.6491415768722106,0.6499814256848682,0.7459457951212713,0.8082110606160895,0.6504480506173271,0.5225822223713807,0.5234369365356728,0.6270685774720781,0.5947804016233547,0.7304268899528865,0.8611907874244116,0.7973473583684689,0.6965980465451937,0.5183455171407223,0.5797922614676776,0.573678443247402,0.5918312007884392,0.6691490809931024,0.758668769769518,0.5951004548644003,0.5081425071890817,0.35851349251509257,0.5125330347108523,0.5633957609858462,0.6452179133322709,0.7518514983540494,0.8205498999889298,0.6969479927107725,0.5568648477736247,0.5878085521273677,0.636823525136629,0.5717671037237269,0.6461560587540451,0.7386538737644344,0.6044673469231818,0.537854028393975,0.38656025878323863,0.48295153286367,0.5298877004854394,0.46194079513159947,0.6064950981286743,0.7529932299863198,0.6602016730284834,0.5594514445627383,0.4080501216077912,0.5177895126138203,0.62810898367999,0.6745013279734113,0.8114900343532079,0.9207147003433271,0.7891298908489874,0.7331279210085557,0.5605799528417363,0.7283547090332938,0.7626312587167341,0.7510666314596866,0.7679684499785324,0.8444118672936907,0.6992892925238974,0.6111581498379093,0.5238906003484463,0.7342409187898808,0.7174654268498037,0.6682885547405206,0.7635138568859077,1.0,PM
0.9999999999999998,0.8721500784422973,0.8654904434267341,0.822065059179393,0.798425998782933,0.7640810222889842,0.7791515493209256,0.8034320749623427,0.841623065686975,0.837649046514165,0.42984729008882483,0.29754685008390713,0.6526396103471097,0.7462459467535438,0.7037886622657925,0.7800218681290774,0.7955154288164892,0.7104590405207591,0.7361717010701885,0.6683158971710295,0.7241035466276575,0.4094220294808286,0.043516054228096124,0.28106648214909513,0.6953762160563983,0.7497141528312408,0.6619649516544375,0.7928511309361974,0.8832753421124082,0.8941056075024914,0.7937400483923522,0.8306077624168682,0.5980879992994956,0.18737789021469098,0.20021550356974704,0.6364483364863724,0.8241805037587417,0.7095519908483683,0.690218749576869,0.7813552076736803,0.8335999104905383,0.8262732626249261,0.7734655495003635,0.8320129192493135,0.5009878484999561,0.10921901096193354,0.29966543907901744,0.6869625380512805,0.7444973561121448,0.690940721333779,0.7730312220770494,0.8061844488781642,0.7938405412793619,0.7610593140168171,0.7991594858321693,0.4217393500414446,0.1707164390167042,0.5163854918146522,0.7789769174258876,0.726082345096559,0.6854244288412967,0.8085291004695725,0.7980997380881056,0.7505185452164318,0.7423225771971509,0.6891089324864861,0.253242765934631,0.0272117340618101,0.4043467043485327,0.7629400790933685,0.759266160060504,0.6787620921713342,0.7838332268737094,0.8253074999697032,0.7781110126157811,0.7829177288436246,0.7172245391025707,0.28387301900239814,0.14500487255934202,0.5523525525722774,0.8123284563814239,0.7483753811842495,0.7646933961359832,0.8254616301913276,0.8267924483525302,0.7692846753758136,0.8106793398271381,0.5965162046993324,0.18666751419416494,0.31302669140824846,0.7178890887051133,0.7889336594312295,0.6811272985884178,0.7512459127371518,0.7744614858185004,0.7713981268593544,0.6886517690332179,0.7229307705200136,0.43579011590523287,0.028704115530512553,0.18352959125306412,0.6088528610203239,0.7115298114121138,0.6273696231906587,0.7626550068776619,0.847427174642019,0.8465254623383489,0.7871830235829951,0.8230130406087712,0.637221636568116,0.1990361062563788,0.2133389568364914,0.6411344046472804,0.8231708192204199,0.7651927151101405,0.8429994772701817,0.9047295789336942,0.8423332472501965,0.7064683181362212,0.6845197894105335,0.6344023452335714,0.21855149753720204,0.03955647823481834,0.4276812431847301,0.718532690877818,0.6998557365986453,0.7077538356390598,0.7564194723722795,0.7088704564943693,0.6669822760011044,0.6820680043369902,0.621442056237844,0.18360497514535568,0.0,0.3946343655255524,0.7088405283442849,0.6762863620338322,0.629359639065427,0.7674416100995518,0.785750200831399,0.6967574577803746,0.784250590470853,0.7738291052892607,0.4746377884633519,0.5327824191979662,0.8062388181981206,0.7228884633241253,0.7539870388446681,0.7863482655017642,0.8310516084127564,0.7563441554350872,0.7901320394706299,0.809778494587895,0.5934541027842479,0.6173278895782983,0.8089054446269988,0.7397177795163874,0.8571373099691317,0.9512281732079406,0.9532593649772638,0.8371358416146546,0.8657050114765459,0.919499212100795,0.710755134887777,0.7253305073960068,0.9120914898322774,0.8545070171484752,0.9019490234515282,0.9024828345277516,0.8109414785936775,0.702447361760197,0.789347084225575,0.7974647101935901,0.4898662524625077,0.5381707369832314,0.8179378591991686,0.7589801080851102,0.8180023490820358,0.8284394231694339,0.8292623903143335,0.7536653777719555,0.8292068339625562,0.902140720571756,0.7232370777818315,0.7719608035793601,0.8997010016342746,0.8363002982306045,0.8894381930147277,0.8859621548229375,0.8429395395911452,0.7977001807698618,0.8924981761592676,0.8645210432445942,0.569056587245957,0.7330180949354317,0.9029098776487758,0.8275592026597869,0.8856844017086349,0.8731666688351789,0.7856909710578084,0.7641434302862071,0.8721470227141219,0.7963750795851843,0.5818945947958905,0.8239819802065858,0.8180082681706582,0.8089944644066571,0.8562054623863824,0.8681388438195843,0.7503356582028247,0.804011554939035,0.8968724864499762,0.7762745209886213,0.7238698460585782,0.9225374461625349,0.8299200486429485,0.8731157360700259,0.8586341693769881,0.806006550976339,0.7636384712144391,0.8385671547954237,0.7760493729100986,0.5476316566697812,0.8104487821499224,0.9211920695204345,0.8521699339625661,0.8952137014344774,0.8718749426233241,0.7975260509555631,0.7418685467750932,0.8651630013370932,0.9366602869650216,0.6833127984029923,0.71043000690305,0.9273403634260695,0.8651038267210345,0.9496198828741391,0.9473905118906265,0.8851297900190882,0.7451288544913155,0.7827228788951721,0.8734413144201645,0.711884788992766,0.5701463328741263,0.8249438153149045,0.761980454214805,0.7860895044641742,0.7774040380856093,0.8511191791009607,0.8783565015262098,0.7722964111673571,0.8167493551686478,0.94245847902018,0.8060629470470737,0.8760556947955542,PM
1.0,0.8111786505550027,0.7932807690568868,0.7874512588468177,0.8953297952587973,0.7137559369988371,0.6413917433311869,0.43097187436751394,0.0,0.03265339329295536,0.4659016512683074,0.6187522916697841,0.6643409297246681,0.5829454056185894,0.6284204214411666,0.880018708509835,0.8141308216244441,0.7404352132788792,0.6894241845949911,0.691102204937557,0.6756316323461116,0.6329683598313722,0.6006637438793594,0.4508107026990298,0.12569262652301738,0.022677894478569716,0.15314202732174254,0.1865079107418044,0.24000389107346942,0.413175560683396,0.295575332781969,0.21665288865141408,0.1482598121444081,0.32211288434964036,0.5992635061506801,0.7152752003028269,0.6805714344361937,0.6045543970883687,0.5224901248091607,0.48789015690121307,0.44664799552111,0.4643640228773136,0.45784054128850604,0.44409026831289067,0.3109003346416084,0.24494424972224538,0.3125534888385282,0.332363259772519,0.2940237068195066,0.40241316420015005,0.5388226354012824,0.5076160337544771,0.4916803304982933,0.49796766891155064,0.4913032958245056,0.43759603697813,0.38706798434780776,0.4619571028452034,0.48506231789616905,0.48694892688075253,0.35283754536841183,0.19488532484125587,0.37816116167267655,0.3998898902464392,0.5039093354968278,0.4725314065526214,0.484210366074878,0.42369011675875345,0.4173429704423799,0.3991440963929893,0.4011803569423784,0.41271932874123207,0.4627635733449891,0.4959991062440081,0.48395706333759225,0.5030957655629109,0.4983437522062584,0.4430085937523023,0.31019068189668797,0.36829264855672905,0.4675983694344943,0.44574693007533206,0.46783558041004847,0.4587947041347298,0.43324724203177833,0.41036872677527914,0.46380061445664067,0.4601142463405754,0.42704444850160783,0.46360925582739565,0.49469106863243395,0.494330053138905,0.4326211680693577,0.2629393072416848,0.388095251365534,0.4379165787344732,0.4629333396805251,0.4649232708449391,0.46407323898942776,0.4620012564050744,0.4360196176540221,0.4519301019430193,0.48398541630385683,0.511589727344854,0.4528305605376848,0.3323979653725848,0.3080818954303046,0.38578010466155543,0.40132645354131746,0.41580858461544423,0.4360560257576118,0.4589841223231099,0.45028981542580304,0.44954702244039213,0.43709062695315026,0.4602782035687385,0.4075921355089194,0.33119226909994914,0.5121262028984841,0.48768147645280324,0.456014247532015,0.4335472568400962,0.4461197401285024,0.40550411288670807,0.40569618614414704,0.3776180589227005,0.38976373886814386,0.35245636484665166,0.31344460255981854,0.3696152645528352,0.47216204187956734,0.5406754379503438,0.4214703232391206,0.4718972764580367,0.4886812720302154,0.5080509456802775,0.5632570206033862,0.632135001077966,0.7841653969413742,0.7014296199756291,0.618411237243043,0.6049259827011979,0.5132791928755878,0.42313503450646506,0.40847840650770983,0.4720248671502256,0.46316565686831535,0.4917563270256311,0.48783338580569735,0.5153481946180327,0.5370306085667349,0.5142462142197788,0.5788388897874359,0.6461439099798709,0.7594604084291925,0.541006098036604,0.5445605896137202,0.5469380834078534,0.5189366772170927,0.5396745144256068,0.5443725739523306,0.5542227708909557,0.5067299035351032,0.5192737983851314,0.5138049967315812,0.6945062700242146,0.563648415104641,0.5128585284686729,0.5804665799230446,0.6027156098818569,0.5651616693761654,0.5318932287817795,0.5313729389251156,0.5538486836756609,0.5530180196831891,0.5639478025500977,0.586660222124038,0.7454355848471788,0.584525909107088,0.5106598960794786,0.5715832178442213,0.5865319876198511,0.5730855900907845,0.5179040291715094,0.5474901515896344,0.5566621454075955,0.5165337754122246,0.49741940566872156,0.5429681639239639,0.5699796453172219,0.5366628807220875,0.5954036170110797,0.7357359877187077,0.5363683649771751,0.5279226961618786,0.5856066785876477,0.597310693120876,0.5636036761995236,0.5896932409229794,0.5632101838924122,0.5111062835757032,0.49646889747147593,0.5006071422351113,0.5203144737110601,0.5186102723573969,0.5779725130343678,0.5651836791071774,0.5978949409809178,0.5699203345661967,0.610829336375224,0.4310140473455242,0.5634805897575719,0.5789946278034228,0.5787896962479087,0.5174243798834413,0.4886059366580011,0.5653915777603458,0.5930385089043431,0.5893042516523983,0.5750502577345862,0.6134159112803572,0.6004589201801673,0.42427312141741513,0.4135992008953133,0.45422368226331367,0.6025273111798093,0.5088187651170433,0.5293542520979404,0.5450330894152104,0.5540146547398104,0.5482068036906989,0.5716775967858383,0.6006630535702384,0.6750388497825188,0.7563056747347248,0.8012263120743803,0.7653590179183944,0.543474190541914,0.296662255639903,0.3077653784918706,0.3722749230903868,0.5353303428818856,0.41557271427804743,0.34734762909070316,0.48525021620770215,0.24687386521994936,0.2666935429265993,0.5927670599568415,0.7064077432128495,0.7156843936334165,0.763457621238345,0.7861086365316781,0.7897204418847403,0.8706886282909059,0.9596680088489888,PM
1.0,0.9653757294193497,0.8950630987687149,0.6094713121946884,0.6969409522668455,0.8430088370000726,0.7909847091475353,0.8029750227025052,0.8392849226978414,0.8030739368267072,0.5544042389549948,0.7288026663825105,0.7713006438281096,0.751199971067201,0.7470449568456257,0.7862922955853371,0.6557194220556095,0.5109668263914138,0.7928488315546551,0.8178543872802226,0.8380501752355074,0.8520511297081854,0.8232628686324008,0.5673798191431247,0.7299816911551189,0.8203636548816946,0.806106019415878,0.8049435279945896,0.8247933722752738,0.6848734051944727,0.5169911676896941,0.7958913169445014,0.8036079119973878,0.793670957375677,0.8007971767867357,0.7894715825191296,0.5317993524632407,0.6182326061488754,0.7396908349212943,0.7367821427836905,0.7898504591716491,0.8188925446221895,0.7120288867424631,0.5937281818571187,0.7953162745693478,0.754005901125395,0.7708014224097548,0.8198887721645347,0.7710488208578234,0.48282053061363817,0.6756316431689751,0.7816221603550249,0.7743096498941751,0.7834704898117173,0.8221434017833995,0.655524922821535,0.48558029470743813,0.7959743965523898,0.8560515879528472,0.8787185709242515,0.8692514720204287,0.8715247070411154,0.6599122960370609,0.5767444806774713,0.8072039039879186,0.7986960733421027,0.8085101365937857,0.8423160269062295,0.822803238253214,0.5543147037401646,0.2763064887688991,0.4006432144712826,0.7195393073234402,0.7622902773582649,0.726544218178335,0.7156977421343518,0.7223543074483731,0.4753384371945182,0.10945016365684435,0.41228953735025353,0.7631323839628652,0.794521392118861,0.7937039143383191,0.760457423456605,0.7184877445417284,0.3095127886113924,0.049081841048114416,0.4370020584285963,0.7389894909358614,0.7241964005471795,0.7107759682523316,0.6764066836023792,0.635853534659585,0.20527112687945204,0.1458211239690428,0.6019237618095659,0.7519806880292781,0.7003562779263279,0.6584954935239464,0.6920046279915759,0.4428029544093124,0.04645419197611256,0.33328119421237323,0.70965769297112,0.7410284420187923,0.699779553188931,0.6241644041833343,0.648507567476015,0.3015253010750647,0.05057828768636119,0.4517833055214746,0.7312651882796315,0.7150487789229043,0.722492067459032,0.7244468419685997,0.6917862320979675,0.24419570803689883,0.0806906005248389,0.5061797604691618,0.7429288523291526,0.7237236987020221,0.7313956669705859,0.7090015642475702,0.634394422124049,0.17357077993560166,0.1887667871219576,0.6466243873807902,0.7924660872291547,0.762751850388339,0.7457817631128969,0.7265726168511768,0.50681651881247,0.0668594372747271,0.29378363634493176,0.6766732540054812,0.6970846280038381,0.677628049908233,0.6607027149582527,0.7084966173957641,0.38314590966635187,0.09114365360916699,0.47317478443728245,0.7584659883101086,0.7295235770598607,0.724107361438767,0.702252982449652,0.6838577931800862,0.2560545350985106,0.2905228295259894,0.7356089395710796,0.8804903647054734,0.888597317373566,0.7516453063480664,0.556629378374399,0.5380057149907431,0.13138815347372512,0.0,0.44739903176458773,0.6850391208075264,0.6680795061595068,0.6792187904652329,0.6651762858346602,0.6134436872166877,0.16394659323620875,0.14836860797264428,0.6041345166082874,0.7537740621551898,0.7141180236719062,0.7143337925812885,0.6895236119306487,0.5694023917038744,0.11765952099485055,0.25316804423437045,0.6684359167689662,0.7382854989733025,0.699972578662412,0.6760861957870912,0.7118772143762633,0.44484328206805035,0.11836770815475539,0.4944634429090473,0.812978184414936,0.7947234018374543,0.7693082088309029,0.7043076927527587,0.6960908970688928,0.3136453704902693,0.06224001932797396,0.49318057606098886,0.7909655864466423,0.7964955160546832,0.8143596203355026,0.8132065767474566,0.6135008061556539,0.1333955338574211,0.005680676101699866,0.4369667643818742,0.6095042414932061,0.5975408590710876,0.6087297071362157,0.6100917772126513,0.5979430792629747,0.14385599369853486,0.1289908491513927,0.6057272279719066,0.7927132135779438,0.7547860916028313,0.7976222901907644,0.8228173463241704,0.8623010241736417,0.7616790303748204,0.4554788507706431,0.6729520073612507,0.7468478601644217,0.6889013251806326,0.673994358454963,0.6840876420806628,0.5957614101993625,0.37606427065053794,0.6566282326223183,0.8780754925804595,0.9211348949008618,0.8758988786833375,0.8819005435490608,0.6782840894864854,0.5726927079054258,0.8111524729434096,0.8055331987920504,0.8468077387007624,0.8943146960662092,0.8712912657211813,0.6311480987361651,0.7811571684782637,0.7822903464750506,0.7669459046190541,0.7842770879797514,0.8258296522879518,0.6366753890650552,0.5335510696814256,0.7949976510427028,0.782170589315518,0.7988809501188703,0.8167430620232934,0.8114330305829065,0.563615577901524,0.6248881075132044,0.7870954263799903,0.7485866447575638,0.7375909054081227,0.7640463700499449,0.6598161170244357,0.3912111332297781,0.6085076981359205,0.676608236825524,0.8267738175694297,PM
0.9921855533093118,0.6624169351342988,0.44317594945311845,0.34156269203510004,0.466795359826945,0.5280608299922505,0.48230555094050187,0.2708382996293852,0.09986029417569586,0.2050110731039978,0.46728977158650364,0.839886901525198,0.6650615860744105,0.39083676130200695,0.2555989793381066,0.39754293007347696,0.38992660523961264,0.36873084437828085,0.30527894240952547,0.17799366104047998,0.2680849925571036,0.558325583381921,0.9451876541081679,0.757414209973589,0.4693269458669955,0.223465711386166,0.33983757055873776,0.44410467618614335,0.44031187329111665,0.4833428521951322,0.3692198035879879,0.3212278768179555,0.42854557736880095,0.7323607221160979,0.9429882329748822,0.6626181606558172,0.4117901700472344,0.3043715206840849,0.3791635110839304,0.3738765632599832,0.4011249656998346,0.40342672981790306,0.2448002687852271,0.2657398831190445,0.48218201426118634,0.9137021834513823,0.8477175324689585,0.5112689629159122,0.2627809416469753,0.29945568848784276,0.3756735935629165,0.3946780744001246,0.4400524941150299,0.3248045101250967,0.28141784548554494,0.42578569415566614,0.7902273928635473,0.8858675270529832,0.5937631400497909,0.31052685833788685,0.28066986793728077,0.38754326596911737,0.39790026139452683,0.3575380826272663,0.23949864425864353,0.1789176518185407,0.27372753913460457,0.6100284871680874,0.83437015881147,0.5452483171097264,0.34766569999106345,0.2866815495879753,0.44250394511406865,0.5204863688383612,0.5202185480462478,0.4279805022281109,0.3337493908194942,0.39258957527569693,0.39447816265116176,0.30530974563790414,0.12952715427926975,0.20183002801967298,0.21417058906099085,0.3550518927149846,0.42311567341206713,0.14731310268095532,0.057109579401477095,0.13318549853166317,0.24155376523235184,0.2802803098787803,0.2695008422049803,0.15620176612402892,0.12808838483174512,0.37050116070214,0.3344755587723198,0.5814698871050621,0.40763311319189244,0.20462517282558013,0.12993525660255534,0.2751928713550482,0.28339684261655496,0.26698144079053776,0.23347649987162367,0.11861352285076787,0.1931236703302237,0.3585047409770885,0.4467362252598792,0.5579790699622245,0.2514496780406099,0.10915552382852978,0.15071101375929974,0.2950378396949529,0.2614370528193879,0.2551751764094954,0.2268696776868553,0.1409062989282872,0.33888578275991366,0.3388568132866605,0.5312954241612755,0.5294046440051594,0.28538931880987395,0.18413232901840404,0.22440914252319555,0.3569362603288271,0.31032996322167206,0.3226596002401232,0.19698638458579198,0.1011381737476178,0.32044198569346394,0.3278217263617176,0.5466164806644929,0.34565785943432115,0.12223450009645997,0.04994948642949337,0.19640321387816817,0.24475191913664585,0.2574481805570046,0.28827083890000704,0.15452669821350318,0.17856368403546208,0.2957279411177245,0.32517978714617035,0.5114601909568708,0.23598732310596393,0.02715668920444836,0.0,0.20021386765896798,0.3849692097462678,0.38030198396732606,0.29187719250948296,0.2019145286033046,0.40676683830890115,0.4481244499649093,0.6294865898069335,0.5398800763611207,0.2672416440583629,0.1635367367555447,0.2549717857857172,0.26336439480326534,0.26599108760713186,0.2230931191766068,0.10642628956927558,0.3023448581169177,0.4021368729862922,0.5529228677127205,0.38791925273456807,0.17685144042946854,0.09998127824011993,0.25495062943524927,0.3358252862429789,0.33337954615503396,0.3261741614872662,0.21553854004598616,0.07199365124083812,0.2559098186551849,0.33513102591985655,0.6301928343509897,0.416406405398662,0.18019825428051206,0.12112041892967618,0.22705864016431887,0.2757084011357658,0.3047233673958032,0.3333497311336484,0.22808175034901446,0.23523764186625407,0.42301771003358235,0.5229089584856266,0.7364720251723473,0.3824507433264759,0.15135053292425527,0.08273522701301284,0.2448849751821114,0.26672141384075854,0.2454756695034428,0.28180690691645793,0.15347854180916798,0.14156641498530576,0.34342050906663424,0.4316323511610052,0.6453675003098565,0.34595948518772746,0.17783747119051796,0.14623984484323893,0.31886224641394456,0.28276605051012416,0.27646809522082316,0.40840216511913985,0.835790901853168,0.9728932966873667,0.6410846945691842,0.35561010189142017,0.24501325399754714,0.38360303890667735,0.37552967072709054,0.3712134135167626,0.40974649001273145,0.26855179228126014,0.2493452950369366,0.4355884523100424,0.8942470616509319,0.9885112115440866,0.5995688485831905,0.3445803482502856,0.3812001902647624,0.4507428194831804,0.4059584472340476,0.39232190204051465,0.3278681111282875,0.2432727898960878,0.3581392632225282,0.7355464219597168,0.9999999999999996,0.6333859415055101,0.32731488277963816,0.25457092842526263,0.4218310139579313,0.4547690210300881,0.4513569667284183,0.4519734796154249,0.2865607909456913,0.27010571380076565,0.42965732804292633,0.8519777030797564,0.8840269637268441,0.5816170314173594,0.3233891383249041,0.3020260796859455,0.3853402606944658,0.3736098496881062,0.40237384913745045,0.30603708377191907,0.3243108616395567,0.544803145431024,0.9819774647474451,PM
0.9812893033077801,0.6171715506132553,0.46685080324868267,0.5464443617538279,0.562516223374411,0.6508778290188189,0.5220709373558328,0.38616196126262947,0.4097858277002211,0.6118065489622304,0.9744904393987261,0.71097771292873,0.49588476539855186,0.48395877588132175,0.525771690511522,0.6044299006136544,0.5051429583541203,0.39469599541094835,0.4000368646510859,0.71737312641041,0.9213201174977632,0.5895547298194845,0.4474462549956062,0.5166036867720911,0.5346490400150912,0.6442076906512435,0.5109973823381782,0.3774094210070831,0.264163225767708,0.4991406157482001,0.9587266528503862,0.716704488035683,0.46941725128794065,0.5029123504827027,0.5743500423911363,0.633469822851827,0.5568887542539098,0.4613567189931147,0.4219534284705375,0.6566409699920017,0.9418137540190314,0.6142273544448908,0.37872427762887195,0.39934634609641284,0.46517700609066326,0.593114724861449,0.5026898670355062,0.4456222981840332,0.4304826872045102,0.7609014235122884,0.939882353771893,0.5983064719898183,0.42160143135173334,0.4973437551044939,0.5495442572128395,0.6102995382366672,0.4775834849309568,0.4467369373427257,0.36026068095021646,0.6005579486467054,0.944012607333979,0.6250689883743168,0.45173439676279825,0.5159305739621192,0.5447762676849739,0.5785192017823215,0.49007096952080076,0.4626496552275716,0.4768095142717832,0.8164166501482071,1.0,0.6467192017359618,0.4847221371714352,0.539048451286344,0.577955146972942,0.685335738528627,0.5566299170404423,0.4677417537450146,0.397453851957589,0.6796318862851995,0.852767157652869,0.5043749059108706,0.37900870624710903,0.45239552915823555,0.49452069718978864,0.5191355321137507,0.37660924460143663,0.3775087810943263,0.4266550138348313,0.8368657123977492,0.8904138858728414,0.5538892515587106,0.4124988212720786,0.45145860497476376,0.5108061599495066,0.4920341497153631,0.40181063637436143,0.3823917470581075,0.4538009639790124,0.9483400268253854,0.8925937998060127,0.579306849332959,0.4702666717483992,0.5382662171718571,0.5358776537191767,0.4728504491658789,0.4306674066683529,0.371713767589382,0.39865040586126854,0.49232145541980854,0.1753128286228498,0.14888204168347663,0.29941336877905744,0.32055176073442926,0.42571709570755845,0.3783447982384196,0.33069988626148383,0.35395344528474615,0.502603227182743,0.3413631152044041,0.23943860592476973,0.27706701968461145,0.32303750202580916,0.42572603220947114,0.3788757391976465,0.3055389713785295,0.2845593556635282,0.42074525601780843,0.3123323103664011,0.2635189512008185,0.3898402004715589,0.4718234560240542,0.5617038767980271,0.4720329445182285,0.43415516880466365,0.3827009361598783,0.5190885668903071,0.4811547224241979,0.2596493196985987,0.34909520911490866,0.36662721794536113,0.4663886808422464,0.44507932374069936,0.4447949545482208,0.34073561212225645,0.4095722977984435,0.4953713711568777,0.17176448447165305,0.20585939501145045,0.3604923308957346,0.3839097233147468,0.5016394351003504,0.4518820289073715,0.3770458344942669,0.3196641832801279,0.49823204322933545,0.47944478004885926,0.26998497761692164,0.35064037970911865,0.36624467065798916,0.4831216574064352,0.3911580730604878,0.3338293528717782,0.23251906699101177,0.37110981029027945,0.4905296119352798,0.2844793076002605,0.3042678188920931,0.3737186106557808,0.4720396158277085,0.5070492079911846,0.47518300431158167,0.38050172299302387,0.34832949325440765,0.45958197989176774,0.2434301427743848,0.0,0.21648305587144456,0.328009902890114,0.508912025685726,0.49521992966859196,0.4310485577071961,0.3632507211201679,0.3900984836736092,0.4864528154853667,0.2841118924724513,0.29143883597324516,0.3273772733936884,0.47782101346696493,0.4687571135022677,0.4306712097069214,0.35148506916787126,0.44507826904539494,0.4990099701534554,0.27706025731810824,0.29861244189206193,0.29034737925078025,0.4455940428613352,0.5215221591553596,0.4609376864597321,0.4344034991952226,0.35661567650855464,0.5016657224592898,0.5168827600494499,0.1155370782160694,0.18316262397345007,0.29364157791121803,0.4016050963313167,0.5259742061096535,0.4096361536407671,0.3898953874386799,0.31068851138124787,0.4453099289125544,0.43782025238731137,0.24676758005288457,0.3460200534513427,0.37948273184641534,0.5174654020028,0.5059261721435848,0.44425703319609555,0.3324243708557608,0.3873813978857328,0.49821166889174995,0.2816151087969274,0.2707809104624608,0.3118682262522796,0.4331946189355782,0.46512557071549576,0.4789734223273454,0.602384527994162,0.4680979229247746,0.3915172133399243,0.3988550205913288,0.7490723390777467,0.9202409257786881,0.5895935947304021,0.4142338910318082,0.5076273606682475,0.5597896016083106,0.6615079932525321,0.5533269106935288,0.4601351137946059,0.4300845461038585,0.7400889506133548,0.9135804202057329,0.5825942696071076,0.41517874732935844,0.4788735379422686,0.49498010260507996,0.6241960648767129,0.5250678554075301,0.39357223401568353,0.3439782992920546,0.40955745699447466,0.9214964439168423,PM
0.8788101233253476,0.5245487529892736,0.6968685943447372,0.8996079951354987,0.886995180627977,0.9377665732393641,0.7794021014314516,0.7655357273809036,0.9609129629551203,0.7455909669457992,0.48257506993995936,0.8055007455889733,0.8853867309897889,0.8936355951567398,0.8584185880360311,0.7243025580728379,0.9243872841858554,0.9100213943799871,0.5476526522266845,0.7009748886423113,0.9357363329305748,0.9102947682443079,0.9330362223016777,0.796793089110192,0.7696116264006572,0.9582790684886284,0.7417361478184894,0.5267035670181137,0.8586815830270684,0.8934278599763876,0.9171535845136136,0.8425357845498336,0.6915118906295015,0.8959800467701398,0.8892952920711268,0.5310821025945416,0.6850289565006165,0.8967441912559029,0.8657346596172004,0.8681982828294468,0.7063067449442653,0.7679181195921709,0.9381082276741959,0.6624593491660808,0.4714899469460798,0.8448639740029378,0.9025182197246149,0.9340245150266673,0.8682449780606623,0.6966662235710246,0.8913055131420953,0.9146383910849185,0.5378784562344046,0.5909393313761271,0.9113076246428846,0.8587957123570444,0.9005062036182883,0.7835019165674197,0.7213162836137195,0.9486713547213605,0.8382851384650662,0.5159880871956191,0.7758603122718737,0.9220051562185303,0.9235019364629473,0.8877038996849549,0.727396811036533,0.9043729405683549,0.9452661264208271,0.6065525489803956,0.7187864232180412,0.9349844801030642,0.9218707644317112,0.9040427143167296,0.7231069956387375,0.7947404098931339,0.9462885505257848,0.6685589966654364,0.5437565113363851,0.8653371921126138,0.8566585606861021,0.8745651322660091,0.7439965254407337,0.691015640469191,0.9381421659611766,0.8533706303767186,0.6082929230811172,0.897461770843522,0.974393481769561,1.0000000000000002,0.8634808623125652,0.7409130437543319,0.9504197184537546,0.8553081219161898,0.617531145740881,0.8966629850705827,0.9273360135820925,0.9313775061601455,0.8112059644404128,0.6837217195829126,0.8894326080386004,0.8018401351915763,0.4927473779217022,0.7438844023935356,0.8748712993294803,0.9087183739721698,0.9247155233625548,0.8708065189619993,0.80242950089336,0.7802796318533074,0.4133493341623786,0.0,0.25440194560236873,0.74019262337229,0.77893068832949,0.5778411051647665,0.756998728248498,0.8692418963234447,0.8636264165581273,0.7635846958521053,0.2744517415897527,0.09568473915113351,0.5649694170527118,0.9024726088655861,0.7444510529730113,0.6617346646640201,0.8911911517842224,0.9258838733845438,0.8980801597871764,0.6603822549945912,0.1868335005537305,0.30847038931619664,0.7897824498792001,0.8384331813927892,0.5758034387885196,0.6754958109582581,0.8103569559200994,0.7847841409554939,0.7813975841058489,0.37456032566563136,0.06382571583371677,0.45530776734170564,0.8496796847201098,0.7352896569721974,0.6239353728237955,0.8235352266294707,0.8539649914465512,0.852320343128204,0.5877550671190201,0.11983548168497249,0.28060612995291434,0.7801992203048942,0.8634601721799131,0.6453217490665684,0.7816113097056261,0.8659290599061376,0.8384425686462269,0.7540000070573847,0.2702529173189767,0.0969167603359784,0.5682549618750659,0.8886241014566887,0.7127367760023522,0.6345224684120452,0.8223907274655147,0.8016381900884306,0.8234549493347532,0.6238629878405539,0.1280895071001904,0.17951430587921946,0.6913487491939827,0.8797362200065131,0.6500009764630064,0.7018085794121209,0.871756645377195,0.8240827093905556,0.829835947404667,0.478255180010257,0.069088896743152,0.35266562716544647,0.8089164375993849,0.7767714191747179,0.5715546278484922,0.7496081730855455,0.8156124180561679,0.7974750147179417,0.7260331011116614,0.2430758230987562,0.08298326027271985,0.5603386097658605,0.8794318862018857,0.6991415573099911,0.6446703160215408,0.8347318089415443,0.8387159536245117,0.8260266933703713,0.6019241542858791,0.10674369082049817,0.16654407545759975,0.6828282585075149,0.8869968779766111,0.6609791112550198,0.6971122200328732,0.8665022557820377,0.8405017579819758,0.8506590638061569,0.5435557445565709,0.1007786667646493,0.3249807316299389,0.8132831028550236,0.8669710354305249,0.64263996774125,0.7713597319689047,0.835547101033493,0.7953859489690991,0.7236263993113587,0.2524765024776472,0.1353144099778516,0.6194009043641695,0.8952031058852594,0.6909642129175657,0.6654127592592078,0.8616218680907275,0.8225521169531891,0.8146167351730267,0.5976582120111502,0.11202366819236431,0.2025317880929558,0.716542315554904,0.8966351850056478,0.6711959838342945,0.7379406031193259,0.8580214619684352,0.8403898873727103,0.8224739328221473,0.41950558252070014,0.043951670541856336,0.3787306070161802,0.838866953658522,0.8248100865731305,0.660611940195476,0.8090081781013476,0.860964656431898,0.8919029545748061,0.8067658622692091,0.8029828027307915,0.970866292184873,0.740917403914853,0.5734888121173112,0.893255676064036,0.9091278348592178,0.9267393763804967,0.8392739195052961,0.75239145270775,0.9739583818062967,PM
0.8761670391299088,0.5346047325962815,0.643737844790695,0.866410956172383,0.8165061475233188,0.8434101951848201,0.84438302212327,0.9000973305576301,0.9721761015818007,0.8675005936757456,0.5487572970680055,0.6810101478408923,0.8411719147243506,0.8119709681099441,0.8341444277896177,0.8394971533622106,0.9147842443839265,0.9264870719854257,0.8426566551311572,0.7848655034375647,0.7848934522575337,0.7396807625255741,0.739982055751393,0.4368463023263598,0.0543969837682301,0.18719706231388877,0.6286780146366571,0.8982540675182584,0.8708621648804933,0.7965383328431916,0.7960804373862478,0.7715788732383475,0.7495736351518738,0.6241689363107679,0.20524735649752568,0.03452096483067013,0.395888028196556,0.8060348238920829,0.9251414884155742,0.850737968908394,0.8155290514819842,0.807065389168115,0.7299659959310179,0.7410535968865735,0.4171497991635571,0.0174625512721045,0.10322964781199007,0.5452951945056868,0.8846045134952552,0.8946154953519774,0.8078924802407006,0.8037750417294416,0.7996776979862072,0.7292161878058079,0.7208538301789305,0.35966793174805445,0.027449003888847967,0.2612173428090381,0.7044381381655447,0.9288242977995449,0.8730522761543029,0.8048474235606651,0.8098699656104884,0.7434460796287363,0.7353308502392375,0.5611110112999733,0.14602402203819964,0.10602778709532057,0.5192663061331848,0.8557474714231383,0.8864993078883039,0.8024916680143248,0.7958495268298214,0.7978872675992963,0.7356512122713617,0.7052870721802686,0.33575729501941676,0.010879481061571994,0.2572686510476774,0.7024206953293048,0.9204470806271332,0.8836427620188989,0.8254229797977797,0.8207551488582434,0.7484662145765593,0.7440892063246123,0.5291969174429074,0.1103336828103445,0.0,0.40435339754343924,0.8074753609665479,0.8950879545696386,0.8288287067212017,0.7983186567642546,0.7916051680338356,0.7186846189094014,0.7481550306333331,0.4668400131028667,0.07163671710991149,0.13654285439300806,0.5747579306049473,0.8996861522277029,0.9103093642660631,0.8157182405411343,0.8099542460268052,0.7781429466956888,0.747778428868163,0.5889750450489875,0.17165903269059202,0.0881717403720903,0.49505664709705455,0.8590987272570929,0.9024911673356149,0.8235087858680623,0.8146050307801056,0.8211947711610399,0.7441743059512609,0.7451157632397414,0.4387490062599775,0.03302892015213721,0.10370594002128541,0.545946813776722,0.8819572325673952,0.9105937650410125,0.809764058626093,0.7989846730388686,0.7813265818252821,0.74912371745318,0.6590985155011269,0.24578748025569608,0.03053135484551661,0.37977615472088155,0.7942945467937155,0.9114490349885696,0.8354063867805275,0.7915618209881274,0.7988747149290383,0.745210275208632,0.7504115172107118,0.5579679619410518,0.1406296090565462,0.10996270879678027,0.5265690823163618,0.872809313229425,0.9253279863363464,0.8337238358124628,0.8412602316729159,0.8321322317497253,0.7401602606370605,0.7128492131825299,0.3557723830308466,0.05299045003877301,0.32311828586195657,0.7535041047813538,0.9583915062423605,0.842070683978591,0.5462448212669584,0.7301828345715662,0.8303213224630983,0.8479740793225288,0.8934955738370924,0.8737462992165543,0.9543859385303957,0.993139888478527,0.7791699635884286,0.527789929197042,0.7689282741002603,0.8226352466015572,0.8218466788848704,0.8438284328818197,0.8395699183869829,0.9026957814115033,0.9725757587505748,0.8943296964894063,0.5610128311551992,0.5979294406199591,0.8593070621826813,0.8138046893297706,0.8498937484641758,0.845259850230802,0.8798324228384251,0.9768801015764692,0.9435692812601184,0.6121885046862956,0.5330941219402623,0.824115439637225,0.8154311703687867,0.8640104013351944,0.8699062709220069,0.8679284722797012,0.9421248067593444,0.97120933755098,0.7291726014135969,0.555602813172285,0.8100417185638302,0.8210735332937205,0.8597973173804951,0.8538113180769509,0.8849816217036615,0.9801392902288322,0.9709185016565938,0.6780230166663475,0.5344739650463346,0.8092428044076068,0.8093395048996719,0.8304983810157953,0.8469400936502678,0.8602424201233523,0.9334917297707093,0.9635883841600315,0.722576074017969,0.643506135927526,0.838483542493595,0.8037610062174227,0.8697768005083066,0.8765144541174485,0.9240387323626409,0.9891796136280049,0.9259257109092718,0.5921085723008992,0.6282072068562625,0.8308579028357752,0.8056498139301747,0.8544685996592354,0.8477693287519983,0.8812944318734659,0.9620474861702202,0.9392952723779764,0.6237813769623703,0.5458910273284032,0.8165676954438821,0.7890068996704693,0.8452191185082125,0.8545152948187287,0.8778276291433917,0.9754400099195375,0.9761584081917192,0.6962539404654751,0.5834955339719179,0.83582858182101,0.8038670027453565,0.854284913321731,0.8532604084332063,0.8458580212464493,0.9284320837623592,0.9844208198618756,0.7972594231848942,0.5282172688610762,0.7640164995145693,0.8284519631700662,0.8322989445837956,0.8716933053768037,0.8737065763398644,0.9450459150466288,1.0,PM
0.986061175823362,0.665471831435954,0.4991961987745257,0.1250996906636046,0.0,0.39762881723873233,0.5068892123218336,0.7833943100798324,0.752113692747165,0.6366279705710896,0.5414613275674096,0.6420204455749161,0.5846917510760816,0.3593127102755207,0.5054731040679501,0.4698925678079564,0.5913553817382282,0.6566270778760059,0.6460612031431445,0.6738251613867581,0.5873058705255803,0.41352628298574157,0.6146321752788273,0.5722029487363791,0.7317562771356587,0.7290590086359212,0.6110283686302695,0.5412872941051674,0.4776747923740392,0.2257260319226413,0.33792331449404145,0.38558244463939184,0.48384418111431726,0.588729196682872,0.45970080466968843,0.3718779640557641,0.4366669422609557,0.2672741576600415,0.31265396751071695,0.37027395169364397,0.4530749965796086,0.5827742691732944,0.52794998881813,0.4821572525179718,0.5476732092961436,0.3955354570945553,0.45082755750902326,0.5029396909629451,0.6063601835518821,0.628025202275551,0.526568894175985,0.46218549705235823,0.37647508809839936,0.19139400119002037,0.3763894517309523,0.3550060555851471,0.5176124024998523,0.5604069300768479,0.48281106116636296,0.4918165082102415,0.428609517154801,0.36984455557567,0.5638926342257853,0.5460377764496447,0.7079468782844347,0.629668930675821,0.4928197008730675,0.535060425395173,0.4463182387204512,0.31208810808600873,0.48781826120368654,0.473954075363602,0.6422589778340937,0.5844080380550047,0.5187444700022268,0.5923008985392868,0.5308909062189753,0.3968949596073825,0.6058832521139466,0.5536362795077019,0.6792207752697133,0.5432242202795026,0.38079145500226197,0.42044686799220354,0.49032634378068485,0.33129402522572127,0.47349200786097523,0.49396912209723753,0.591628995051678,0.6193821783219944,0.4633767985680195,0.38833525789288537,0.45007437197762057,0.33605982324469386,0.40313775064364643,0.49930261220253946,0.5371072144789273,0.679717754117612,0.6301018330559263,0.5780787566448669,0.5848237102098617,0.38497215450496514,0.3795402363380811,0.4881651004652454,0.47372209057361125,0.6282414857740659,0.5344443891520778,0.4843455306154749,0.5178122185796306,0.31324368159171634,0.38405218845015066,0.44359751957508253,0.4961995626788078,0.5758771243908765,0.44922690859073056,0.37410854467107013,0.41387674746500513,0.2359794643901365,0.20449218203634612,0.2929638391300875,0.2780866478744608,0.45185854701673156,0.40648627890068445,0.4055499041166777,0.5015361826209279,0.3274027649202682,0.3167241559683891,0.4465234319157658,0.4632157082271431,0.5923894350445922,0.568765059773308,0.5676943407950308,0.7287345161602872,0.8034246297621599,0.828077005281636,0.6745884994056257,0.6746917661772214,0.7451102264576166,0.6986157734491631,0.5876247455340784,0.4271575093442901,0.5453787402617047,0.555679776551675,0.47390251934806615,0.539384951973263,0.6292666500293227,0.47644431463304926,0.42027600519563446,0.3072368314051883,0.4815745479619684,0.4978853700848962,0.5062215423432197,0.6555187851821627,0.7703893137056528,0.6469053420012902,0.6046114450634814,0.44601915823331106,0.5899490002285197,0.5949108247530264,0.5985334691372852,0.7232682081319521,0.7808305941168032,0.6574852189603893,0.5308513255793721,0.5521127225771312,0.6938541524488442,0.6640869333397585,0.7162771694611978,0.8236256696951281,0.7700528057472842,0.6614331403007432,0.4869647184661545,0.5289498364582412,0.517682090252956,0.5093337454550881,0.6727244599454569,0.8226921430811736,0.7243273411622475,0.6468831538595285,0.47171962553020563,0.5799946159246971,0.5190873658782609,0.4896891747200187,0.6682484151795016,0.8698409701189869,0.7718542613525892,0.7151037176932755,0.5555469493828129,0.684764424032374,0.6491415768722106,0.6499814256848682,0.7459457951212713,0.8082110606160895,0.6504480506173271,0.5225822223713807,0.5234369365356728,0.6270685774720781,0.5947804016233547,0.7304268899528865,0.8611907874244116,0.7973473583684689,0.6965980465451937,0.5183455171407223,0.5797922614676776,0.573678443247402,0.5918312007884392,0.6691490809931024,0.758668769769518,0.5951004548644003,0.5081425071890817,0.35851349251509257,0.5125330347108523,0.5633957609858462,0.6452179133322709,0.7518514983540494,0.8205498999889298,0.6969479927107725,0.5568648477736247,0.5878085521273677,0.636823525136629,0.5717671037237269,0.6461560587540451,0.7386538737644344,0.6044673469231818,0.537854028393975,0.38656025878323863,0.48295153286367,0.5298877004854394,0.46194079513159947,0.6064950981286743,0.7529932299863198,0.6602016730284834,0.5594514445627383,0.4080501216077912,0.5177895126138203,0.62810898367999,0.6745013279734113,0.8114900343532079,0.9207147003433271,0.7891298908489874,0.7331279210085557,0.5605799528417363,0.7283547090332938,0.7626312587167341,0.7510666314596866,0.7679684499785324,0.8444118672936907,0.6992892925238974,0.6111581498379093,0.5238906003484463,0.7342409187898808,0.7174654268498037,0.6682885547405206,0.7635138568859077,1.0,PM
0.9290673854027016,0.45117323749924765,0.2453187580458316,0.21755503196175008,0.24602359267441853,0.24141435916902276,0.283219387980163,0.3527768296796223,0.20401633426157684,0.23194192728522323,0.28633837539408047,0.6121830666295272,1.0,0.7150773918985855,0.3389641053847119,0.22036738566001812,0.23819574154344014,0.23045275179053748,0.21808196753119224,0.2888722425310557,0.3034927850759632,0.1469177383162732,0.2030286879282368,0.25581401928643244,0.5758712715457843,0.9859761794844042,0.7149541842258689,0.346280424511038,0.2433545484192372,0.26757985525959205,0.2472865734596943,0.2116119442337574,0.2533522889899391,0.25806108761849256,0.12575157707430362,0.2198286499273343,0.2916705225838956,0.6302798006887036,0.966572278504672,0.6115903716978979,0.32132643724738186,0.2597133938301366,0.2797632893077675,0.24953930069261832,0.22094960857356405,0.264278155678634,0.11261318458331937,0.147102150238144,0.12872658237094514,0.2650339246318709,0.7188606457266951,0.8071156719303136,0.36449919115983054,0.23060291430408197,0.27806610961114364,0.3362354689659006,0.3148418399241164,0.29223642816043505,0.35685085110035564,0.217460855623266,0.18625494263065923,0.22053361764487622,0.4176622960392926,0.8655655478339641,0.8395619512042449,0.403354089920573,0.2424868828367992,0.2434910626075082,0.2527751125794193,0.24534754388583435,0.2785457525442867,0.3273174108936514,0.15279620078081368,0.1742120617187375,0.21629568124342669,0.516785172141077,0.8954817698226325,0.6437597103024468,0.2977357220645591,0.20695969430646066,0.2540569004149993,0.2503805865191153,0.18751733553601424,0.16439147413001098,0.11216220547712608,0.14838918989747363,0.3591895091838957,0.5085621706486325,0.19980056554503234,0.08375445571820084,0.06018110799236398,0.07288460514185946,0.21040563685279245,0.1545805070359454,0.1527127055686357,0.1624843752612164,0.1192840565880573,0.1608348780389477,0.33275103781911897,0.5337498208136893,0.2544613825103639,0.11801582142430789,0.06717300927233527,0.1053653607138556,0.2542260499450064,0.19746412935273483,0.21844540798446754,0.23667769010624973,0.16384976793477968,0.1152020456537648,0.2954796230188843,0.4565155616198968,0.12123279327904557,0.029877997166646075,0.023923060975562738,0.009137334429721644,0.1451210535294618,0.0909018081463473,0.14097910828221005,0.17535379922996785,0.13592023698427624,0.19548380099237672,0.403877825748272,0.5300478104082607,0.2342357618289821,0.1411752955358918,0.04789353171968802,0.05298040121621339,0.1770442490726607,0.11683036645151823,0.13079740617319668,0.16719106164485664,0.13612073549804604,0.1766927656095385,0.39101368936186853,0.5436923643765748,0.23443656909422117,0.11912348992069388,0.08130460899695491,0.048752948098814475,0.21920844660284544,0.1458543067222573,0.12445012258645205,0.1429821450158375,0.11327643503461404,0.14341228833584552,0.31698052280938116,0.5407159299318125,0.28083663846817464,0.15725356693223347,0.10769623962124975,0.14395110639477426,0.23041389366940557,0.15942848425989586,0.1522477174361696,0.13005147173754672,0.09333201973196337,0.1975583172605866,0.4718228172215282,0.42324050018863435,0.15420238497405014,0.1265643259468554,0.04766435946815406,0.15624955411600583,0.1839465699165035,0.12107721006614103,0.11709395082661977,0.10943090242784548,0.06849839983996375,0.19503330146826903,0.5199523923258198,0.4359317801587981,0.12843121112463862,0.07029252828270893,0.0,0.1263065530313665,0.264803248134442,0.19123075429089997,0.18113265547483248,0.16092199872083857,0.126853410586945,0.19006914258383922,0.44177789368243836,0.5376069792539009,0.21022770592588014,0.11914554582190862,0.06923037025449386,0.07370280654720407,0.2180807377333367,0.14278710644346848,0.13714866774361623,0.1440198110380977,0.10433759556938638,0.17937574410441126,0.4596083024528963,0.562879205286885,0.22343567310014079,0.1381778113935752,0.09707295678945416,0.0725776002028864,0.20242584094186267,0.1497811353748495,0.15179817706271548,0.12573527170172616,0.12134611499220194,0.22592073463537243,0.26244107723492016,0.211496797155033,0.24494375708362215,0.2384086121108946,0.26149180236450453,0.300694512177484,0.16525805643604352,0.23497111369858237,0.2379657175001162,0.4535505060428382,0.912887863487196,0.8408325828141789,0.3887369512281471,0.23609820926743552,0.2456781168454789,0.2416001034755615,0.22514642568352183,0.2880980810830689,0.2972732515498815,0.1662055614745528,0.20837606478956117,0.26771270857756324,0.6195274698832818,0.9655106390891124,0.6196661095257756,0.3090375087251802,0.24728378205354717,0.26008102496329055,0.2773107899600902,0.29716635902728106,0.3835219925647193,0.20981674854003973,0.12487119008219905,0.17303673647898865,0.2867915185659058,0.7160975270445369,0.8982163469092654,0.4609016976845721,0.22018765995616896,0.18819270857854287,0.21187372105901803,0.21534576887977552,0.24476442669930032,0.32737206752690184,0.1933835394024821,0.2110493279213399,0.23125851162471633,0.43348728294712036,0.8987487564697192,PM
1.0,0.7526125647171806,0.7732550085035328,0.834620872618125,0.8298527093688528,0.8452613888161795,0.794007382585797,0.8006836765084904,0.9023324261275638,0.7516553189079924,0.5049528124067462,0.7923730050227968,0.8501062033353941,0.7891431174392709,0.850346786918935,0.8475481080749749,0.8666079413686578,0.8013160916060835,0.8315084449315431,0.9709820800929849,0.8901350974536268,0.6684424229502515,0.863259474209312,0.850135410634584,0.8248604098919343,0.894769528303899,0.8871879095438144,0.8861763332347938,0.8443756902015402,0.8367876620206327,0.9694801869358955,0.930264938447924,0.6575389560146276,0.8057455676496597,0.9192114772418343,0.850230789093986,0.9111302172196916,0.8883109626586863,0.8500275483666626,0.7742697301985513,0.849059666159842,0.9707760719939871,0.8392592912672474,0.6790995719632273,0.9485276152765647,0.9114934631664933,0.8991501145810399,0.9437405600262805,0.924777641455774,0.8586382946341273,0.7912646671585444,0.748948175781031,0.899285566831936,0.856583134725184,0.6380154236165332,0.829755181429499,0.804137023653384,0.7893762987930901,0.845584627985672,0.8570853112035599,0.8659923088864385,0.8141589673007767,0.9347828150417783,0.9789552212004611,0.7514876321585922,0.8126562371958599,0.9503686056397851,0.8652909050506756,0.9446217232133143,0.9448424928815591,0.9265961354229941,0.9086501590451808,0.8149932653669758,0.9017294936994751,0.9362046941343589,0.6694883461459611,0.5691098392464422,0.8665940027297734,0.8189793796268927,0.8722140072937417,0.9025574197535744,0.8742370255709235,0.8532740824311928,0.7696221419864591,0.8700039597223865,0.8652766204995639,0.569896552118331,0.527136502373879,0.8544905951533526,0.8139295631789669,0.8127755023665966,0.8533606681358217,0.8433776367258257,0.8555760621300585,0.8045732583247447,0.8062136873431158,0.9272274783179979,0.824010453992412,0.6456286105767379,0.8754491585576636,0.8149503235669253,0.8423890323084109,0.866380814648215,0.8539301444172263,0.8469700212276821,0.7712876516527776,0.8829924866541319,0.9171898765057414,0.6571568182267229,0.5124891454786362,0.8631594342645985,0.8726424884190758,0.6858809833238806,0.38392495054536546,0.5172806784620101,0.7697924299768046,0.6547884267954887,0.18282995186392004,0.0707669718388062,0.5249539163438008,0.8406558796605812,0.8013767430190373,0.6970779584954694,0.7748588174468676,0.7842650719908106,0.8027527913148083,0.781244494190779,0.7266184158228048,0.7637432235861041,0.3921009917306293,0.08304453922047106,0.4298787820318615,0.8114845095793148,0.8263545594192547,0.7011080607588553,0.7681288760903682,0.7820308633534228,0.7742712415991031,0.771621391449786,0.7000905083456908,0.7483111241190561,0.6038082752377791,0.12182248251790084,0.0020133479837531887,0.4569148765115396,0.7961641866075237,0.7831770273878993,0.6885889245253125,0.7928768267140844,0.8180429883896756,0.845425106855747,0.8004779996436544,0.7209311022073357,0.6995347975356783,0.2874102735937085,0.07427250664262064,0.45759600006060985,0.8279954846830417,0.855891289690589,0.738935835565731,0.8243177632035317,0.8519939979590547,0.8718727556324004,0.8743559652548485,0.7798170602069985,0.817508021077562,0.5503665510829694,0.09304195477602129,0.20110293322669892,0.6869737659375428,0.9154734531998434,0.8233983280651351,0.7334943991630269,0.8043630669901787,0.7948737721550185,0.7798526717584755,0.6968298836811568,0.7404499524370838,0.5498773559528782,0.10894237869362922,0.2230204605687538,0.671451314967809,0.8479188149155052,0.7197911488589321,0.6821863197779754,0.7799349226620587,0.8371945253051445,0.8735557120287374,0.8406950376884379,0.7908328652578245,0.8068606688418427,0.4139947501031922,0.06005997844431721,0.3112891303027894,0.7438966365424236,0.8897374878904079,0.753462375220459,0.6924931727032195,0.7849851734949969,0.8324719321464848,0.8469068457997149,0.7718647673496077,0.8122505305340875,0.5611965588166297,0.14704379241946297,0.30942422653497825,0.7509013650710825,0.9067949274288192,0.779925597104413,0.7513055557286501,0.8164057233824864,0.8102058160423677,0.826669709812097,0.7840345689766282,0.7159139373525636,0.7655708183982282,0.38530073049466607,0.0,0.2657283500784515,0.7209844301147177,0.9016106270096746,0.7778058503306027,0.6749000107775966,0.7889585831306158,0.7920031475373217,0.7918413357485159,0.748630950142632,0.7106660802419875,0.7139154739159337,0.29635891551087434,0.07547242476282445,0.4833556390515832,0.8171962532869101,0.7782688427396929,0.671865465784732,0.7667798857103123,0.7618726923675911,0.7652401582447914,0.7438591354860336,0.6411734890764742,0.7635690195327856,0.7909926350319769,0.3384653924735592,0.121975070078435,0.5369460688610981,0.8949549836333417,0.9028152166643797,0.8085457880263993,0.8748553049551644,0.9215744450463021,0.8917831738841091,0.9823849950667731,0.9492315547460697,0.695426581696537,0.8922056060972188,PM
1.0,0.7568964868465624,0.6321892519824814,0.6075335811498199,0.5591801069964482,0.4634163351235112,0.42235758596568695,0.4769168341385601,0.43931955060698913,0.4453839358135925,0.6520901491180555,0.5016058795361551,0.4574304221884278,0.532700350909729,0.584275227535823,0.6571323753147693,0.8376056112955106,0.8430283123192228,0.7811114961531005,0.6899516545262907,0.5504231899265708,0.5057113257072112,0.44233595916444024,0.36168552202031523,0.44834356553758603,0.2690117960051863,0.24250929604804217,0.424403087750735,0.37983465138924655,0.36068989995316025,0.4339749593662967,0.5296032921256435,0.5543912145339362,0.5695559351591526,0.7446781770374198,0.7657685754981318,0.5505892167417632,0.7446617040213264,0.8119484270397423,0.7425189840389752,0.7206051228558574,0.6026280260008323,0.49175154683829936,0.26191810564732987,0.3427040996195465,0.5996393004666061,0.6845439376027951,0.6730808285233527,0.41969410474358426,0.4977899390771152,0.47316647987217886,0.4502463081658261,0.47604444458901574,0.4931937666178703,0.5200501764659045,0.5246067186195162,0.46956240999079446,0.5899587293004611,0.4658118047111346,0.3434200137129655,0.5756751443302233,0.6480258792084452,0.7045818506597739,0.7624306416395878,0.8627088717093758,0.8912340280885731,0.5921858640097151,0.2529586181214465,0.0643988164145477,0.21240630571768548,0.2427572670713487,0.0,0.1681293732687663,0.3619008963602637,0.41273227457697503,0.47567556099408437,0.5164058490654448,0.539540014176132,0.505000591010865,0.4701508041739455,0.5865702434379725,0.3829078379740336,0.3579527809666081,0.5601560857906156,0.5759173237925368,0.6163414641625553,0.505264809020388,0.4406277068543396,0.5509009692158524,0.5712242336887043,0.4606369644535908,0.5529361512846509,0.3954212524267544,0.2972906990587616,0.536563613117587,0.5925066417880531,0.629639711187508,0.6303713255777601,0.6409020211160654,0.635982688236084,0.5514243034888633,0.6230119633150619,0.5033322698755915,0.3273314221979764,0.5255371972699052,0.5587825222792158,0.5663150137766833,0.5516235904657845,0.5571350424645298,0.5537994209450372,0.48169243156167063,0.5520342710152022,0.35960270137147177,0.2863358932341791,0.5256399904957312,0.5619950803735567,0.5716750211990052,0.5573093901654498,0.5681624684350752,0.5708118706807497,0.5014138431256567,0.5660960884733943,0.501309941415141,0.3217503292023127,0.5278302514024724,0.5818349556410181,0.5853723020346586,0.5794044043193511,0.5774383307256943,0.5746066299429788,0.5129708382741054,0.5816075350707313,0.49798867527746404,0.3251833984375503,0.5218190099239854,0.5622400010396285,0.5720587461733531,0.5553723066207796,0.5541601206923708,0.5505970553629331,0.49314991260542307,0.5636177645353415,0.5249845707160845,0.28256766223254304,0.47379828333512597,0.6005989061261037,0.637869339649876,0.6126692287192155,0.553920547821106,0.7749319859587152,0.6604238427024085,0.5694323406062054,0.6161129765734286,0.6093634069461373,0.6169406444904548,0.631663445252852,0.6173054797133819,0.5971437709510541,0.5284810207638215,0.7621402014924121,0.6996536609792621,0.5932022616877104,0.6329416499850056,0.6295414563246551,0.6414800278308532,0.6431891268080894,0.6425600047409854,0.6043158736443255,0.5438520630037851,0.7747246330490194,0.6695246892553572,0.5859437965744729,0.6368078685424354,0.6227111730370547,0.617385005522594,0.6310830197637833,0.6227882400657574,0.581455940221022,0.47898508876224133,0.7114775608000028,0.6723374642602171,0.5573999737551314,0.6105718020773199,0.6109799867091059,0.6133723567862286,0.6298665657080877,0.6147869522298461,0.5976270785724731,0.6057033206235003,0.8069218213668514,0.6767546437640894,0.6436257491229385,0.6994055298145554,0.6885722704061004,0.6907362470251761,0.6790160819457318,0.6492282943323238,0.5837358189443047,0.5323254366491517,0.7605460456596029,0.6363012391311353,0.5587273235192729,0.6635154324142927,0.6020504256948573,0.5310963649081293,0.6443021683222234,0.6630875249451131,0.6352686958641196,0.6168387808728419,0.5817055826473387,0.778821268513151,0.6411478556744195,0.5350481994400105,0.5886167031020557,0.5879836877822258,0.5513271397672592,0.5034612034422312,0.44453533673144907,0.3514908277548896,0.2676897623279799,0.4722994706362975,0.3252335061323397,0.15967254851686974,0.35446097661485965,0.7095078319810058,0.9803649140632666,0.9258772879491817,0.8252259869979941,0.767762276277939,0.7026942609349955,0.6552679095329377,0.5641398029466078,0.7703624321014573,0.6724251665112781,0.5460261144550866,0.5831174785916251,0.5691156558468742,0.5491442794910428,0.5152612194632442,0.526163015843899,0.6172564844628372,0.6424975123055181,0.7766380966524471,0.9098481506371314,0.7512180100581558,0.6767759325226934,0.43022917488465273,0.3858114169755815,0.5985089273523045,0.7022084021795485,0.8081219477366517,0.8195738412674425,0.8997918454456615,0.8123286988475211,0.9334461424854044,PM
0.9999999999999998,0.9854052321575486,0.9260667013142017,0.7613172928938494,0.8360107810513797,0.9087973058081744,0.7279060017502614,0.6904661946644539,0.925200619109791,0.9176707044479848,0.926700586024624,0.9094518240205518,0.8731728780155212,0.8544136270348044,0.7426734289362964,0.8352815964242855,0.8929167155902802,0.6815584366232927,0.6041374283703418,0.9126507700415172,0.965236680453718,0.9855491691119751,0.9716895966943178,0.9315793002416142,0.8500923450235065,0.6752024127520799,0.7925949726982433,0.8982475418264293,0.7460340208128164,0.681390585648652,0.9060218757034468,0.9494888196377895,0.9738217561934996,0.9654515546983145,0.9318588815363535,0.8728285914962652,0.6705220134174998,0.724272933322023,0.8712737755654592,0.8028342553111096,0.6062772122353566,0.8423789802061548,0.950493726462833,0.9224624751742414,0.910984266710998,0.8985515942011812,0.877509878720381,0.7265242805879903,0.8131803860777331,0.9562518779140798,0.845858541997097,0.6941075408393844,0.9283795483567985,0.9771281312208486,0.9568769843261078,0.9308484840206639,0.9010039508754379,0.8612776636749004,0.6972724491391873,0.6921966868440184,0.8673623747757973,0.8104225475920306,0.5846394702239988,0.800406572075308,0.9241792538291558,0.8925606986754457,0.8459422407899908,0.7931315452370356,0.43260151487254617,0.1622171536580408,0.5112996637285845,0.7815579610536172,0.708408517743423,0.5224534151553464,0.6773707149291439,0.8055763697699463,0.8341172716810352,0.8670091252111589,0.884808739685391,0.8769837345860501,0.5858097447603263,0.09784341762647464,0.14014153165109344,0.6083560456733397,0.8635042747735782,0.7660175214220619,0.6080795413584765,0.7570325834664107,0.8201484094462945,0.828695075820445,0.8378665836887149,0.8504216683982457,0.8486051551090787,0.5247545691870583,0.10544391119743834,0.31666934109756384,0.6984716237601842,0.7631647297154551,0.5784535714708909,0.6126172856178147,0.8117958989727321,0.8626133571471428,0.8881642335613942,0.8896495576896768,0.8653730617974784,0.7752050180595844,0.37220855163461475,0.14667728505517164,0.525192200367522,0.7984888066742604,0.7405404532367001,0.5790846270695738,0.7370225498790137,0.8345960469145182,0.8848939091914014,0.9109664506590989,0.8830144795824733,0.8510317811620365,0.5201204673695325,0.026944659173397056,0.06844062048713373,0.5410741569214454,0.806598597409492,0.7417563604442867,0.6365972620836955,0.7628802215544865,0.788973987790148,0.8263203435881497,0.8447284170933707,0.8372452474980963,0.8475820734155313,0.5329378662546957,0.05413777527202135,0.14231458072672543,0.6115825693043442,0.8325336158542058,0.7411985167970705,0.6645900853217916,0.8381145774593148,0.9074700216764142,0.9194254972980038,0.8762277434469288,0.8266154509252635,0.7686879468623522,0.40103369085317575,0.08590091689702528,0.42218880694345695,0.7658185929720551,0.7536291177427159,0.5705659227588427,0.6843088158362993,0.8294830095561221,0.8705357263382976,0.8949260750780248,0.884470417673261,0.8706976270636224,0.6571901133662619,0.2754636919675628,0.44644308748916983,0.7887812411662607,0.7960576185002444,0.5878297898581144,0.6457317409216785,0.803673519637923,0.8018844401777512,0.8349946122271665,0.8393053580083525,0.8507166057084141,0.7387047831572582,0.2874759205467414,0.1539590456687734,0.5735283449480921,0.8199557889664637,0.7221753403587605,0.6062041835747978,0.7744565672724126,0.8468229734418291,0.8671208489123512,0.8609916171440244,0.8613041309488836,0.7288223753605745,0.2588734050442649,0.0,0.3911341153861476,0.7632083493664321,0.7771181063952277,0.60191397342591,0.6697394247688317,0.8048464575990073,0.848929824282812,0.8732870357782059,0.872905148468883,0.8753863297071918,0.6021272040844432,0.12061052020311691,0.15850323292553337,0.5943416510687858,0.8199713632235046,0.7257518241785486,0.5835647147139624,0.7656414261131108,0.8045062940366747,0.6893266198544243,0.8543606019108927,0.8989683593991142,0.6617756660812331,0.5553827231651136,0.8828625320185683,0.9657270389609167,0.9550838177101364,0.9428899814449869,0.9120997862226712,0.867968838045954,0.7148160271247741,0.7540872698270034,0.8874543465302096,0.7751890340744378,0.5391250729822217,0.8066225411156871,0.9446577448811755,0.9402527327441528,0.9475505017591048,0.9362791628869489,0.8984222312177639,0.7421739286164601,0.7408339195986102,0.9008371677071885,0.8273712468068333,0.5695499861170938,0.781488331001787,0.9329804400708197,0.9242298729687086,0.9113867379989873,0.882321170037929,0.8861726512126002,0.7522950819051595,0.6668876149298251,0.8668356708484357,0.9072913434585941,0.7141058327821017,0.7904102345201782,0.9556417731770279,0.9674402498027288,0.9770479054501522,0.95582997949193,0.92202550086579,0.8311395902251604,0.6653856154388336,0.8050767364996971,0.885115698090704,0.7005920140346265,0.6992810376569782,0.880673999374898,0.9111542033066586,0.9655624226649071,PM
0.9803855447257526,0.8684095186475058,0.6513420868188173,0.390767542538204,0.6264664465939291,0.8495969087229938,0.7939956962256438,0.8219425954552306,0.826168864491384,0.8714940536795084,0.9722616012954937,0.8751686573276585,0.7359896215512998,0.40691009058252603,0.2708151244025707,0.5948289941676843,0.836326424436318,0.7907154769153661,0.8123524725148661,0.8403897964589331,0.8815657435933713,0.9724440503032139,0.877093697761679,0.7112486813965426,0.44753517969475776,0.6408662029687078,0.8518979385125616,0.7709975793062429,0.7959071373004989,0.838473530474795,0.9056967227803732,0.9877822846699293,0.8852709734168938,0.7229481253006973,0.4663657772524057,0.6551798520503345,0.8617746687852097,0.7868762337616344,0.8052306674192735,0.826979449689945,0.8890215177741334,0.9564013340790793,0.8704883856049306,0.7015073156121348,0.3811129910457709,0.4679650303714751,0.8060168519624189,0.8606241570476421,0.8171709802669342,0.8685219707647245,0.8243078823505594,0.8968934943440536,0.9596236960057267,0.8747868108108441,0.6509577705947476,0.44718090403186506,0.7349104318662705,0.9172735219312143,0.8391846830250871,0.8548405890199562,0.8636405465373505,0.857084713845413,0.9482648700540304,0.9351127910689301,0.8212881921074784,0.5765721308037115,0.5340638548644139,0.8272035352254521,0.8894326073152139,0.8778236564980701,0.8811583473724856,0.923165120577873,1.0,0.8937650244458801,0.7279372204116563,0.38515400143960044,0.40142869488387456,0.7515123507381867,0.8327298855321581,0.7975755211721554,0.7863742507401184,0.8475811989259852,0.8975806247205824,0.7848057835156714,0.5897786363066317,0.3604236451160603,0.6105419845748998,0.7977337307283598,0.7985991029946191,0.8342387380547474,0.8618481906071123,0.9514482327777687,0.8841296376527867,0.7313827627987399,0.4043763965067013,0.43552861862061,0.7770856680611702,0.8209865845770103,0.6398579221934082,0.5509352716494877,0.5510308527157963,0.646467672667645,0.7518301574056585,0.48152351603915156,0.09324086987167002,0.0833573575831158,0.46856780468088144,0.7647658421498094,0.8811138892364156,0.8679454469069239,0.7989084954192467,0.7688891062288037,0.7445406176306189,0.6926178778660483,0.38139969496481085,0.0069008988101462165,0.05587266165850702,0.43287999629363383,0.7020456705878579,0.8169285135949547,0.8335774675773919,0.7343320284656865,0.7457726566576699,0.7529607859172807,0.7335560418670017,0.41463739447469417,0.050239368140619245,0.1350158676359533,0.5330640417339825,0.8013874069718732,0.9191568824273744,0.8837413063727977,0.8281433871092156,0.8314268924452908,0.8309756692876891,0.7309867252136513,0.36506445767036966,0.04461639494908076,0.20522864601321467,0.58567165501512,0.8086508438328348,0.9129891609654326,0.8519890493495867,0.8139348072427319,0.8131224456197932,0.7884870524989969,0.8118747460227933,0.7338601231253767,0.3549166120873455,0.06451540845321879,0.2838841745602467,0.6628494334132644,0.8466388646127636,0.9196004736407344,0.8170842289249824,0.7837603183898783,0.8127323260836037,0.7535983191735722,0.7985779501846937,0.6158235784976651,0.22043789751043696,0.0143512795889984,0.32278179014063113,0.6943879465395444,0.8484038523650019,0.9023114590024734,0.7952444574149165,0.7805155502032843,0.7302359347243341,0.7508305370727948,0.6971214349318515,0.32804251091451375,0.016694503748724276,0.21391826646170287,0.6095974170615897,0.8224713562516541,0.9270749801673612,0.862387824777314,0.7915519623792648,0.7562220448878108,0.7083363232740363,0.7703369768665624,0.5598347262912005,0.15500041587255475,0.0,0.3385626460227098,0.6991306119854128,0.8453425766547933,0.908598209589133,0.8049940264324977,0.7868190631388841,0.7456300722532498,0.7332468527205014,0.7342198704743568,0.4060725165931689,0.0279773419623488,0.07131472923119353,0.4669840151935918,0.7564067140658934,0.8784322631278876,0.8722466652259631,0.7806261228127187,0.7800033294314079,0.7390945973021916,0.7681738153244473,0.6390362909002216,0.2485043381921399,0.008879639928148442,0.2919004256872777,0.6752672831925337,0.8488571321416059,0.933905875031593,0.8218138487957836,0.7787600995300088,0.7670432970413239,0.7521243286527897,0.7227496299466312,0.38822190731473505,0.029587092522369907,0.13373482368728384,0.5235255817158491,0.7703537028830743,0.8828942095264538,0.8641263761329545,0.7826831062869797,0.7818095324656376,0.7631654619614869,0.776840603588016,0.5152907170546961,0.11665219796190607,0.04052466982670333,0.41047818973995187,0.734267712744554,0.8599087388264626,0.9457531980369613,0.8531232937031621,0.6597743130243812,0.3646737186622846,0.5393698258264719,0.8329257797955216,0.8315955974808531,0.8231858832934449,0.8328159485123128,0.8868475301016545,0.9566958736150004,0.8513130424583739,0.6684529606081224,0.3277158144821717,0.35810092637105684,0.7222725898039906,0.8354232615036117,0.7972929896915806,0.8304487037418391,0.8285552800011731,0.9398389449978122,PM
0.8879687226306369,0.5749064343217932,0.7100074558801072,0.8955879675959898,0.8229298503772354,0.9598716124177537,0.9999999999999999,0.9643803195181856,0.9448158860662293,0.7912279588904426,0.910177642232029,0.9590154623492396,0.6868770689144416,0.41998936342139104,0.7062083877739628,0.9593468747676822,0.9710585228640326,0.9886649917548941,0.9390628689037627,0.9469092049233615,0.827281913816737,0.7634608574188736,0.9315453500340048,0.8795766944604199,0.9076534221564184,0.828612756320584,0.44098657149778975,0.08193235139276,0.27186067934363856,0.7020926299796665,0.887442521750884,0.7254972055354033,0.701982315714386,0.8737061053052161,0.879270613702425,0.9237307034022485,0.9056397461185187,0.8680495833730902,0.561399550037076,0.12418389196221458,0.07325477553289617,0.4838390001300138,0.8402421781675505,0.870953222945097,0.7087019931764097,0.838189892136202,0.9055249639255435,0.9353552591936573,0.922960471308821,0.7685463658188375,0.8142000657203018,0.6881379110807758,0.263116273022752,0.12669586315753445,0.5120718991341068,0.8244896841079242,0.7158820960691811,0.510251504551177,0.5281794223358184,0.7572366149914845,0.8061304160188302,0.8386023305093934,0.8195185207946597,0.8307957671942346,0.6076477988628649,0.16977467753864406,0.04282303531017684,0.43182308069473374,0.7975705066242956,0.8071060905480415,0.6470279756795151,0.800404455110678,0.8792175780610153,0.8983911425591199,0.8922217405742633,0.8742088970268739,0.786538662636438,0.3739782750817596,0.08276061927482803,0.3515325849668557,0.7535005017273307,0.8724633947556774,0.711961928043232,0.7678658304502833,0.8972283416930146,0.8756935891870391,0.8928594531561574,0.8663502868967344,0.8436147321560418,0.5246703046732372,0.11188148253480157,0.14388915328858765,0.5679653136807782,0.843299236391884,0.7655346397642947,0.6273048968249205,0.7945252070378429,0.8411582626641371,0.8518756215134468,0.8310262404876719,0.844982592050559,0.6440879473240338,0.20972162247912107,0.0,0.33918529978138656,0.7463678988609913,0.8499107303683106,0.684377386233446,0.6993089466090757,0.8616882014499908,0.8783897645931326,0.9013976104021674,0.8587308637878711,0.8652118731709298,0.5811766728961246,0.16816224021035986,0.20589650922637992,0.6208175968204063,0.8640663781663919,0.747526331816652,0.6516484598472508,0.8289926657842749,0.8579442635080717,0.8694221810684498,0.8365856006873892,0.8522402865841189,0.6189634690728815,0.17764754598672938,0.020060011977164782,0.3722094641816037,0.7713162990611963,0.8471722167097929,0.6652533638605084,0.7669380406151104,0.8879543897069103,0.9049106597758906,0.9288340350840142,0.8817825932673983,0.8096397227421687,0.4351118770365944,0.05959161589751549,0.2237392029623152,0.6565725400646952,0.8693023831096992,0.7367713123506582,0.674103459079331,0.8556625924663931,0.8599503104108618,0.8643919446685021,0.8391849943392097,0.8493929575138391,0.5954447028856514,0.16718462126972466,0.11939742034766432,0.5298155259071519,0.8278683456440269,0.7454466978984445,0.6164166138657233,0.8051043358820077,0.8424188852378703,0.8378904113998576,0.8204665427954251,0.8591112051160544,0.8925665265657704,0.897871447510001,0.8713093680812768,0.6926047113181794,0.8123265014988833,0.9039842488565909,0.669103023553726,0.5485779120937558,0.8569216391204909,0.9082587557946983,0.9191524622550035,0.926931886490375,0.9322603081118849,0.8592248242842356,0.7340965708045532,0.9092431824106383,0.9132103823026106,0.6454864362366789,0.6832524527042628,0.9224031861989767,0.9577583916426714,0.9787169800609646,0.946890302825261,0.9249835822346287,0.7543121266169691,0.8075367722654644,0.933986536745751,0.7582008630064446,0.44394629536274766,0.6437105086057283,0.9277523305329197,0.9010455601060395,0.9217185166670133,0.9161094044868828,0.9070619403848924,0.747243980801439,0.788387861646484,0.9275638744403661,0.7535499429203566,0.5543902604551455,0.8443934331618491,0.9439410681972268,0.9399148758053987,0.963315991144217,0.9370390036499524,0.8834115374859882,0.7246438825388356,0.8593359923079597,0.9028555084183617,0.6310545082968783,0.4667821426468449,0.7803529859602617,0.9052126881078778,0.8994897872905322,0.9074695302387766,0.8966622362517921,0.8449283570624354,0.6981996499862374,0.8530041790791866,0.9005512486164567,0.6313243791035995,0.5276516644439427,0.8520665781375826,0.9377016383918558,0.9494940477583839,0.9408875574190131,0.9521411518658388,0.8795178067645174,0.7729549982579521,0.929183666009337,0.8737848653004233,0.5939718854515607,0.750510699571251,0.9499536069646121,0.9378918755834335,0.9688180701698056,0.9332805151733251,0.9344340354164528,0.7973351758245432,0.7838659529160855,0.9115505810057808,0.7460538665127251,0.6032801234381399,0.8676749734904793,0.8921108408514059,0.8945967996679515,0.8799220803385045,0.8545006016676079,0.7467628917662862,0.5392524081039775,0.6683816233382077,0.877098431275661,PM
1.0,0.8351290298789524,0.8235037441232982,0.7048451200966213,0.7186154631506221,0.6596213665449917,0.6328667744954224,0.7676993981673634,0.8339876661841084,0.7206807360621004,0.9438399306758587,0.8347222730689503,0.8282175746302922,0.7636886904237445,0.7308576350031184,0.6153145094245698,0.5235341846450727,0.6210987315074683,0.7102142593606682,0.5556547759795398,0.7589074918843752,0.7022832521721285,0.7178028724376158,0.7213167413300008,0.6976495140606502,0.6539540870478935,0.5260201228139705,0.5888811722903853,0.6859002438987019,0.5371658808787352,0.7223907205432991,0.6988985115790256,0.6658763274187045,0.7153794715336881,0.7630194254234075,0.6559434353325782,0.6822993926510703,0.8057289828871643,0.8032591581686725,0.757038783094186,0.9164489062541841,0.8160578952803852,0.8402815757048487,0.8483069208538687,0.8433446750410063,0.7112671041504561,0.7594219747918909,0.7970259338600987,0.6155529327908869,0.8051574428123813,0.700877317437512,0.4298863161715403,0.06128170076127759,0.32687191723104503,0.6166455621060343,0.3058712858144377,0.17263797202702724,0.5958163274817281,0.665205518682773,0.5997530743774924,0.7143342066505682,0.7533619644962459,0.7364304253503215,0.6909883831843535,0.747791577762817,0.4890690134472466,0.11390327047442916,0.46289036264834227,0.7048021907307489,0.6229664273233837,0.5168112118598884,0.6442895206859762,0.6392982094951951,0.6026483778821747,0.5400921306529742,0.5912679265524403,0.25916025687297184,0.02573026645630261,0.43647073962814575,0.5240659499410762,0.44449697645848074,0.4361471020931109,0.5929826598989085,0.6085219432068261,0.6365831734009326,0.6025085199890028,0.5895542903466873,0.43100003152246336,0.003608412855176102,0.30817985503195633,0.558093954336984,0.479057849022841,0.415902474529378,0.5823153853409573,0.6359908955851474,0.7068943513308072,0.7152491628880231,0.751083236393014,0.5766972429888146,0.13024583553222824,0.41886701711943086,0.6855680620617819,0.5951062850612252,0.4923710782713675,0.6121133989988063,0.6032176854269942,0.6505422699443391,0.7308811676282718,0.746539820910511,0.736312531863812,0.3147449953887693,0.48832471504308383,0.8261181063902581,0.7834801851589113,0.707316834578068,0.7914750462256266,0.7480716159762193,0.7299778490314752,0.6551663969817123,0.6637093418532847,0.43517322162746463,0.004192322553580485,0.32860193070874866,0.5706563183894988,0.5280219774117882,0.4914338407818404,0.6231362306760504,0.6300299656831863,0.618431016696094,0.5766403375818414,0.6444667363200054,0.26252989362236967,0.26462001863015905,0.6530345395301311,0.686455862562545,0.6822367763104973,0.722119427258352,0.7123545518036067,0.7350502146069515,0.7444002475307436,0.6938840641855708,0.32065191881762756,0.592503174417562,0.7494661828781424,0.6548227312006043,0.6013227430262309,0.6811044474576957,0.6281301551540301,0.5848677891761587,0.5711280525489406,0.5715997040377574,0.11949983593344982,0.18465176205123512,0.5789631679067244,0.5210983759730285,0.38169818150377566,0.4623649579349931,0.569558626739366,0.5357984057519487,0.4617415216903118,0.5634547368408871,0.3493154286587652,0.0,0.383084006756063,0.5248814532002557,0.41066135535410897,0.3685570202947379,0.5496643260376239,0.6073878328591977,0.6515831954359519,0.637974143441308,0.7408872726132718,0.4395270331928809,0.2809275807539189,0.7116996837109353,0.7797843116537457,0.694840006313814,0.7333191860670829,0.8630976090055884,0.831631131923996,0.7698347461784114,0.648119891051627,0.6259790219781087,0.238516452213688,0.22732420268715314,0.6413453643483287,0.6365205018819062,0.8246305104977618,0.7596564554107732,0.8681133528481841,0.9297934027275456,0.9597759414688816,0.8494520688629952,0.7868653080400407,0.8837670689986763,0.8885618828389785,0.7757283485932356,0.9312913903622562,0.7765900231712948,0.7455214519718543,0.6958350989040589,0.648251040206846,0.47860928357311217,0.523375897973386,0.6427189343781445,0.602992430773174,0.5816923886551031,0.7306545422534372,0.5895244078932524,0.6273104344916836,0.6662328036452005,0.5713027525629761,0.49316311671389323,0.6344635074430607,0.7329133781053856,0.565865336163093,0.8005135736734887,0.7071157446792475,0.68130594410635,0.7210921493285034,0.7832701214171935,0.6978048317730883,0.762899238569771,0.8644450893655149,0.8596773545611383,0.8490634309146841,0.9474488319930412,0.8288567497858614,0.8364366009036477,0.8054670167268076,0.8404869441761078,0.7725211042618612,0.7928042688825991,0.8177291649651313,0.6800798361113292,0.8677858404735406,0.71340694227785,0.7100908830592192,0.7238174359543339,0.7218007683095848,0.6085942304225354,0.6207495990579122,0.6985999302979509,0.5925972827271142,0.7171953238623194,0.8128420659766138,0.765562565168012,0.8300799727783623,0.8442718499155029,0.8914524666814105,0.8162982990643508,0.8862784642733206,0.9631087002676582,0.8335470146056396,0.8761131576820995,PM
1.0,0.8111786505550027,0.7932807690568868,0.7874512588468177,0.8953297952587973,0.7137559369988371,0.6413917433311869,0.43097187436751394,0.0,0.03265339329295536,0.4659016512683074,0.6187522916697841,0.6643409297246681,0.5829454056185894,0.6284204214411666,0.880018708509835,0.8141308216244441,0.7404352132788792,0.6894241845949911,0.691102204937557,0.6756316323461116,0.6329683598313722,0.6006637438793594,0.4508107026990298,0.12569262652301738,0.022677894478569716,0.15314202732174254,0.1865079107418044,0.24000389107346942,0.413175560683396,0.295575332781969,0.21665288865141408,0.1482598121444081,0.32211288434964036,0.5992635061506801,0.7152752003028269,0.6805714344361937,0.6045543970883687,0.5224901248091607,0.48789015690121307,0.44664799552111,0.4643640228773136,0.45784054128850604,0.44409026831289067,0.3109003346416084,0.24494424972224538,0.3125534888385282,0.332363259772519,0.2940237068195066,0.40241316420015005,0.5388226354012824,0.5076160337544771,0.4916803304982933,0.49796766891155064,0.4913032958245056,0.43759603697813,0.38706798434780776,0.4619571028452034,0.48506231789616905,0.48694892688075253,0.35283754536841183,0.19488532484125587,0.37816116167267655,0.3998898902464392,0.5039093354968278,0.4725314065526214,0.484210366074878,0.42369011675875345,0.4173429704423799,0.3991440963929893,0.4011803569423784,0.41271932874123207,0.4627635733449891,0.4959991062440081,0.48395706333759225,0.5030957655629109,0.4983437522062584,0.4430085937523023,0.31019068189668797,0.36829264855672905,0.4675983694344943,0.44574693007533206,0.46783558041004847,0.4587947041347298,0.43324724203177833,0.41036872677527914,0.46380061445664067,0.4601142463405754,0.42704444850160783,0.46360925582739565,0.49469106863243395,0.494330053138905,0.4326211680693577,0.2629393072416848,0.388095251365534,0.4379165787344732,0.4629333396805251,0.4649232708449391,0.46407323898942776,0.4620012564050744,0.4360196176540221,0.4519301019430193,0.48398541630385683,0.511589727344854,0.4528305605376848,0.3323979653725848,0.3080818954303046,0.38578010466155543,0.40132645354131746,0.41580858461544423,0.4360560257576118,0.4589841223231099,0.45028981542580304,0.44954702244039213,0.43709062695315026,0.4602782035687385,0.4075921355089194,0.33119226909994914,0.5121262028984841,0.48768147645280324,0.456014247532015,0.4335472568400962,0.4461197401285024,0.40550411288670807,0.40569618614414704,0.3776180589227005,0.38976373886814386,0.35245636484665166,0.31344460255981854,0.3696152645528352,0.47216204187956734,0.5406754379503438,0.4214703232391206,0.4718972764580367,0.4886812720302154,0.5080509456802775,0.5632570206033862,0.632135001077966,0.7841653969413742,0.7014296199756291,0.618411237243043,0.6049259827011979,0.5132791928755878,0.42313503450646506,0.40847840650770983,0.4720248671502256,0.46316565686831535,0.4917563270256311,0.48783338580569735,0.5153481946180327,0.5370306085667349,0.5142462142197788,0.5788388897874359,0.6461439099798709,0.7594604084291925,0.541006098036604,0.5445605896137202,0.5469380834078534,0.5189366772170927,0.5396745144256068,0.5443725739523306,0.5542227708909557,0.5067299035351032,0.5192737983851314,0.5138049967315812,0.6945062700242146,0.563648415104641,0.5128585284686729,0.5804665799230446,0.6027156098818569,0.5651616693761654,0.5318932287817795,0.5313729389251156,0.5538486836756609,0.5530180196831891,0.5639478025500977,0.586660222124038,0.7454355848471788,0.584525909107088,0.5106598960794786,0.5715832178442213,0.5865319876198511,0.5730855900907845,0.5179040291715094,0.5474901515896344,0.5566621454075955,0.5165337754122246,0.49741940566872156,0.5429681639239639,0.5699796453172219,0.5366628807220875,0.5954036170110797,0.7357359877187077,0.5363683649771751,0.5279226961618786,0.5856066785876477,0.597310693120876,0.5636036761995236,0.5896932409229794,0.5632101838924122,0.5111062835757032,0.49646889747147593,0.5006071422351113,0.5203144737110601,0.5186102723573969,0.5779725130343678,0.5651836791071774,0.5978949409809178,0.5699203345661967,0.610829336375224,0.4310140473455242,0.5634805897575719,0.5789946278034228,0.5787896962479087,0.5174243798834413,0.4886059366580011,0.5653915777603458,0.5930385089043431,0.5893042516523983,0.5750502577345862,0.6134159112803572,0.6004589201801673,0.42427312141741513,0.4135992008953133,0.45422368226331367,0.6025273111798093,0.5088187651170433,0.5293542520979404,0.5450330894152104,0.5540146547398104,0.5482068036906989,0.5716775967858383,0.6006630535702384,0.6750388497825188,0.7563056747347248,0.8012263120743803,0.7653590179183944,0.543474190541914,0.296662255639903,0.3077653784918706,0.3722749230903868,0.5353303428818856,0.41557271427804743,0.34734762909070316,0.48525021620770215,0.24687386521994936,0.2666935429265993,0.5927670599568415,0.7064077432128495,0.7156843936334165,0.763457621238345,0.7861086365316781,0.7897204418847403,0.8706886282909059,0.9596680088489888,PM
1.0000000000000002,0.8646545920175817,0.8282365193961041,0.7694519204809127,0.8645421010776,0.6577886314122299,0.1921420492208339,0.09197363607302989,0.512370649125949,0.807615496197249,0.773331590852061,0.6784882112300863,0.7887865952283926,0.8314548791792828,0.8180481745401471,0.7822509334166903,0.8428350140091789,0.5632808505700355,0.12483078872052222,0.2002922481483964,0.6465294159144335,0.8234674763687113,0.7276028089924964,0.6884536389143932,0.8201169991171093,0.8391845637317752,0.7856624381805639,0.7979956750648085,0.7671961683779991,0.3486724548612381,0.06371814196273196,0.4007157328986761,0.7659399056070864,0.7772428747163003,0.6670966790586033,0.756511828777757,0.8004050285597979,0.7787140640743508,0.728296003484995,0.827232657703209,0.6770008308848163,0.21907458714538097,0.04978096004905863,0.44745832833021915,0.7727105324837475,0.7515346258704965,0.6436957126054568,0.7518235657021568,0.814973705303691,0.8204061563526859,0.7698022102602573,0.843126452424882,0.710170095537008,0.2579946741471353,0.1166810499174713,0.5316913871180398,0.8245371479829202,0.7810520982436644,0.6768336251844753,0.7713882706032702,0.7802319414924892,0.7704445064808649,0.744029397383662,0.837137372333004,0.6318496772488238,0.17716656224317862,0.14095401167769217,0.5752139537667387,0.8001878761382744,0.7267829957504295,0.6582775537373766,0.7698304611388893,0.8053930888212755,0.7656447915749955,0.7664846242750973,0.7885770663264415,0.43349396695520204,0.02535691728055056,0.17489936461368094,0.6073635818426599,0.7822257396416592,0.7036490908575408,0.6938812861998256,0.7980211762596643,0.810120422256648,0.7603131878813694,0.7897574881413869,0.7632108027053881,0.3588702415289151,0.06369782789757306,0.39199435886763556,0.7610314798249027,0.7699612236611666,0.6532127673851871,0.7253367032601548,0.8051678420547337,0.7871961243265957,0.7440364021607897,0.7998721412416507,0.5093424759608629,0.06683737881878926,0.14202128757863797,0.5895240059305225,0.7870654345378816,0.7097224705007188,0.6731725718622819,0.8005698522595719,0.8274433432019188,0.7910257574335711,0.7880456952456625,0.8279416796544183,0.47084408067063843,0.06553543728615563,0.2390867675726982,0.658322926704576,0.8251374624229959,0.719641380553613,0.7038702509349049,0.8155394026548957,0.8271708691486277,0.7787981895813523,0.7740954336609789,0.7255433873561346,0.3210847020581602,0.0,0.25807579508533895,0.6634455761848088,0.7380407934040096,0.6570775642832969,0.7258478010728158,0.8450773247492338,0.8621207301606295,0.8174673251380409,0.8243137798022346,0.731922391357305,0.29249541859578954,0.09974302959935022,0.4947192255084991,0.8165789068009144,0.8286523251683626,0.8903737136152123,0.9300669500678425,0.7765482917796545,0.9280802501661716,0.9339434344062105,0.8836525183896564,0.9369421315458972,0.911489473669292,0.8034171943903454,0.7206564729931635,0.8054101176151336,0.8410687486327031,0.7401872533329155,0.9033972981135803,0.8716709315540039,0.8497105320420018,0.8953466012272677,0.8855732083952648,0.7888647325158045,0.7845830318824321,0.8910881632354493,0.7722155591029927,0.5361220045980128,0.8193765524466208,0.9733712603572153,0.8571908370189554,0.8738191444085845,0.8948480576949549,0.861626343158173,0.7425677761047156,0.7869846869865069,0.8607010910356545,0.7120530725684848,0.6940815315323465,0.9448688339226934,0.8603298692327177,0.836074298292613,0.868122427123535,0.8395269641324987,0.7283152152811965,0.798342166974481,0.8868767576013348,0.7687086475087399,0.7144606252420103,0.9361237082948668,0.8498290132104824,0.8531911835389094,0.8777595321163585,0.8525768849012387,0.7478801994365754,0.8008933743212248,0.8462180649720479,0.6827440779699845,0.7458084312956099,0.9571246595901137,0.8388370970976131,0.8380650796736464,0.8647643876901252,0.832827714230252,0.7306634254950561,0.7978807782377391,0.8771206265655442,0.8025850890138513,0.9144896022979159,0.9496383066434502,0.8218639791631219,0.8359532213505652,0.8543127484372308,0.8147070608581777,0.7740546236344155,0.8898936465402361,0.9232122040523543,0.72559777919909,0.8182733729534297,0.9832492961771979,0.876468605493004,0.8776140642367543,0.890143177617216,0.8706179016674815,0.7816256309516867,0.7463701890995005,0.8601421776503726,0.8004845678367671,0.5564322632578707,0.7951722850431888,0.968468418703998,0.833359098189075,0.8319306908624047,0.8566749547107386,0.8403116084193345,0.7413782101211741,0.8023330196105845,0.8862156181336773,0.8453364817098763,0.9382251219712943,0.9318822466211263,0.8395664319115268,0.8943239069122748,0.8989259771341838,0.7938846864588565,0.7713968174272778,0.8845432379610483,0.9159338989737094,0.7845811836806289,0.9548514577797194,0.8973237652361836,0.8653968283245519,0.9043598917765492,0.8997058911365314,0.8232468938158315,0.7594616439004114,0.8717924360974625,0.8431287311409228,0.6489513056168941,0.8689680092450176,PM
1.0,0.8351290298789524,0.8235037441232982,0.7048451200966213,0.7186154631506221,0.6596213665449917,0.6328667744954224,0.7676993981673634,0.8339876661841084,0.7206807360621004,0.9438399306758587,0.8347222730689503,0.8282175746302922,0.7636886904237445,0.7308576350031184,0.6153145094245698,0.5235341846450727,0.6210987315074683,0.7102142593606682,0.5556547759795398,0.7589074918843752,0.7022832521721285,0.7178028724376158,0.7213167413300008,0.6976495140606502,0.6539540870478935,0.5260201228139705,0.5888811722903853,0.6859002438987019,0.5371658808787352,0.7223907205432991,0.6988985115790256,0.6658763274187045,0.7153794715336881,0.7630194254234075,0.6559434353325782,0.6822993926510703,0.8057289828871643,0.8032591581686725,0.757038783094186,0.9164489062541841,0.8160578952803852,0.8402815757048487,0.8483069208538687,0.8433446750410063,0.7112671041504561,0.7594219747918909,0.7970259338600987,0.6155529327908869,0.8051574428123813,0.700877317437512,0.4298863161715403,0.06128170076127759,0.32687191723104503,0.6166455621060343,0.3058712858144377,0.17263797202702724,0.5958163274817281,0.665205518682773,0.5997530743774924,0.7143342066505682,0.7533619644962459,0.7364304253503215,0.6909883831843535,0.747791577762817,0.4890690134472466,0.11390327047442916,0.46289036264834227,0.7048021907307489,0.6229664273233837,0.5168112118598884,0.6442895206859762,0.6392982094951951,0.6026483778821747,0.5400921306529742,0.5912679265524403,0.25916025687297184,0.02573026645630261,0.43647073962814575,0.5240659499410762,0.44449697645848074,0.4361471020931109,0.5929826598989085,0.6085219432068261,0.6365831734009326,0.6025085199890028,0.5895542903466873,0.43100003152246336,0.003608412855176102,0.30817985503195633,0.558093954336984,0.479057849022841,0.415902474529378,0.5823153853409573,0.6359908955851474,0.7068943513308072,0.7152491628880231,0.751083236393014,0.5766972429888146,0.13024583553222824,0.41886701711943086,0.6855680620617819,0.5951062850612252,0.4923710782713675,0.6121133989988063,0.6032176854269942,0.6505422699443391,0.7308811676282718,0.746539820910511,0.736312531863812,0.3147449953887693,0.48832471504308383,0.8261181063902581,0.7834801851589113,0.707316834578068,0.7914750462256266,0.7480716159762193,0.7299778490314752,0.6551663969817123,0.6637093418532847,0.43517322162746463,0.004192322553580485,0.32860193070874866,0.5706563183894988,0.5280219774117882,0.4914338407818404,0.6231362306760504,0.6300299656831863,0.618431016696094,0.5766403375818414,0.6444667363200054,0.26252989362236967,0.26462001863015905,0.6530345395301311,0.686455862562545,0.6822367763104973,0.722119427258352,0.7123545518036067,0.7350502146069515,0.7444002475307436,0.6938840641855708,0.32065191881762756,0.592503174417562,0.7494661828781424,0.6548227312006043,0.6013227430262309,0.6811044474576957,0.6281301551540301,0.5848677891761587,0.5711280525489406,0.5715997040377574,0.11949983593344982,0.18465176205123512,0.5789631679067244,0.5210983759730285,0.38169818150377566,0.4623649579349931,0.569558626739366,0.5357984057519487,0.4617415216903118,0.5634547368408871,0.3493154286587652,0.0,0.383084006756063,0.5248814532002557,0.41066135535410897,0.3685570202947379,0.5496643260376239,0.6073878328591977,0.6515831954359519,0.637974143441308,0.7408872726132718,0.4395270331928809,0.2809275807539189,0.7116996837109353,0.7797843116537457,0.694840006313814,0.7333191860670829,0.8630976090055884,0.831631131923996,0.7698347461784114,0.648119891051627,0.6259790219781087,0.238516452213688,0.22732420268715314,0.6413453643483287,0.6365205018819062,0.8246305104977618,0.7596564554107732,0.8681133528481841,0.9297934027275456,0.9597759414688816,0.8494520688629952,0.7868653080400407,0.8837670689986763,0.8885618828389785,0.7757283485932356,0.9312913903622562,0.7765900231712948,0.7455214519718543,0.6958350989040589,0.648251040206846,0.47860928357311217,0.523375897973386,0.6427189343781445,0.602992430773174,0.5816923886551031,0.7306545422534372,0.5895244078932524,0.6273104344916836,0.6662328036452005,0.5713027525629761,0.49316311671389323,0.6344635074430607,0.7329133781053856,0.565865336163093,0.8005135736734887,0.7071157446792475,0.68130594410635,0.7210921493285034,0.7832701214171935,0.6978048317730883,0.762899238569771,0.8644450893655149,0.8596773545611383,0.8490634309146841,0.9474488319930412,0.8288567497858614,0.8364366009036477,0.8054670167268076,0.8404869441761078,0.7725211042618612,0.7928042688825991,0.8177291649651313,0.6800798361113292,0.8677858404735406,0.71340694227785,0.7100908830592192,0.7238174359543339,0.7218007683095848,0.6085942304225354,0.6207495990579122,0.6985999302979509,0.5925972827271142,0.7171953238623194,0.8128420659766138,0.765562565168012,0.8300799727783623,0.8442718499155029,0.8914524666814105,0.8162982990643508,0.8862784642733206,0.9631087002676582,0.8335470146056396,0.8761131576820995,PM
1.0,0.791241836913252,0.4422571233593585,0.22206164336879364,0.48048293321757374,0.8471894966635586,0.9688887619117487,0.9448473028118564,0.9144013950756745,0.8493153454734782,0.8735963112273503,0.7247384818166164,0.4217557539707051,0.5356763884146782,0.8438926249762565,0.8991033548678503,0.8526778574453274,0.8627598124590926,0.8260457133088911,0.5409801140984314,0.484493097767255,0.8153151281116656,0.9716223480705651,0.953505791395359,0.8918080836783954,0.9339687748860493,0.7687804713708025,0.5558105603290987,0.791937432095413,0.9535696738419642,0.9102370319087164,0.8495504355336979,0.8513165807481878,0.8242595203881288,0.6098547250552921,0.32767605708710423,0.4908700843846753,0.7949082400739277,0.8437244351303753,0.8142736637403448,0.6822945272688229,0.31882042772381036,0.0,0.1508717203386407,0.5298269130304986,0.773232488233179,0.8053253989668793,0.8053318290326085,0.8729162616143099,0.8923404492422481,0.6660986967383636,0.28125683656793543,0.13708756560987695,0.4596941028084157,0.8021762808770488,0.882837993825777,0.8590156422488314,0.9278298411239517,0.8107060376511038,0.45403772088924366,0.1215311946327281,0.2481851447071698,0.6247255511450794,0.8348402222984176,0.7931434078338996,0.8441880757818508,0.8192864139137416,0.5460559895646414,0.1628274501928515,0.071729359566365,0.4096076380077166,0.7292972744594289,0.8274425652836604,0.8164705552986876,0.8890310697548561,0.9145588686056724,0.8819535049982595,0.589293464306112,0.20721935818012938,0.0009100275448267747,0.27092074004645406,0.6341614315202412,0.9130353781148978,0.9437807053873529,0.8927864430699578,0.915257327935426,0.8477537139266874,0.5324308292805898,0.16854621861205843,0.13757443487582904,0.500358540928321,0.8200053811589506,0.849252109732035,0.823023621983079,0.862642868446457,0.8499252834879961,0.5975438656796774,0.21056983588931244,0.07734920599260703,0.40599333746046395,0.7506795590274097,0.847619876078939,0.8385928546973748,0.858181844276389,0.6843697395084379,0.30313349799049516,0.038917298406485834,0.26914803140910026,0.64559784153219,0.8526048022933231,0.8063768551319045,0.8793145302773248,0.9181519141556383,0.7955922974296362,0.42867082299492176,0.10646199236019949,0.21883691260495275,0.6015056627556505,0.8748120996355345,0.8503177821480249,0.848739558890892,0.8465779050358656,0.5714270351607685,0.19167298335073513,0.1383552479491263,0.4903848154293273,0.7979545958469819,0.832033295264247,0.8393486482651141,0.8754835946980154,0.830661849761808,0.5314504701478648,0.15381279113422908,0.11397572084913504,0.47622849096227593,0.804120854048855,0.8568208714324724,0.8217154933490526,0.8798054942806172,0.9018486349158218,0.6777002365959749,0.2934560412019587,0.14745549787831524,0.46846062223790574,0.8121399591461539,0.8938171233140463,0.8728442183196227,0.890391201346752,0.7157679538290945,0.3370164825911165,0.08925742360497474,0.3393580583812207,0.7128871221035852,0.8512620187986889,0.7870946379454079,0.8439086265905814,0.8647565685205044,0.8556423111925632,0.6191947205986259,0.2323552371185319,0.06934079668774579,0.38397028728296523,0.7437772561065042,0.8566187970944411,0.8116901734441188,0.8716828352095555,0.7278694997182119,0.3498622262856952,0.0686164206237293,0.2820356008047229,0.663460223716475,0.8635423444985132,0.8264844688784198,0.8991185657448818,0.8394688275372629,0.7383521175624105,0.9356369661278882,0.9432828667214371,0.8748066385742296,0.9013972745254807,0.7508892476988175,0.4149725667751828,0.42722474283843237,0.7806067408429179,0.9298836777693306,0.8638008473270938,0.8814316759236266,0.8656346144493535,0.5940202725130955,0.5613719680482857,0.8476226948472657,0.9102713788774562,0.895470029000584,0.8610315678976469,0.8560024496799682,0.8816200972807672,0.6363702365457801,0.566936447577769,0.8645152504596073,0.9409852523358567,0.9157425517904653,0.9298900255609283,0.8698724838712147,0.5788115438268064,0.58443490523219,0.8975584932151254,0.9562745536522211,0.9082286919388628,0.8594765291498739,0.9090878818932083,0.8257942608287313,0.500560150099615,0.39229584484197655,0.7069282644886411,0.9119511666284225,0.9105347121339139,0.8743702353088488,0.8772956751275939,0.8189397720274926,0.5226153966359731,0.5110883117556932,0.8298074685792002,0.9256149251355422,0.8726318729550432,0.9274528992183716,0.8498985818072126,0.5769347736924623,0.6721054161867185,0.942120077997361,0.9540459321506917,0.9045845979577068,0.8561008212159572,0.8907442047630282,0.6638232728476076,0.41354880498679014,0.6316261516455576,0.8854030881954688,0.8937194588613439,0.8745252105813838,0.8860925753185737,0.6997513638018004,0.3863223816717116,0.48972389791734605,0.8276114172273504,0.9145988721630328,0.8933652954789949,0.855597847911186,0.9038902649120794,0.8149738592099737,0.5327322998981481,0.640856913539521,0.9180026846698818,0.9572580522798532,0.9344470730239648,0.9558136869284287,PM
