0,1,2,3,4,5,6,7,8,9,10,11,12,13,14,15,16,17,18,19,20,21,22,23,24,25,26,27,28,29,30,31,32,33,34,35,36,37,38,39,40,41,42,43,44,45,46,47,48,49,50,51,52,53,54,55,56,57,58,59,60,61,62,63,64,65,66,67,68,69,70,71,72,73,74,75,76,77,78,79,80,81,82,83,84,85,86,87,88,89,90,91,92,93,94,95,96,97,98,99,100,101,102,103,104,105,106,107,108,109,110,111,112,113,114,115,116,117,118,119,120,121,122,123,124,125,126,127,128,129,130,131,132,133,134,135,136,137,138,139,140,141,142,143,144,145,146,147,148,149,150,151,152,153,154,155,156,157,158,159,160,161,162,163,164,165,166,167,168,169,170,171,172,173,174,175,176,177,178,179,180,181,182,183,184,185,186,187,188,189,190,191,192,193,194,195,196,197,198,199,200,201,202,203,204,205,206,207,208,209,210,211,212,213,214,215,216,217,218,219,220,221,222,223,224,225,226,227,228,229,230,231,232,233,234,235,236,237,238,239,240,241,242,243,244,245,246,247,248,249,250,251,252,253,254,Target
0.21116846916688825,0.20523937565283856,0.20355245482307072,0.20354773100162027,0.20354987065434482,0.20489152169095082,0.21539461734546128,0.2311937941879938,0.25160739872601234,0.27658940025517453,0.2997230228067116,0.31314251001849813,0.3018274041449185,0.2756298974863687,0.24453267161997805,0.21298563580765606,0.18317165682316805,0.1535209323990947,0.1261756240951697,0.104945576681027,0.10675714965320315,0.12107150318569326,0.1332221353781362,0.15029692497612435,0.16479982296798212,0.17892272387247177,0.1905669460731254,0.20304986296008587,0.22347689261629244,0.24960664529974075,0.28052585449119105,0.31355348783931336,0.3471141439666854,0.38337267906859607,0.41801414502406686,0.4574412773241616,0.4963705748135123,0.5297674331584576,0.5681193572643513,0.6076754201667833,0.645999118519476,0.6794494159855526,0.7183098060117856,0.7543077374316918,0.7895571037481397,0.8290280184434606,0.8685580321630835,0.9049157407180155,0.9398141600381524,0.9783753318101167,0.9999999999999998,0.978432119180501,0.9411914842156393,0.9073630231812582,0.8681175225090421,0.828562124666073,0.7907063233362499,0.7570217097485914,0.7178816076227774,0.678325165989679,0.6406858770524928,0.6156517488736102,0.5834620265675361,0.5440979876458185,0.504537454444163,0.46497692124250745,0.42545667893467987,0.38941926028279705,0.35422541172864275,0.314741086821934,0.2752088662567118,0.23897460025974282,0.21481623240293124,0.21153780112246912,0.20781146194906963,0.19379868253585308,0.1796624945807166,0.1618919017474414,0.1753344782083781,0.19307355143610838,0.2026317301512639,0.19970437344350267,0.19560430992944755,0.19562812395646234,0.2000739120232533,0.20351292095354,0.203613844098677,0.20780453951110078,0.2115027768020783,0.21152872234205344,0.20851014814037594,0.20292381750421762,0.19712527841648253,0.2020358886871887,0.2058643501578734,0.21885604363482125,0.2383690030846406,0.2625318359702393,0.2845460932548094,0.2878706241951372,0.26604066406935645,0.23866217561679237,0.20576076982097313,0.17586967404553788,0.14619590822918993,0.11658811904317945,0.09052034372185602,0.0792442117237615,0.09120162023078748,0.10574680497496614,0.11894779437424274,0.1320237843264549,0.14285435456486328,0.15240661695209545,0.16022756107049774,0.18284340487301876,0.20835727550435923,0.2380962005711038,0.26973706109645645,0.305143401547356,0.3384335110336292,0.3769091741454109,0.4158630019773486,0.4492958297276326,0.4875857384865179,0.5270935392352549,0.5629124091907127,0.5983368982483674,0.637817354052046,0.6763467119423674,0.7097321070528435,0.748494755982883,0.787713136365987,0.821505658169662,0.8591754134584577,0.8987267260001832,0.9364029237217644,0.9515492357782505,0.9284281820244236,0.8921092043757262,0.8526012619184293,0.8160585870785539,0.781322080284552,0.7419006536539934,0.7023406718543808,0.6634368192133464,0.6299865217472682,0.5916628233945758,0.5521042860317646,0.5125437528301096,0.47299349871939533,0.43560454469212706,0.4016245145798436,0.3623079083513252,0.3227473852078804,0.2831925645801392,0.24546086183726068,0.21205700697358987,0.1846808544334424,0.1832912618483611,0.17700295283771128,0.16729256866703768,0.15762712057546158,0.14031741618420757,0.14252713478602952,0.16137440979112805,0.17115763696378727,0.17152246453521292,0.17152253745724244,0.17148772740924478,0.16804871847895297,0.1636029304121558,0.16351623907118107,0.1634894292302025,0.16036163590416175,0.15259468296300316,0.1468788565520569,0.13985360032451055,0.13263769585182383,0.13369677550224401,0.14390059834554902,0.16300098005351038,0.19020270141412943,0.20925599575858267,0.20791916965144908,0.18586916918910212,0.1570247677101344,0.12563907103445215,0.09543801445194133,0.059920205923702285,0.030690703235122907,0.007332662837112647,0.0,0.0113061937285861,0.026815871091785626,0.0393094351156158,0.05020586029833263,0.05820434377775552,0.06684294006633995,0.08181673200390871,0.10282570458589446,0.1302301381989872,0.1622162259069746,0.19515096522983,0.23373464981076753,0.27180009452646026,0.3053315199370368,0.34441176406193796,0.38391561417706566,0.4195548712660322,0.4551544830648957,0.49464713003753746,0.5337345328901484,0.5673472076671287,0.6053270396909696,0.6448820226085805,0.6835142102677145,0.716867154200391,0.7555593370607865,0.7951184322846852,0.8339562794814479,0.8672578240830109,0.9057954824253784,0.9446435937760354,0.9685610715947404,0.9560247579425447,0.9241213182836205,0.8855417891047617,0.846066670333034,0.8107297426459834,0.7748210662572792,0.7353072314536164,0.6957466982519609,0.6562428984816371,0.6204681639415648,0.5850085197190895,0.5455108638313875,0.5059503306297333,0.4663898804083213,0.4271979399594241,0.393504929809924,0.355708997585213,0.3161539630075043,0.27659342980584856,0.23703802776557903,0.20034006372349178,0.19295200678808921,0.19280075244298445,0.18363742321710763,0.16757427828827498,0.15034316747341747,0.13659493365713726,0.14796151408149183,0.16684080670460277,0.17403446111453413,PM
0.1569553682638356,0.17292852163265193,0.1850265246698255,0.17453042238281102,0.15385230966639463,0.12602787926053738,0.10021365669946625,0.07518544618499234,0.052132866726267935,0.025064464606353143,0.005697388480584653,0.0,0.007847497755367305,0.016271474851948353,0.02356477687876901,0.027520674996572403,0.0391360070296185,0.06285002053709454,0.08865674805470714,0.114428431586584,0.14518779852154373,0.17751733809491577,0.2123199256105479,0.2474967072528731,0.2844648266674983,0.319070065917191,0.3533195180918143,0.38109870924114264,0.40629204790343376,0.4343428465472925,0.4729558609396496,0.5087760002533512,0.5480554582634602,0.58461009997654,0.6275119443648407,0.6702080431649029,0.705793988340476,0.7465938957142613,0.7896737310030906,0.8316062563562965,0.8666623803143705,0.9087475402052418,0.9496806846639179,0.9837299757625728,1.0,0.9783333976285342,0.9428789753400588,0.9027103593992152,0.8596348928852215,0.8165485929620333,0.7734622930388446,0.7303759931156568,0.6872900226327667,0.6449544335805952,0.6098879055792605,0.5682120341680426,0.5251273674700929,0.48274766602376973,0.44764894247090936,0.40604926519871953,0.36310283864683734,0.32598521400682556,0.28695179282816574,0.24497075638276034,0.21050344702657253,0.18374060106896262,0.16842766771338757,0.17222236809896363,0.16915342937553057,0.16905382279860737,0.17625560410057672,0.17433666301058204,0.1668153498269711,0.16628083153167683,0.16038615527596,0.16202990875894518,0.16638215329331207,0.16736229163589345,0.1754090967274473,0.18219072283411553,0.1867439144044205,0.18678563454355301,0.18620643034804996,0.17774749136757828,0.1656110860004698,0.15663123061147943,0.15623806883798164,0.15623806883798097,0.15623806883798053,0.15627774330848765,0.16078517178761742,0.17174676126140098,0.18767638946279663,0.20287838358901977,0.20368811563127132,0.1852654862344263,0.16235135360424646,0.13650933963516376,0.11046053436323655,0.08457842225376688,0.062326704704535274,0.04591132816256538,0.04620506235564714,0.05931555581855519,0.07378599684800369,0.08064758686381945,0.08136829821648495,0.08498385221822269,0.090272396698033,0.10963913841198658,0.13624926860919717,0.16914613426307556,0.20580398420558899,0.2422206560105855,0.27664970347670015,0.31035319971638065,0.34026633941467077,0.3601330942732024,0.3829140223024887,0.4205028817918548,0.4613074275790765,0.4969166958937059,0.5394405222666832,0.5766218941340084,0.6155670826985733,0.6586187355049145,0.7012938464372436,0.7367819855781721,0.7776943162283718,0.8183803531087324,0.8540828362569481,0.8930021721883783,0.9140335027639384,0.9019473429488545,0.8699576954108679,0.8279722697958376,0.7916028224256038,0.7517655036621349,0.7086933597467309,0.6662974063657212,0.6311868212938783,0.5896152155465928,0.5465561225715359,0.5071362626551359,0.4703976034998143,0.4274541476871758,0.38448750944943466,0.3471411729953575,0.30834469370642204,0.26529153046005116,0.2222077408273897,0.18086627341178274,0.15653541944103222,0.14654376920978063,0.1433456345109756,0.1347206146636084,0.12687108208942433,0.13147870017426544,0.12630165969587215,0.13268167842928658,0.1430394419285579,0.1418058503906907,0.13329182694235175,0.146569954593611,0.16546407087102266,0.18157719001151307,0.18833027222642884,0.2003338253565703,0.2070094599752137,0.2071460060376813,0.20482540798961368,0.19027962095181028,0.18373381604817673,0.17685701375207374,0.17660278852566202,0.17562621040039694,0.16469639902382904,0.15652121086306003,0.15633581429947596,0.1622809066718267,0.17280495704472787,0.17935340742187167,0.1967068043061384,0.20666378834876054,0.19960530246706965,0.1821739135941618,0.15510691258895304,0.13147452412906646,0.10562777994837647,0.0799377964409691,0.059277997262374926,0.044258716284467425,0.03807087157238942,0.04812433311328923,0.05427386427305114,0.05441224418166879,0.05441420884381354,0.05650073035454728,0.07180464989238589,0.09271914684313542,0.12494034479006455,0.16190996007803649,0.19649778892804703,0.23080794552767814,0.2653059074751043,0.30089791609484084,0.325780707302866,0.34855495085006916,0.37841073159925664,0.4186770107983018,0.46156016072286166,0.49805430479156954,0.5377656295731312,0.5807244319426799,0.6177924738373317,0.6568542483479618,0.6999069031594649,0.7416509482740219,0.7766886697292552,0.8189847897971871,0.861755481885095,0.897690734327258,0.937950831944943,0.9726578948013533,0.985703207809105,0.9627784563710096,0.9284399139962431,0.8859512437987878,0.8441843608151975,0.809050368433208,0.766873219791544,0.7238457307792165,0.6857516826253098,0.6477314202588951,0.6047109459809734,0.5616251492029685,0.5196579263999914,0.48457244221650675,0.4425476818528984,0.3994620288306612,0.35669223702646957,0.3207663888900212,0.2803769081642591,0.23729941160353696,0.19427305497691538,0.15672982161562432,0.1372290975265995,0.14096065913149713,0.13925363794834622,0.1366190402104197,0.1430591786200346,0.13668719142593488,0.13511440117955953,0.13056097951880008,0.13217239810062886,PM
1.0,0.9799151823965508,0.9569933986755716,0.9340633206263098,0.9111332425770482,0.8882031645277866,0.865273086478525,0.8423430084292629,0.8194129303800015,0.7966071620127346,0.7776075379969438,0.7564914061264079,0.7335691708488461,0.7106390927995845,0.6877090147503231,0.6647789367010613,0.6418488586517996,0.6190775361847285,0.6003330244568141,0.5789296296467232,0.5560050991206444,0.5330750210713828,0.5101449430221212,0.4872148649728594,0.46428537777138157,0.4420980050361105,0.42687131306579973,0.4125548288296019,0.3901937457124598,0.36726405467496304,0.34433397662570164,0.3214040016239177,0.2988358179717172,0.28047203036388324,0.2584891811883314,0.2355601390452846,0.212630060996023,0.1897030941577571,0.16833134179229314,0.14953659829992028,0.12812542044531416,0.11073770795495741,0.0951930506758567,0.08314702250217765,0.07526563747006576,0.06832604920726348,0.060811365507839166,0.05439552254424318,0.04528874753380818,0.034964527854569605,0.02579471677736933,0.01396067160636194,0.0017324667922237191,0.0,0.006489164013040338,0.02003129099609413,0.03607764878780628,0.05326645976150013,0.07068766000699511,0.08919544203402074,0.1095127299771792,0.1281227787652358,0.14908130319933255,0.16719807171315992,0.1850077594543822,0.20146868574537913,0.21939526675463772,0.2276160924313274,0.2199907177959486,0.20903502068699076,0.19665497023191458,0.1868693991424012,0.17663361941107525,0.16597082074781067,0.15805727654406565,0.14900385575318797,0.1463301371397281,0.1430804739075625,0.14050111396524856,0.14137295804594652,0.14785282956406187,0.14949856601210454,0.15016133629471806,0.1581113563150921,0.16329809171212883,0.1603479745662536,0.15466714514364244,0.1522464621325098,0.1532831775343605,0.1637755251658649,0.18073934420441629,0.19891982982933232,0.21990103632153768,0.2381861093587685,0.26056448587995695,0.28349415858208626,0.3060385527858849,0.3242765279740125,0.3464088492387829,0.3693381320864868,0.39226821013574886,0.41519828818501026,0.4380863256593004,0.4580587386885582,0.47813787810897157,0.5010420477161661,0.5239721257654275,0.5469022038146896,0.569832281863951,0.592762359913213,0.6156924379624744,0.6386225160117363,0.6615520123808978,0.6838399656333567,0.7002992406955779,0.713719470753883,0.7295566561890079,0.7469076715594847,0.768553633145378,0.7825697719652907,0.7988290345459299,0.8143156836200336,0.8284276647617386,0.8449087757703353,0.8606177825112515,0.8832484743417979,0.906178331380461,0.9287522805857464,0.9469900457260068,0.9630916944693033,0.9484165835371594,0.9255365579346584,0.9026064798853963,0.8796764018361352,0.8567463237868733,0.8338162457376115,0.8108861676883499,0.7879560896390885,0.7650260115898269,0.742096139635521,0.7197493976361677,0.7014748470697336,0.6791816703785718,0.65625217400941,0.633322095960148,0.6103920179108864,0.5874619398616248,0.5645318716264089,0.5417855909090707,0.5232266153905214,0.5016143020789356,0.47868810228120817,0.45575802423194656,0.43282794618268494,0.4099121006966744,0.3892378001271677,0.36984593431442314,0.34698418665152975,0.3240541086022677,0.3011242464620072,0.2787985941438782,0.2605325423432914,0.23820981065064306,0.21528215611020296,0.1935077496215769,0.17501773557707245,0.15329971675086973,0.13502456881122682,0.11596587584566098,0.1006154790502547,0.08736461578357957,0.07751162108128717,0.07303164673372475,0.06735001038057598,0.06124437216918732,0.05212557264678608,0.0421017531531489,0.03275731438703122,0.022258557179594907,0.017249256945188196,0.022040817801614376,0.03628194608381208,0.05214486960827969,0.06880366256375015,0.08514963388122943,0.10275500254711167,0.1210144838637045,0.13970717659879506,0.15828956837205244,0.17563247459692843,0.19372363567971174,0.21279596073434937,0.23002247623023864,0.2470511951042238,0.260059545247858,0.25606433876061807,0.2446804081223597,0.23343476432511678,0.22500561545320286,0.21556481522422954,0.20401794468089263,0.19780395500163406,0.19206929371254555,0.18757031857502593,0.18302338213524816,0.17649738689098415,0.1719740855977624,0.17121491489282648,0.17924243258546924,0.18387124556871037,0.1817017002956396,0.18524777414240068,0.18692192519785422,0.1817938173080954,0.17647331570143365,0.17332047808707784,0.1733949071802635,0.18553758326341052,0.20266422195312706,0.22271508569431941,0.2411170590651327,0.2637906420532239,0.28645145979368825,0.30497667281068863,0.3267063399522967,0.34963439667735696,0.3725644747266186,0.3954942739131908,0.41799433561475907,0.436209394820261,0.458408825105558,0.4813383123070367,0.5042683903562981,0.5271984684055597,0.5501285464548211,0.5730586245040827,0.5959887025533448,0.6189184801101015,0.6414037643109265,0.659623072899352,0.6818329848143585,0.704762540133762,0.7276926181830239,0.7506226962322851,0.7735527742815469,0.7964828523308092,0.8194129303800703,0.8423430084293322,0.8652730864785938,0.8882031620743438,0.9110583397379,0.930305068746516,0.9511281596032977,0.9740465192296341,0.9954829653400934,PM
0.23881847821059887,0.25921432371346365,0.2549694811567207,0.23154719049325134,0.20517095993416712,0.17526856461365625,0.1476720816963244,0.11273358762560504,0.08065192975353774,0.052892622184470106,0.030124928275219176,0.014151842120813107,0.011935076377409981,0.001463196787011789,0.0,0.0011951293505747529,0.011782769435200624,0.024372566800365814,0.0520668159243205,0.08533510640796704,0.12216223895072842,0.16070104579751465,0.18857515753819243,0.22358312831473537,0.272827692215559,0.3155459317523608,0.3597473124320669,0.4086088373243877,0.44825835224332566,0.4963930624240036,0.5463094104628476,0.59259727110167,0.6334523334568205,0.6830162593387428,0.732791153552355,0.7749268192195253,0.8197485496739758,0.869594810535236,0.9121902373571626,0.9256758046951084,0.8963308330744915,0.846782555736715,0.798965670568089,0.7593256148433172,0.7171750651602449,0.6731825157121651,0.6242158304483141,0.5847331885013967,0.5365236117949785,0.48660163624975805,0.43705357277092904,0.39625322817665287,0.3498950749757128,0.30061785224177484,0.26074638780325143,0.21706618510252484,0.17612475074783607,0.1323032585059476,0.09301569359796824,0.0885524349996416,0.09254195047935632,0.10246442897439456,0.09502088484184013,0.09132079553337391,0.08301015949420787,0.0796034173697544,0.08698872920868839,0.09008216414535575,0.09956986125647882,0.10453647033713853,0.10487287541248236,0.1140368691571596,0.11764836196486694,0.12259522620098728,0.1305602381171882,0.1307028847630245,0.13189447281706368,0.14224883951836365,0.14377175821257548,0.14377297992589266,0.14377297992588822,0.14377297992588378,0.14377297992587934,0.14397336378821057,0.15219875892830048,0.15679385771834742,0.15173366142206657,0.14336045763271832,0.13334696007334035,0.12396011917830307,0.11164054909201226,0.10462974182245732,0.1081765162579531,0.11296318539609773,0.10753208010958915,0.12285288078642953,0.14641680151881653,0.17588155539984207,0.2030418529008351,0.23316001236157247,0.2590712043247514,0.2735760574959567,0.26291897295660904,0.2378220899545136,0.20609872477398916,0.17289044257692598,0.1429428283109413,0.10993695635925693,0.07466238149725468,0.0445800599053201,0.025387498611198822,0.014161229002744413,0.013069367022461531,0.01306909294333014,0.013074152846836995,0.016321712609795647,0.02869447350607235,0.0497068262282192,0.07509073735313754,0.10695998953118391,0.14437302292777376,0.1870007624962846,0.22655409012408123,0.27462899083158954,0.31691255513715566,0.3615744775918839,0.41118130476232384,0.45221838342639664,0.4982513277157756,0.5481470817500651,0.5940795065653726,0.6352159745478896,0.6848614785028619,0.734785203004682,0.7845727210959583,0.8268150456954686,0.8715226275786883,0.921409610802927,0.9703170136512167,1.0,0.9855760013687451,0.9502438516456384,0.901947574591365,0.8562597809532351,0.8149901173631657,0.7715510453106611,0.7283221445530987,0.6791202341572342,0.6393204429047068,0.591674301275698,0.541754191056393,0.4928405628958763,0.45341349115202956,0.4074410211064472,0.3769611148726151,0.33508391061765197,0.2941983377701294,0.2454431104268604,0.20594060173182127,0.15990030713919223,0.13968963511303567,0.14367418681437671,0.1437729638531997,0.14361934179065416,0.1354127619619634,0.12638004566923478,0.11636603979134064,0.10648406970202196,0.11722627875519676,0.12984448110601532,0.13070206357469383,0.13070259122746153,0.1307292488185836,0.13552702265686944,0.14362553944058876,0.14377296622173485,0.1437729799256866,0.1437729799256826,0.14377297992567772,0.14377297992567328,0.14377297992566884,0.1437729799256644,0.14377297992565996,0.14377311730358855,0.14440600906284295,0.15452000845743363,0.15683888652347777,0.15684331025518183,0.1564064309945472,0.14701049832971158,0.1378744008438999,0.13077547785731936,0.12869112169854224,0.11848332042815457,0.11763505816794817,0.11977326150306533,0.13176716658257304,0.15520797520460983,0.18590233229021358,0.21427499878886413,0.24455526556451002,0.27360299562104773,0.29474988887267495,0.29172808801442107,0.2722040141540276,0.24279818926226815,0.21040770688371735,0.1805800720581714,0.14785935992233012,0.11840552537283155,0.08888673231159627,0.06332054316026259,0.051603635672455184,0.040784626896634535,0.039211576590116426,0.040315425127435134,0.05063266191956872,0.05244432371037888,0.06507912937557858,0.09284948987073172,0.12449898945890014,0.16257998951502683,0.2025055303332448,0.24800390173134135,0.2903784494236188,0.3348757487769789,0.37842965990763533,0.421750156824785,0.4715815446873064,0.5197106306683801,0.5592219565938481,0.6082848773671672,0.6581718752636352,0.7026837648262187,0.7451097791309991,0.7949085474275002,0.8434818455561457,0.8829786043843613,0.9276538394921054,0.9360462304136377,0.8977054395072628,0.8530344887550907,0.8108148793782162,0.7627086285509268,0.72347029689309,0.6837603349581096,0.637392398527127,0.5881174135724216,0.5482394540900688,0.5006939258677421,0.4507733719558593,0.4010757486764396,0.3597122936993493,0.3140558348448135,0.2678130433010133,PM
0.23620097742356572,0.2303375167094669,0.22066029097086437,0.2217811898920995,0.23573548494064056,0.255776403299235,0.2694493891980818,0.2585502594627601,0.23278888880729032,0.20081376959613184,0.16348344325872666,0.13040141748298406,0.09874516873372108,0.06806178065234891,0.044447296562598715,0.043169351531987976,0.05279592268936162,0.06523340100097152,0.08413914497305908,0.11301593408028632,0.14923389522823105,0.18713359406200147,0.22474239259698447,0.26561972821230784,0.30348565595433696,0.34450609108249564,0.3866477168580901,0.4276922131795776,0.4655372689996279,0.5072338131927597,0.5493741209759669,0.5900066552917934,0.6281037399233985,0.6699653652287735,0.7121158344886257,0.7542663808355868,0.7964169271825482,0.8384898346458728,0.8775967260788048,0.917049108352113,0.9590160717914601,0.9940829876465552,0.9923383334785346,0.9578782746021953,0.9205846604925781,0.8875133998423844,0.8492567808030876,0.8072596312827459,0.7653331790994159,0.7270654066770273,0.68666471764022,0.6445276290955745,0.6024145641855022,0.5626805671410274,0.5238388753731053,0.4819217591069024,0.4432382418825086,0.40395574714491456,0.3665866918693935,0.32953598997697375,0.29061884666970184,0.25956214517013876,0.2580385473952572,0.2584912299109009,0.25653573560462495,0.24623426757722722,0.24029743805861847,0.23215765323439674,0.226716285366948,0.23365788038350477,0.25253885569845536,0.27504439254767965,0.29120985044340253,0.2856857659773545,0.2600366473559689,0.22887454886100045,0.19607020409434028,0.16324977318598444,0.13143901206820896,0.10012438041655636,0.07173840063844594,0.06368674853227085,0.07654242743209305,0.08586213429915657,0.100941509577408,0.12829815456883942,0.16321088386049176,0.20466603814035522,0.24446070428156652,0.2832430795638433,0.32502489459827266,0.363218842175946,0.4037224810748191,0.44577773033507395,0.4848145215406573,0.5243389431113245,0.566418012256071,0.6064678269463374,0.6450282305238263,0.687023487138482,0.72907075276924,0.7679368853104166,0.8076436647608906,0.8497516183118415,0.8908444899539972,0.9285496607826081,0.9614332526490498,0.9529336403016323,0.917887490552065,0.876636559123991,0.8364082518356694,0.7980077348254025,0.7560389597917246,0.7138884134447631,0.6717378670978019,0.6295873207508406,0.5874368642348041,0.5455887168475783,0.5075126632885948,0.46704475139936663,0.42867960547064043,0.38922255905423475,0.3517703156555766,0.31447376697188434,0.27831251522651945,0.25951701792159576,0.2595792753902749,0.25784027427823486,0.25079984466382166,0.24266716065046967,0.2393221644692768,0.2414548195639571,0.2574014915890862,0.2784821076756888,0.2995923926978733,0.31489531343724664,0.3079387493497653,0.28309967836499983,0.25254264769545653,0.22050407482895806,0.18723702059864245,0.156002647045548,0.12436619196730037,0.10207882154475956,0.10097700176548108,0.10688028030591479,0.11635641401605035,0.14122162275533834,0.1766899489177982,0.21366173098340802,0.25339495656492306,0.29126095116788153,0.33221019937521323,0.372185999602764,0.4108040426501972,0.45277227314154256,0.49237750748366593,0.5313395733778773,0.5733942657901899,0.6155122058639805,0.6553158889012621,0.6940909146274704,0.7361261210695501,0.777990915268547,0.8161091816081275,0.8567176294770288,0.8986580207337468,0.936981639063854,0.9765728296713913,0.9999999999999999,0.9777696560212475,0.9399056200527905,0.8979603788135632,0.8558098324666016,0.8136592861196413,0.7715087397726795,0.7294078033289008,0.6899301065083766,0.6508478584061189,0.6088581669324241,0.5697546584895096,0.5302966116576396,0.48901119171002205,0.4512877183617482,0.41196133944929414,0.37497949213576953,0.33768550131141783,0.3049388741128921,0.2952835206497503,0.2921575888898441,0.2813379099253951,0.26267942448520487,0.25160760813548155,0.23970629998585702,0.23191087786013143,0.2415969022898633,0.2585295248918673,0.26965854555838586,0.26311079365093915,0.2390012614772704,0.20951734313312764,0.17628903253156758,0.1419302967998508,0.10820983773744008,0.07210162062143943,0.03919601671805506,0.011278968698300362,0.0,0.008071428182416907,0.017689603778992313,0.03353884459686618,0.062458512172825276,0.0963239684807572,0.1332640965117523,0.17188545149516554,0.21116118038005494,0.2531525407530376,0.29206511076339814,0.33172017678527055,0.3738294999344657,0.41580966280087395,0.45427252258335205,0.49443098148563414,0.5365395089767863,0.5766501949360695,0.615159609751685,0.657142877715429,0.6990925224384078,0.7374149521179588,0.7777406595095756,0.8198738300866609,0.8614143043840486,0.899135882839487,0.9346831673341466,0.9299438747274397,0.894383863310828,0.8536612104198068,0.8119692651409628,0.7741208412450499,0.7330832556836583,0.6909369999996554,0.6489860492688077,0.610614082419982,0.5703393086920413,0.5282051557864732,0.48641675919976557,0.45205680220505806,0.41992910234959846,0.38799736983603605,0.35241096050186604,0.3141403827434591,0.27646363201927515,0.23853202538795515,0.20546930816170883,0.1955622922676209,PM
0.2180162626211649,0.21873880825259728,0.2314751598463961,0.25822101468463365,0.289944185790458,0.32372824701143543,0.3566763815865327,0.381080287338469,0.37705289252234564,0.34931574323847137,0.3175837297307623,0.284562949598694,0.2483585168985626,0.21484131636473636,0.1882844858416427,0.17583527076894934,0.18075696077070058,0.18838008846676624,0.19121366752247326,0.20877551315598308,0.23660606419859886,0.27014833021323625,0.3064182324671961,0.34636357745538404,0.3790096774131694,0.41051999730054034,0.45193329556999473,0.49295440412226055,0.5298672686343807,0.571625157473746,0.613863791755659,0.6524929306215813,0.6913752209528045,0.7336205227634637,0.7759265859110763,0.8176608650602207,0.8545235402783421,0.8956195116029414,0.937905297973615,0.9776037671099654,1.0,0.9789884247070061,0.9384284918275222,0.8961642776463808,0.8569325987334245,0.8186394456478224,0.7764375482193512,0.7341309243914188,0.6918243005634862,0.649517676735554,0.6072110529076217,0.5649044690688664,0.5228252987564851,0.4852699202027023,0.4451998258823534,0.4029086234972653,0.3606019996693327,0.3182953758414008,0.2759887520134682,0.2336821281855358,0.19137696206846921,0.14991307870193948,0.11345341145564392,0.09271150614981394,0.12209323652852266,0.16153808277029158,0.19854556868609718,0.23210924731278026,0.25162261659544216,0.2533825685764527,0.2434146122618689,0.23301628567965482,0.22928181555414462,0.23644842553697687,0.24633815216132604,0.24451438443809181,0.23976299502356324,0.23532659738058148,0.23028710076693082,0.21938723099460622,0.21152927686488276,0.21320909453646586,0.22416918398652108,0.23184538566046842,0.23130278062821275,0.22946318423921375,0.24926069759677494,0.2789918913428343,0.31360873263492917,0.3487020282874801,0.37609190594147723,0.38124951597727563,0.3595765991198995,0.3268949480557036,0.2924942982903084,0.25588518415669437,0.22386083956280223,0.19464214095458432,0.16965224282288383,0.15616982793336442,0.15925346951249997,0.16086669623574312,0.1708004621687197,0.19183619923866935,0.2212759997008219,0.25764108176619105,0.2942893074725085,0.3343860727906077,0.3713313697540107,0.41302457268632364,0.4514140816730744,0.4905439226025762,0.53280569533151,0.5747580665822981,0.6119434994520946,0.6525030831360913,0.6948016433931857,0.7370870158007189,0.7767783745139384,0.8146539119551987,0.8567938786842656,0.8978070406014155,0.9303267445655966,0.9282443073847896,0.8896730756012693,0.8523608443270726,0.8120127419546818,0.7697172601179844,0.7274106362900515,0.6851040124621192,0.6427973911988133,0.6005930474415656,0.562325875752732,0.5230677558505531,0.48080158305176257,0.4384949592238302,0.3961883353958978,0.3538817115679661,0.3115750877400335,0.26926846391210113,0.22696184008416853,0.18467626750339183,0.1447896516029331,0.10709255179842858,0.06496602804268503,0.022883805832561555,0.0,0.03224215066873837,0.07025115525420544,0.10964437110964498,0.147940157742671,0.18434700370699886,0.21797341191295116,0.24063211206763013,0.24625852616262434,0.23780090405021148,0.22394498062089585,0.22348466844632886,0.22346496524066473,0.23640349659535687,0.23965980077606364,0.23707328131334615,0.2311256471960429,0.2242905774615055,0.21635548722792353,0.21108713741190532,0.21522283295205924,0.22657691527768875,0.23225953379625397,0.2327802330337524,0.2431764727935447,0.2703589898407942,0.3016800684884059,0.33341280622412295,0.36606669200432085,0.3923940787783463,0.3871792188201927,0.36121728556867916,0.3301023874860266,0.2964143592680485,0.26332710467410203,0.2283954371506286,0.19654614321139763,0.17697833289935783,0.17785147433695359,0.18362841638981087,0.1889494779796742,0.19325678479793817,0.2149222809948409,0.24677919225081923,0.28282854032045923,0.3197185155591512,0.35968025272588144,0.39743186973071654,0.4372418373990091,0.47952275858309046,0.5206896747397408,0.5575227309153651,0.599215407813149,0.6415213845642976,0.6837765664749641,0.722779575187611,0.7612962355565757,0.8035171563316469,0.845622317793942,0.8831838487877574,0.9232228235388641,0.9646852914741523,0.9928620554463509,0.9794990239781703,0.9386873043290965,0.8963819307877928,0.8540753473289809,0.811997546991916,0.7744489803293556,0.7343708278045992,0.6920795013774365,0.6497728775495032,0.6074662537215715,0.5651596298936382,0.5228530060657067,0.48054638223777324,0.43823975840984175,0.3959331439855406,0.35374369066029565,0.31562678850727555,0.276210323728835,0.23393732899948494,0.19163070517155345,0.14932409587650375,0.107153137218014,0.06916182259666204,0.03700158346984528,0.05575206903805363,0.09731427462530873,0.13450722291154882,0.17301436872588527,0.2084214772995262,0.23910227412931062,0.2536346839205975,0.256414465234568,0.24467112722887563,0.22880840985646145,0.22385780073414996,0.22240739709895718,0.23479835930307325,0.23549457229764126,0.23243552309609228,0.22859945863607145,0.22126955076197008,0.21172958302210565,0.2055081675201028,0.21052176270938705,0.21942151222159734,0.23062986501166816,PM
0.20938113768106992,0.20349673793529122,0.19389688361477342,0.18586637427049757,0.17850323652189348,0.16648164482393435,0.16528539612364268,0.16450166382596,0.17115626250528515,0.1765780165671078,0.18606353919316487,0.19611481443846346,0.19591410190687797,0.19456528752827218,0.1998149781709484,0.2003775829225385,0.19607512512331726,0.1876098830830042,0.17610904283805917,0.1506552585985672,0.13523098255479216,0.14545759756823684,0.1734190954546757,0.19940479187868676,0.22983383891536757,0.2610835030017784,0.2923337734001077,0.3235840437984372,0.3548343141967665,0.3860845845950962,0.4173348549934257,0.44857536428708955,0.4778617029324923,0.5042594373020322,0.5274189430570069,0.5534401931596014,0.5846281452999522,0.6158772897547171,0.646316003099612,0.672300525261335,0.7028935581831761,0.7341433865971163,0.765393656995446,0.7966438721457265,0.8276552457293507,0.8540960195645495,0.8836634858376944,0.9149088982926095,0.9461591686909396,0.9773717913863322,1.0,0.9802856002462201,0.9491588030913298,0.9212451649433437,0.893303807450007,0.8621030736719368,0.8308528032736078,0.799604612953198,0.7694875826515999,0.746546698735604,0.7252989568471482,0.6948092246168134,0.6635595129670822,0.63231044542599,0.6020619331131645,0.576002332641907,0.5452943628662437,0.5140442716699183,0.48286055829452024,0.4552479001873766,0.42699219355104057,0.3958366148597936,0.3681149812206206,0.3399928274987165,0.3113147321760501,0.28414426947507065,0.25466936359638903,0.22828304203156868,0.2006957668957292,0.17696896407300566,0.15243642355045806,0.13355613154653834,0.11681717739407949,0.0981228619181802,0.08027150243806302,0.06853388246544567,0.053524365709137545,0.04305652367737034,0.039654131625355804,0.04899809902422336,0.06925077009984792,0.08984198937222443,0.11205429902820085,0.13292431172162344,0.15159203442882063,0.1602814016292633,0.17173896338083416,0.19108951145852893,0.20685092622378987,0.21907544513519328,0.226307432954572,0.21818792210508908,0.20397807805392243,0.19586762196930674,0.19845531660175508,0.21210867040314096,0.21629663328445625,0.21984137240168589,0.2088318924659005,0.1944291639045257,0.1890158296498572,0.19496530586526384,0.20411035573220104,0.21557098177289435,0.21585344731071232,0.21109241709697502,0.20711884940947134,0.20067262801368302,0.19432880878175807,0.20213052447562574,0.2120619142240996,0.21111250446539032,0.20244419635323574,0.20270736609117024,0.2119045054188533,0.2239117054943507,0.21829859895454318,0.206633348752441,0.19640609585712188,0.1969246068023529,0.1970521767125184,0.20539055268320627,0.2071780004564554,0.20488474265652457,0.19634162465865823,0.19822955838731815,0.20064955299774812,0.20526353730174507,0.2046113133716727,0.19645604849688203,0.19949426301612538,0.20045751275632573,0.20045465134600615,0.1989325134432136,0.19025060625339463,0.17820077566912773,0.1568770342440413,0.1486486988674134,0.16525940685452212,0.19455525241510707,0.21596646420397314,0.24453111304963238,0.2757706888507865,0.3064841267815599,0.33254674750102575,0.36278683194422867,0.3940358368267003,0.4252861072250298,0.4565362302952294,0.48732622239753054,0.5134311265919143,0.5435532208604046,0.5748013485221941,0.6060516189205238,0.6372919412593594,0.6665579469592331,0.6932362679260418,0.7243165898193578,0.7555668602176879,0.7868171306160172,0.8180594159805485,0.84753943821508,0.8740561137432274,0.9050708674388115,0.9316198246697376,0.9210774186927706,0.893408633379706,0.8622087381534906,0.8309584677551616,0.7997083701840613,0.7688943713937186,0.7427958663599337,0.7126916225305149,0.6814432264579977,0.6501929560596684,0.6189508485850086,0.5897309815032796,0.5629933507159117,0.5319279837442181,0.5006777147625048,0.4696633700169577,0.44318133279709593,0.41365909641998955,0.38383261064336294,0.3575700430687063,0.3274615565768899,0.30146958114284894,0.2712756506597258,0.2451046196622022,0.21634327444190782,0.19056534245509704,0.16545834117580283,0.14360353504152124,0.12611351730579323,0.10623557841166809,0.08877027502759871,0.07123133537503101,0.05238175061327188,0.03246843800317756,0.01625800922818177,0.005350480519952683,0.0,0.010758241496626408,0.03132040959434901,0.051421074174045955,0.07251033154845898,0.0956392232453035,0.11907785656496306,0.14252851034987413,0.16594954362264414,0.1874555766784538,0.19982309649313534,0.19724036889629648,0.1984823281597019,0.19544766582944417,0.19008538455813784,0.20040322770816155,0.2114907645819566,0.2167390977279937,0.2074022737859853,0.20078570382467076,0.19963685769658457,0.1947055830622857,0.2015532966267668,0.2041442766954109,0.20059815130873893,0.20441214812619446,0.21230416434759225,0.21262298177449557,0.20173370230141874,0.20371799621561104,0.2077686205355065,0.2099724445472373,0.20446672576939862,0.19467445764821245,0.18795816591545056,0.19285234091852987,0.1989132863137617,0.20146285406893183,0.2041987314528131,0.19402888969432341,0.1856909300896541,0.18055778841992431,0.18308237140972516,0.19376011711137098,PM
0.22299770444151656,0.23258324499718563,0.25180310159994734,0.280020197946373,0.31982377250992045,0.3722112012976675,0.4318071406038002,0.4963882790194569,0.5654720483686737,0.6337081553001438,0.7013001678805617,0.7670392222929938,0.8373871430465059,0.9132050312755777,0.9671056246167371,0.9752494296378575,0.9307136920567078,0.8579144141723387,0.7939836026392921,0.7212454011573382,0.6444212003832992,0.5675883582202714,0.4911824408121652,0.42641728508092314,0.35481391188482236,0.2780033639810795,0.20117112213255695,0.1264537627393465,0.1089593574184251,0.17369545690417798,0.24980708527948536,0.31297391975422073,0.3598843020168778,0.3684548879456311,0.36849716581106273,0.36321520031022914,0.33485813897389605,0.30046537358824477,0.26573766810524324,0.2785209121044714,0.2968625095211519,0.29557879485537697,0.28165045603407357,0.2806185864104216,0.2939939720388298,0.29751851650472183,0.3000127617533437,0.3208788299777354,0.34457914507912824,0.34243261038433914,0.3078302166607574,0.2655002628904839,0.21580087683708182,0.17986062792186663,0.17758160586241445,0.19119120299224246,0.21165545003756137,0.23100833282760247,0.25913825321751416,0.29234550893721245,0.34029597344564744,0.41313941968160206,0.4767062286772634,0.5493084562549337,0.6137672232361764,0.6846750040406051,0.7477722522090193,0.8165097759216322,0.8801127766400985,0.9363516964243885,0.9436322583043215,0.893692874724703,0.8220345255002339,0.7590191622431846,0.6836723255930646,0.6068399294442619,0.5303583555262725,0.46497979367698905,0.3940573174524009,0.31725496127083597,0.24042204742695095,0.16366434302724198,0.10604494963098476,0.15226942501994234,0.22506271621465768,0.28577310270697964,0.3207461051136793,0.34004237163683904,0.35020511070690263,0.3390276735133195,0.32333089593765285,0.2941948412481108,0.2713602926628371,0.2921954497618331,0.31280382168205945,0.3137709544042453,0.2997994707874243,0.3023197887272695,0.31475597376963993,0.31673667571623954,0.33122297601910455,0.34757424428721295,0.372343294674069,0.3845775779141163,0.35597555482351817,0.3155343416174725,0.2712632938465571,0.23268923085676052,0.21475263017730128,0.2302561325736039,0.2446071140159778,0.2587591606962776,0.27300967164636125,0.31560491064104124,0.3588620100602071,0.4157948092145327,0.48446638342275117,0.5473174991466672,0.6146791549667143,0.6821128777963508,0.7520004087372523,0.8181671034800813,0.8891959555749236,0.9528452920111472,1.0,0.9838906456772758,0.9140242958437717,0.8511253346636853,0.776163203324328,0.6993316795705304,0.6225565687922603,0.5525902059983978,0.48636545541735465,0.40974675701219665,0.33291384316831163,0.2560809293244266,0.17924902165796075,0.10446245029364087,0.0898884900071999,0.15991645001993238,0.22761814211250364,0.29480859957363803,0.3451435656467079,0.3716805811366366,0.3858304988162353,0.383692643301087,0.36649417149467123,0.3417955212659898,0.3027132871124505,0.2855134166047897,0.29709323838154855,0.2966252378217149,0.2820861549506315,0.25519967766937546,0.23643164247446657,0.24636571797786155,0.26060098284105315,0.2696599679945222,0.28546054291236445,0.3172223020429814,0.3300207016837544,0.3018114487537433,0.25630005629784636,0.2171492064669538,0.18123123741924285,0.16856066886535004,0.17482346179574693,0.18892016737380946,0.2040212552949665,0.22966277507295985,0.2619397061072535,0.3105072084675222,0.3703464064614215,0.4321228116103102,0.5006459177057945,0.5659499070329077,0.6338686015286892,0.7016967392922919,0.7711906124037644,0.8370814310377943,0.8967500908827097,0.910213861020428,0.8609034080603784,0.7917684993264413,0.7149911759081524,0.6392730799104513,0.5760782396166109,0.5022341908453525,0.4254056389096723,0.34857272506578774,0.27173984235601445,0.195216237043645,0.12942114157976992,0.059012481497632496,0.0,0.04376342807995082,0.10958331778522945,0.1796920250577343,0.25055896100727093,0.29408667002328626,0.31264890187647687,0.3152532131902763,0.3104256531753973,0.2851930082402685,0.24816092349042762,0.21637240480097075,0.2259571042710249,0.2519347505693146,0.26194398338659086,0.26203130444541856,0.2620362235695177,0.2653690757730889,0.27877739076014185,0.27999200013637005,0.2938130505111727,0.31413950965275284,0.3069143766970601,0.27225642258212535,0.23309276414150526,0.18764528507115674,0.15864988877177266,0.16744257576590327,0.178833048731045,0.20130424968101046,0.21721997710855545,0.2457349927199295,0.29091092736046464,0.3473637900187576,0.4051086836942739,0.4733101552332708,0.5500501273916467,0.6260947890607675,0.689666109226525,0.7610904776295162,0.8238314781398954,0.8848891819778535,0.9119281404315727,0.8766368791584087,0.8091360439876456,0.7463311919276427,0.6715613150328168,0.594730348494918,0.5179462564372725,0.44759803158315137,0.38174304853175123,0.3051454259365838,0.22831251209269743,0.1514821181772401,0.07880847399506363,0.07941453915917451,0.15226877777281445,0.22166429987731906,0.2824485915159842,0.3069668795238809,0.3122885682430194,PM
0.13196371031232768,0.14050207208102194,0.16546404957834282,0.1973751284896046,0.22625137637047987,0.2585822845778363,0.29416882035564806,0.3328713354622417,0.36609869952424523,0.3923687701655283,0.4277908312518208,0.4666303106756047,0.4995913450736944,0.5300015156716174,0.5641320698540142,0.600389042369349,0.6393124852579113,0.6782582351918094,0.7172039851257084,0.7561497350596071,0.7950933976584136,0.8329927960702856,0.8662164093303357,0.8946739003973536,0.872219087658848,0.8362938617066844,0.8017100412125067,0.7628914449491087,0.723945708554085,0.685000340998906,0.6465965955494197,0.6132104872430235,0.5755383401085661,0.5365952398899003,0.4976700046195084,0.46132344403070724,0.42698330879278434,0.3881904991105889,0.3492447712257156,0.3102990212918171,0.2714041011462347,0.235909774685356,0.20104851900445753,0.16737007967771622,0.13286391919431506,0.11865817127179912,0.10779544735071189,0.10598942471224104,0.08779659704144716,0.07037657221538951,0.05746499310738318,0.04893885330456027,0.0411461148463208,0.033283631833836536,0.024220666542889013,0.01784092630974765,0.020213769784585667,0.03843227186281695,0.057923827988658694,0.07908957521889692,0.10269564501847595,0.128403484090313,0.15499763373466147,0.18468039517955148,0.20299809005319158,0.19317319176807612,0.17301603536947896,0.15653602178930948,0.14760965244499014,0.13996895533182863,0.13994970787379635,0.1466861561679058,0.15584890208447488,0.15878793022253124,0.16668432017310075,0.16861500802359264,0.16862155877225837,0.16862155877225882,0.16852493834223647,0.16345315834451735,0.15257760094334127,0.14172498613644446,0.13291119686894048,0.14491537861822956,0.15017294233318124,0.14656273114812857,0.1464904462350971,0.14820554007570097,0.16427355447573233,0.19319433484526938,0.2244895475854145,0.2553171149991562,0.2907529866687941,0.32539108402684214,0.3642316375191603,0.4023636172737304,0.4356287912107146,0.4736928314961968,0.5126375274491468,0.5515832773830449,0.5905289885570786,0.6292255292385476,0.6631687008549976,0.6999988319149579,0.7389337460472296,0.7778794959811284,0.8168252459150263,0.8557709958489255,0.8947167457828242,0.9336624764528376,0.9724437527011416,1.0,0.979047416105153,0.9403752690046918,0.9014295347758883,0.8624837848419895,0.8235380349080914,0.7845922849741924,0.7456465350402939,0.7067007851063956,0.6677550351724972,0.6289027318391456,0.5941015750708201,0.558258483096997,0.5193503164422111,0.48040456650831254,0.4415055453444241,0.40632904585288054,0.38037044673808995,0.3542206017431053,0.32258989600873944,0.28849794587654976,0.2521346706456249,0.21742581741590583,0.1820282354709486,0.1487422577329478,0.11602386028722189,0.09160713691075828,0.07335856621405301,0.06516210575533088,0.05587709591363099,0.04403800172634775,0.0357762507763415,0.026157615073997498,0.015523978327495858,0.01457676786208828,0.02671621293292903,0.0463896456379691,0.06924467957942437,0.09411249127423926,0.1233922869742834,0.14980407658236738,0.17536966556713218,0.19357779824114085,0.1890375391750987,0.1701526656087955,0.1528191834194561,0.14024064170881823,0.13362111706744684,0.1317405679294319,0.1326129464722101,0.1403393569381981,0.14983290764484036,0.1551486283334358,0.15745762962504806,0.15788644865421175,0.16049573116533122,0.1580033234254572,0.16060544326934156,0.15475713855311457,0.14614611346449458,0.1437483129668955,0.15937863607697067,0.1626741771852438,0.15932288764718816,0.15970820942226327,0.16147540756663914,0.17080324847641037,0.19809422922380504,0.23041070176048306,0.26274425335962737,0.29424755053332885,0.33090578854259545,0.36525958709055995,0.4015792826531852,0.4405039802090276,0.479399763377925,0.5148417083850241,0.5500322158543434,0.5889086989393144,0.627854448873213,0.6668001861966164,0.7056012601162762,0.7376237381948725,0.7690607683303292,0.8078252065008062,0.8458857775441802,0.8791236633794739,0.9172865315813954,0.9562157805818774,0.9892259407787032,0.9761005293217986,0.941868890509745,0.9030498497693893,0.8641041132196341,0.8251583632857376,0.7862126133518377,0.7472912317023814,0.7111468859787402,0.6766208493261447,0.6378078792259165,0.5988621446876552,0.5599163947537553,0.5209706448198583,0.48202489488595845,0.44307914495205813,0.4041361344565102,0.36641834952806374,0.33305735924390345,0.2950433578455638,0.26147019728021204,0.22440251012987522,0.19051873654539175,0.15464722928029295,0.12533069139229003,0.09984962053657931,0.08050005313038588,0.06369344985549197,0.05073379329976713,0.03945707780980556,0.029400502498243775,0.020500972666175343,0.008617712270639233,0.0,0.0026687164580212475,0.01689079054050202,0.03844662205776461,0.06246594420580576,0.0880101759768035,0.1162943324079877,0.14416636856010068,0.16557719712679853,0.1679143851821736,0.15207359301638146,0.13512502120967196,0.1195685396897288,0.10662333439410987,0.09930239760356363,0.10119212401132471,0.09976021954274894,0.11023146905895453,0.11666159524549657,0.11697062595891405,0.1158462117787038,0.1144872185894934,PM
0.7531723604634026,0.7470842117527832,0.7398735574874571,0.7298523419367067,0.7173098587187097,0.6981964112705699,0.6767628699988684,0.652763157052308,0.6411111841772341,0.6352684029240865,0.6188104681110682,0.6238656946524355,0.6188365489112986,0.6186909188661718,0.6131776006652254,0.6151512111531661,0.6338794570712225,0.6584097435432779,0.6829751525364633,0.7069666591117103,0.7222847875917848,0.7371590007485571,0.7415480263329346,0.7392068499453044,0.7304021188016425,0.7240093556140879,0.7183134286280324,0.7234697159990184,0.7297916825767619,0.7312559478386753,0.7307717013987882,0.7175944495693509,0.7030780916412256,0.6925606804435314,0.6838656051776848,0.6922896968146068,0.7115812661775758,0.7311374706565801,0.7471184974440677,0.7531880697486446,0.7513424305727476,0.7272539101303774,0.6878592219359076,0.6468921995482346,0.6070537686630599,0.5595037473892495,0.5103745629535703,0.46124340238053696,0.41211224180750294,0.3630654489933254,0.3199995737489929,0.2763551247375957,0.22728045941005393,0.18076401565068756,0.14067850800894544,0.11318822788092642,0.1321021379690137,0.17398488007017576,0.22300893229918928,0.27023875323690816,0.3103348386195419,0.3587187697295402,0.4078499303025731,0.45698109087560757,0.5061122514486405,0.5552372705507356,0.6017507472878527,0.642243014830671,0.6862023767707748,0.7184070304286223,0.7658395987497126,0.8149023306646053,0.8583320496608853,0.901620274425236,0.9506755622602976,0.9980176467952997,1.0000000000000002,0.9617404058075134,0.9186122451114509,0.875820949318683,0.8337219391485597,0.803738274986449,0.7841907226146163,0.7713888646552729,0.7650484985778125,0.7632943061429465,0.7533693607314309,0.7432283955945809,0.7302065716813066,0.7085055630128134,0.6874399349607003,0.664450163008274,0.6475028306511947,0.6369403701973699,0.6385104675488782,0.649970048166367,0.6651283991820434,0.6815147397201253,0.6983565839753387,0.7157999242939979,0.7205298950603221,0.7222001271278815,0.7181660904581699,0.7125864518028147,0.706814938669567,0.7143174398448509,0.7181801529279082,0.7181966222992047,0.718183035277659,0.7146425789399957,0.7026123847889141,0.68771946910513,0.6831673618653504,0.6838581890454327,0.6982280108158316,0.7215887656130195,0.735473122278774,0.7414815651733064,0.7378869590247565,0.712802939147456,0.6768107493871967,0.6352963830475984,0.5874813908125069,0.5475054586634833,0.4997862749479649,0.45068675095546507,0.40626560244626075,0.3639283828261821,0.31494987201768354,0.26581871144464975,0.21672004013108537,0.17235183198378956,0.12996356099099038,0.08143635535500038,0.04699729575795941,0.050097447222724245,0.09192763514001268,0.13189528488355906,0.1799313808360432,0.22906200362789053,0.2781930851758265,0.3268318648597621,0.36745759037221704,0.41390611596726257,0.46303082333436185,0.5121619839073959,0.5612931444804286,0.6104243050534628,0.6595554656264961,0.7084348292272908,0.7496247037504493,0.795275190914732,0.844393124759933,0.893524285332967,0.9426453302216575,0.9837809435291696,0.9618608702227436,0.9222518074986639,0.8808729741054038,0.8444260555065533,0.8116898315822261,0.7876363756191791,0.773613586920274,0.7564874604273073,0.7531169883651179,0.7458715197712487,0.7360984237576098,0.7212225685877423,0.7052221737369571,0.681505713084865,0.6618972873188016,0.6407087243968821,0.6220862305753676,0.6133548919561129,0.6157653993291499,0.6318852963277855,0.6600159200347215,0.6848835475225485,0.7030031583097185,0.7176708691828033,0.7314970938256167,0.7332368706247272,0.7294680531398032,0.7208675096902037,0.7162073769748931,0.7076890558526983,0.7154478465961189,0.7181896646821959,0.7182033037209286,0.7208320466508142,0.7193503487054702,0.7016346609794064,0.6933824096294086,0.6775299530370895,0.6744552638014862,0.6892389813340376,0.7056191575064901,0.7217751600773668,0.7280525535695284,0.7211562427021165,0.7183677554471579,0.6952238301132225,0.6588641173523286,0.6158791406920092,0.575770406672635,0.5287943293974786,0.4796688643128606,0.432044576325485,0.3921792558915862,0.3439606815941998,0.29482992846225553,0.24569876788922196,0.19667770343652924,0.1542461831471711,0.10995208638602572,0.06118099946973632,0.021494488860639205,0.0,0.02391459706032184,0.06912642065175056,0.11824190449966987,0.16736815777467906,0.21422944625010398,0.25447259837195646,0.30307956363310784,0.35221072420614097,0.401341884779175,0.450473045352209,0.49960420592524146,0.5487353664982755,0.5978374639946809,0.642757277385785,0.6846077376666273,0.7335730256317119,0.7827041862047464,0.8318353467777799,0.8809276930069305,0.9252228157450897,0.9507066897960115,0.9200538087828682,0.8788532932399635,0.8404914210711893,0.8075097366192425,0.7860620076493425,0.7682273962700639,0.7536702610815351,0.742858463168697,0.741446446574344,0.7336565938641424,0.7191089056652418,0.7050034653882793,0.688533799980152,0.6654652570512289,0.6395249113031041,0.6208903134286989,PM
0.07905129535083422,0.10230727444456411,0.12089778594653611,0.12292306605306447,0.14335943982737565,0.18095295111801724,0.25106080270151354,0.3113319011230118,0.38777863610379537,0.45774782330112185,0.5229150379313809,0.6014765806379865,0.6802844029979926,0.7512952073625279,0.7974298233988444,0.8491422596836964,0.9226328738941358,0.9611089642673525,0.9274320374698641,0.8532363077919065,0.7926723305818042,0.7152916386708261,0.6364959696470525,0.5650378350643352,0.5013506677768156,0.42967770144024,0.3676219414049955,0.3385018130641346,0.34616960702196886,0.3079615540251015,0.2425591910601086,0.1966284878893685,0.19005994817279337,0.18520849842701548,0.1606563802004919,0.1444993917925661,0.1286175961312832,0.10075935487086163,0.10921283060802134,0.13682128922794767,0.16484679559976856,0.16724212065812205,0.1707779748099143,0.18803540419228293,0.17274742809052324,0.16725270762063982,0.1672422620354177,0.16724226203541281,0.16724226203540749,0.16724226203540216,0.16724226203539727,0.16828445210809617,0.1862434770968311,0.2100700580625685,0.2541562796258967,0.28699924350893724,0.3168624163096676,0.34662425816452913,0.3422745715316964,0.3059625198328719,0.25688632268790546,0.21020787707419464,0.16417889595048063,0.11529362178527647,0.06793765165462018,0.025272982115607245,0.0,0.006312313349912113,0.022086967323876827,0.03516114822912275,0.059535070564229464,0.07996331043956673,0.09988772998288109,0.11931395086473051,0.12344136462666322,0.15558945400262125,0.22659592980295562,0.30528619201171825,0.3726225640676981,0.44033429626151044,0.5190479234333711,0.5907399880101014,0.6543496375689353,0.7327400822953054,0.8105081791553532,0.871327061778171,0.9257510386237131,0.9249254825570263,0.8812177786437685,0.808070153613369,0.729480567651021,0.6639672274493327,0.5943800749625163,0.5177906580733875,0.45763697387132307,0.39349884432064686,0.35200280115882343,0.3243880129010899,0.2664141647966378,0.21502745690940372,0.20252321953051355,0.2083447994832155,0.18855004248704654,0.16909220420828808,0.16675243196593303,0.14768485523311536,0.11688083953821149,0.10577943957710234,0.13765753157719374,0.16268962197959835,0.16723543135848606,0.16724226203524095,0.16724226203523562,0.16724226203522985,0.16722409659715787,0.16069246035777196,0.14476976489482363,0.1445949562252582,0.15729657296561728,0.15560028148263383,0.15685668706469524,0.1679412147321453,0.18659633436169187,0.21844096503970833,0.25777003555059474,0.2976208947681225,0.34618010019344325,0.3717685082511504,0.3661056203140145,0.331395602986178,0.2879059850776713,0.24065638397368838,0.1903854543867416,0.13801126053165635,0.08553891091948707,0.03808517380444609,0.009443916460707413,0.018004034104460054,0.03223427635982912,0.05504538480636212,0.07678416227657037,0.09632069566224466,0.09907374053655449,0.1141403753324437,0.1351424256654994,0.18252071228131106,0.24616316813142713,0.3221915802376416,0.3826310483160893,0.45947615144408793,0.5383047794598221,0.6152851709077005,0.6756087610279531,0.7519796295208412,0.8306896681247631,0.8975840546240841,0.9473465555319089,0.9576656533146402,0.9114585411032508,0.8344755469880969,0.7564832363087586,0.6951674710211808,0.6207999128884243,0.5419740416162249,0.46324012842126994,0.3958649300167236,0.3591651554453894,0.3670745916938474,0.32716445638288993,0.2683897647405513,0.21146974508617378,0.1903929670118747,0.18800751060654397,0.16632771200992869,0.14578153522260084,0.14140915692737543,0.11800755862591572,0.10111693591878756,0.12170123478328287,0.15392454432062674,0.16714004010082606,0.16724226203504555,0.16711535374428932,0.15491517024386736,0.1576175517645182,0.16716895912782226,0.1672422620350229,0.16723930095161332,0.1644609416352112,0.14607544317927168,0.14584946711138702,0.16416499653486039,0.1780592946496964,0.2061902138387559,0.25421630866114553,0.2956871399244938,0.34130647778829903,0.3682143671296676,0.3671097383957749,0.33318308233234406,0.2902464798140789,0.23583126351375094,0.17785860920485597,0.12960943423242366,0.07996334792395032,0.029672267277741415,0.0010197706785350924,0.0006237254968213257,0.005525502589748488,0.027812059928109978,0.042295036031862576,0.0611853503757831,0.07706741472814516,0.0962074816810281,0.11574876824764235,0.12888583435670098,0.17175557217134507,0.23074895416340224,0.30762644701360964,0.3689283051541241,0.4434657967745741,0.5220245383656019,0.5862474089574361,0.65717507489168,0.7359612665758934,0.8145818071644042,0.8797848308820226,0.9485332898212633,1.0,0.9853043395983425,0.918866879829288,0.8404409665746568,0.7758176635566381,0.7052458314654055,0.626447116203324,0.5517972887636926,0.49109340718542427,0.4291322445638297,0.35955193347834236,0.3406986397110785,0.3420166982996484,0.295195002560511,0.2357036057846864,0.19384846473495232,0.19002763078402074,0.18213814338733547,0.1512960246241981,0.1613785949036366,0.15760480490758066,0.13195845716687593,0.12839501468875625,0.16088625789435795,0.18580436016978208,0.1900526435907004,0.19005902511822725,PM
0.11106961501868429,0.09561671865678933,0.09331203312157754,0.10498052895234111,0.11324112740102232,0.11576547259135972,0.11578158999390942,0.11570661428596019,0.1116090118953601,0.10644671162414854,0.10027323183957582,0.09971975237853847,0.10280370729032717,0.10954353784391513,0.12421589425494561,0.13171169158676865,0.13186951310668138,0.13186437353531355,0.1298245533351028,0.11630620672293546,0.09758010776080517,0.07475955566235237,0.05086101326622239,0.02848678407168248,0.009546799945459705,0.012169767880715998,0.02947486968066526,0.044287252564427115,0.05286426487726614,0.06077249768508919,0.07447396275555507,0.09339134490693257,0.1222081097383314,0.15406962758326648,0.19112662107091594,0.22963249384949358,0.26306959182284984,0.2985070458010026,0.3294165466154566,0.3581641751407092,0.39684364048572585,0.4348287984935224,0.46849758013966647,0.5077595795137804,0.5474114659810809,0.5870634980000791,0.6265183478391196,0.6609013917238233,0.6979926306970072,0.7376276577667271,0.777279689785725,0.8169243165377986,0.8546131187622537,0.8885224711762161,0.9278439190112195,0.9674070128514718,0.9998422004603753,1.0000000000000002,0.9677764712854862,0.9283277968589683,0.8932647859765155,0.8569281489554006,0.8173102614898597,0.7776582294708616,0.7380061974518637,0.6983541654328655,0.6587021334138676,0.6190501013948697,0.579398069375872,0.5397460373568739,0.5000940053378757,0.46044197331887715,0.42078994129987946,0.381137909280882,0.3414858772618836,0.3018338452428857,0.262181813223888,0.22252978120488964,0.18290839175450024,0.15071452105969607,0.152440795475979,0.13770927443555414,0.11914069962169105,0.11231516461517566,0.09230239118733041,0.07682558692311403,0.08423564963129593,0.0971192287172431,0.10714440458983487,0.10773725370193499,0.10773762168447476,0.10771765824611057,0.10496814969831525,0.09722406195179478,0.09282519449912008,0.09978177118684894,0.10774520636994289,0.11805609353028412,0.12836476756128534,0.13631034998930902,0.13975810923565968,0.1349361842523602,0.12523764251816427,0.11065105270045628,0.09371591190867212,0.07078785672971333,0.04814385947426714,0.025265861801354816,0.0,0.002464041299311104,0.01611712007874022,0.03136282513465094,0.041634332269705476,0.050110842532625766,0.06435248697899199,0.08415914314695572,0.11418046953428318,0.14510680856328695,0.1781871139003155,0.21406754002793282,0.24753652597522224,0.28435788224274106,0.31736618938983274,0.3471728891658672,0.3810900969684117,0.41484218724022903,0.4525932500354348,0.49223930687102446,0.5318913388900219,0.5715295897631227,0.6085613992609988,0.6430025396880348,0.6824555275978563,0.7221075306756681,0.7617593967651992,0.8009691713809219,0.8346884748022354,0.8726764648093581,0.9123236491436428,0.9516303754376907,0.979021641676386,0.9656899247056405,0.9290809591878622,0.8951734382712127,0.8558266088533124,0.8161746424343359,0.7765226104153382,0.7368705783963398,0.6972185463773422,0.6575665143583438,0.6179144823393461,0.5782628077109457,0.5391422090296596,0.5055715460290435,0.46734784648917826,0.427698290553699,0.38804625853470043,0.34839422651570295,0.30874219449670504,0.2690901624777069,0.22943813045870898,0.18981241807114202,0.15558275013220646,0.14347923759979775,0.12275575917384329,0.11309706987615309,0.09955219017323591,0.08828486470458463,0.08714834108372949,0.09600230535522458,0.10954297806586366,0.11562795888900523,0.11578150799370368,0.11545720209338572,0.1097351977617469,0.1061009475127419,0.09943074008295949,0.0928128918720661,0.09270698531159449,0.10092484784330824,0.1093686228104711,0.11899140946067432,0.12982441849708692,0.13172700940188276,0.12678040036984006,0.12288085731000109,0.11232598895100687,0.09369548650183046,0.06910553482898973,0.04263796428895539,0.021106855170861083,0.014089494417048654,0.027430422152497913,0.04932580170099676,0.05913638495092188,0.06142951521253348,0.0744472556757172,0.09434426218638503,0.11799606833539622,0.14932323160809147,0.18111563007913523,0.21679086151457505,0.25103363207094676,0.2857914325448869,0.31881533504567217,0.3484114534148208,0.38311463380735744,0.42167636927548724,0.45511279985344144,0.4939435271144321,0.5335947674730841,0.5732467994920829,0.6128988315110813,0.6525508635300796,0.6922028955490764,0.731854927568075,0.7715069595870734,0.8109743241386351,0.8454489446985078,0.8824378673774513,0.9220709765772044,0.9612678278771629,0.9875800900703211,0.9776024171039304,0.9414573710427898,0.9018194023420743,0.8625644730026016,0.8289044052204801,0.7909027493167013,0.7512550864317824,0.711603054412784,0.6719510223937872,0.6322989903747886,0.5926469583557901,0.5529949263367933,0.5134091751933094,0.4777103144515227,0.44202563671835016,0.40243076657014365,0.3627787345511455,0.3231267025321469,0.2834746705131501,0.24382263849415198,0.20417709531782147,0.16816299500069087,0.16076487026289366,0.14362302202852906,0.12543934206961294,0.12160773101560585,0.1063800083178339,0.10738237585902732,0.11490067618697286,0.123785281497931,0.13093189585337184,0.13048588589316945,PM
0.23620097742356572,0.2303375167094669,0.22066029097086437,0.2217811898920995,0.23573548494064056,0.255776403299235,0.2694493891980818,0.2585502594627601,0.23278888880729032,0.20081376959613184,0.16348344325872666,0.13040141748298406,0.09874516873372108,0.06806178065234891,0.044447296562598715,0.043169351531987976,0.05279592268936162,0.06523340100097152,0.08413914497305908,0.11301593408028632,0.14923389522823105,0.18713359406200147,0.22474239259698447,0.26561972821230784,0.30348565595433696,0.34450609108249564,0.3866477168580901,0.4276922131795776,0.4655372689996279,0.5072338131927597,0.5493741209759669,0.5900066552917934,0.6281037399233985,0.6699653652287735,0.7121158344886257,0.7542663808355868,0.7964169271825482,0.8384898346458728,0.8775967260788048,0.917049108352113,0.9590160717914601,0.9940829876465552,0.9923383334785346,0.9578782746021953,0.9205846604925781,0.8875133998423844,0.8492567808030876,0.8072596312827459,0.7653331790994159,0.7270654066770273,0.68666471764022,0.6445276290955745,0.6024145641855022,0.5626805671410274,0.5238388753731053,0.4819217591069024,0.4432382418825086,0.40395574714491456,0.3665866918693935,0.32953598997697375,0.29061884666970184,0.25956214517013876,0.2580385473952572,0.2584912299109009,0.25653573560462495,0.24623426757722722,0.24029743805861847,0.23215765323439674,0.226716285366948,0.23365788038350477,0.25253885569845536,0.27504439254767965,0.29120985044340253,0.2856857659773545,0.2600366473559689,0.22887454886100045,0.19607020409434028,0.16324977318598444,0.13143901206820896,0.10012438041655636,0.07173840063844594,0.06368674853227085,0.07654242743209305,0.08586213429915657,0.100941509577408,0.12829815456883942,0.16321088386049176,0.20466603814035522,0.24446070428156652,0.2832430795638433,0.32502489459827266,0.363218842175946,0.4037224810748191,0.44577773033507395,0.4848145215406573,0.5243389431113245,0.566418012256071,0.6064678269463374,0.6450282305238263,0.687023487138482,0.72907075276924,0.7679368853104166,0.8076436647608906,0.8497516183118415,0.8908444899539972,0.9285496607826081,0.9614332526490498,0.9529336403016323,0.917887490552065,0.876636559123991,0.8364082518356694,0.7980077348254025,0.7560389597917246,0.7138884134447631,0.6717378670978019,0.6295873207508406,0.5874368642348041,0.5455887168475783,0.5075126632885948,0.46704475139936663,0.42867960547064043,0.38922255905423475,0.3517703156555766,0.31447376697188434,0.27831251522651945,0.25951701792159576,0.2595792753902749,0.25784027427823486,0.25079984466382166,0.24266716065046967,0.2393221644692768,0.2414548195639571,0.2574014915890862,0.2784821076756888,0.2995923926978733,0.31489531343724664,0.3079387493497653,0.28309967836499983,0.25254264769545653,0.22050407482895806,0.18723702059864245,0.156002647045548,0.12436619196730037,0.10207882154475956,0.10097700176548108,0.10688028030591479,0.11635641401605035,0.14122162275533834,0.1766899489177982,0.21366173098340802,0.25339495656492306,0.29126095116788153,0.33221019937521323,0.372185999602764,0.4108040426501972,0.45277227314154256,0.49237750748366593,0.5313395733778773,0.5733942657901899,0.6155122058639805,0.6553158889012621,0.6940909146274704,0.7361261210695501,0.777990915268547,0.8161091816081275,0.8567176294770288,0.8986580207337468,0.936981639063854,0.9765728296713913,0.9999999999999999,0.9777696560212475,0.9399056200527905,0.8979603788135632,0.8558098324666016,0.8136592861196413,0.7715087397726795,0.7294078033289008,0.6899301065083766,0.6508478584061189,0.6088581669324241,0.5697546584895096,0.5302966116576396,0.48901119171002205,0.4512877183617482,0.41196133944929414,0.37497949213576953,0.33768550131141783,0.3049388741128921,0.2952835206497503,0.2921575888898441,0.2813379099253951,0.26267942448520487,0.25160760813548155,0.23970629998585702,0.23191087786013143,0.2415969022898633,0.2585295248918673,0.26965854555838586,0.26311079365093915,0.2390012614772704,0.20951734313312764,0.17628903253156758,0.1419302967998508,0.10820983773744008,0.07210162062143943,0.03919601671805506,0.011278968698300362,0.0,0.008071428182416907,0.017689603778992313,0.03353884459686618,0.062458512172825276,0.0963239684807572,0.1332640965117523,0.17188545149516554,0.21116118038005494,0.2531525407530376,0.29206511076339814,0.33172017678527055,0.3738294999344657,0.41580966280087395,0.45427252258335205,0.49443098148563414,0.5365395089767863,0.5766501949360695,0.615159609751685,0.657142877715429,0.6990925224384078,0.7374149521179588,0.7777406595095756,0.8198738300866609,0.8614143043840486,0.899135882839487,0.9346831673341466,0.9299438747274397,0.894383863310828,0.8536612104198068,0.8119692651409628,0.7741208412450499,0.7330832556836583,0.6909369999996554,0.6489860492688077,0.610614082419982,0.5703393086920413,0.5282051557864732,0.48641675919976557,0.45205680220505806,0.41992910234959846,0.38799736983603605,0.35241096050186604,0.3141403827434591,0.27646363201927515,0.23853202538795515,0.20546930816170883,0.1955622922676209,PM
0.6790539541139098,0.6339179047450991,0.5888740774143062,0.533269925626255,0.479910452828086,0.42659696226871135,0.36425408367457246,0.31239532094833233,0.26579727030666334,0.22547488356559597,0.20393078095767825,0.21544526473393244,0.23918059520138968,0.2524289913057327,0.26547832567330154,0.27119484293326046,0.27461423654313766,0.28543847301971903,0.2863213278800014,0.29512474357669616,0.31494719908584434,0.3462540488847341,0.38297998220138263,0.43024510604176003,0.48383396300714754,0.5489403594302824,0.6040815805476871,0.6673056359016467,0.7339239673983129,0.7958218087570006,0.852022304947091,0.9168961803512428,0.9693310095300949,1.0,0.9659268031543253,0.9040264224688936,0.8373964358377344,0.7707478761352093,0.7042900628235484,0.646484064274726,0.5863208220951481,0.519717138944725,0.4530685717579499,0.38642000457117476,0.31977143738439917,0.25312287019762403,0.18652957636091871,0.12618396033618406,0.06861611041118598,0.016351156168482373,0.05271675703572187,0.11909283515330538,0.18442477802234247,0.2389497891372061,0.30347810767635597,0.37006196835271865,0.4298352971585495,0.4806557679960126,0.48653203951650514,0.4479176353780159,0.40723271043588705,0.40170706032702075,0.3973365836895453,0.3741678943643305,0.3489990854209797,0.33949478762722585,0.3407099298282805,0.3567918469151965,0.3700530005383067,0.3705817404977818,0.37058181484133135,0.37058181484133,0.3705818148413287,0.3705818148413278,0.370581814841326,0.37058067790257887,0.3690674329736243,0.35680090043387125,0.35501897411941696,0.3537586783137674,0.3396973099980216,0.3254712327639262,0.32392076242683165,0.3304059523061498,0.360491103183298,0.40112924375924,0.4455594284078792,0.49510917698525736,0.5410934781118155,0.5854016536536526,0.635257206561731,0.6828813674643444,0.718158761310185,0.7249001404435242,0.6970274508643302,0.6527039407797863,0.6020351609620138,0.5489979619944636,0.4982981512824032,0.43628110773282813,0.3795833826307464,0.32956132045772923,0.2796015258664535,0.23530885506189803,0.19883107927953603,0.1915847010076317,0.2165724291891773,0.23215087171764948,0.2476682770195171,0.260716883470824,0.26163962229922166,0.2639968880264929,0.27650920259317635,0.2918866677588392,0.3132692435883109,0.3426778394207912,0.3799546815034609,0.4384107839392346,0.4927289287147989,0.5567994134498515,0.6113633967288532,0.675693741840595,0.7367831020932742,0.7937183338841032,0.8582593466303048,0.9092639921701782,0.9170152364143682,0.8694376135127326,0.8066247821673818,0.7399869914877799,0.6733384243010034,0.6066898571142283,0.540041289927454,0.4735309690087255,0.41513247622524885,0.3555855578649667,0.2890105602212203,0.22236199303444604,0.15571342584767,0.08907608169474113,0.026581923003934804,0.0,0.052127348722046385,0.11872713306818738,0.18537419855119364,0.25029750298618003,0.3046966948093437,0.36975899523329936,0.43593105679751387,0.48655893628956814,0.5054172066136866,0.4718583364718065,0.4207237441993632,0.3875644710071948,0.38563190888766385,0.3699332140715006,0.3497912303796462,0.33970303004499014,0.34571650855878655,0.36254018402431276,0.3820378887346112,0.38611452254277845,0.3807851181674198,0.3587704866480119,0.35502410405714047,0.35502940703705876,0.3588295488418516,0.3640389323537718,0.3552026843007656,0.3550182758004068,0.35496220224977915,0.3486215751577455,0.33961818755681517,0.3394547367595342,0.33945473675953286,0.3393585205267402,0.33199768889235726,0.33968540899223587,0.3738042940288073,0.41714450726280106,0.46522417661166093,0.515090844416179,0.5613945227203252,0.6113741687674912,0.6627038230800069,0.6919821934492179,0.707305040734548,0.6805563737613696,0.6410672307654419,0.595773091207858,0.545286636359585,0.48333021230706397,0.42654712307271936,0.37614483728972914,0.32319683091745244,0.27651265535794867,0.23227127409478943,0.19778176181436313,0.18598558289199962,0.20252318389462154,0.22027062556545074,0.2306857321636504,0.24163928660435197,0.24683826906537076,0.2588332386225507,0.2689250701420236,0.28543839264268156,0.3047944767107751,0.33836482133796597,0.3891165884809076,0.44243259400931034,0.49647005496663343,0.5618984316269828,0.6205406801830806,0.6798230189411383,0.746380829031982,0.8088474228180544,0.864589176979329,0.9304515269219942,0.980740949316544,0.9733473572903026,0.91294042835383,0.8585913687801305,0.7938166601393468,0.7271699593364245,0.6605213921496476,0.5938728249628729,0.5272252887462012,0.46191969863102944,0.40757772284145055,0.3431156902926009,0.29087373628274804,0.24030780445705302,0.17402342337989962,0.10747202284052326,0.058771279404246535,0.09278036979552429,0.15827748478853687,0.22492180085039948,0.28883117716777207,0.34358925323030576,0.4091615749707387,0.46612832395426507,0.4916837526578295,0.46463254124709286,0.41861676878329446,0.40181096449687326,0.39346412576714984,0.3734216927080465,0.33645284226866146,0.32405403031581503,0.3230571256680248,0.316140576737709,0.33275325836317693,0.34526022001489043,PM
0.0632459888063086,0.06392603759779925,0.07098348206093497,0.07227934109572653,0.07228085415580954,0.07228085415580798,0.07228085415580643,0.0722808541558051,0.0722929382941957,0.07531031057828774,0.07942775453777684,0.07250603192594518,0.06636746663053095,0.06593177777922343,0.07157291405329702,0.06577523399330265,0.07138960381946147,0.07462363608337319,0.08186785267722518,0.08928734321009713,0.09038467795544647,0.09516495544650438,0.11177086984223861,0.12976374240818256,0.15100209895937478,0.16803443525731043,0.1713989755616414,0.16278589936769494,0.14460727111761895,0.12288486538537402,0.09859091469630732,0.07444623337646972,0.05570142215129836,0.03907827518281359,0.02689566167154056,0.01853410712222825,0.018070323817245493,0.018070213538991853,0.01807021353899052,0.01829573804758322,0.02538953328043525,0.0401987011777194,0.062210159212444216,0.08874919966151129,0.11874343880778082,0.1473215621302062,0.1817135035758346,0.21742718702285013,0.25314243260567015,0.28875497666632244,0.3190708546362011,0.3512725985335412,0.3869683081674864,0.4226835537503064,0.45809703837789084,0.48705120350664166,0.5207993753293263,0.5565094293121231,0.5922246748949429,0.6279399204777629,0.6636504526020253,0.6971505471078561,0.7263786720377383,0.7617658578848148,0.7974810416223992,0.8331962872052188,0.8688855079576938,0.900661035267655,0.9212431194221722,0.9490457630466311,0.9812071926293,1.0,0.9888233785098839,0.9634700520006962,0.9326347354508093,0.9021099077804129,0.8664687430088902,0.8323238074848449,0.8037059623079452,0.7764049092012133,0.7504289508303525,0.7149957891138556,0.6792805860030651,0.6435782559004197,0.6106627760375356,0.5809753809174081,0.5454547104412486,0.5097394648584288,0.47402426174763845,0.43856935067592606,0.40914165546611025,0.37590789046740447,0.3401983437137919,0.30448309813097163,0.2687680896394893,0.23363513042910755,0.20513961239590017,0.17077899298392407,0.14075161469987751,0.10835785493445815,0.07826144919626787,0.05653891226618302,0.05421185806779194,0.05280822429958931,0.040695989019216006,0.03488830643394181,0.021784239598802158,0.011968798432900218,0.025734409998336094,0.04181089551083894,0.05102234954454987,0.05419441490229615,0.05421064061681968,0.05421064061681813,0.05429802987490184,0.05959265034621741,0.06322510802595249,0.06324562444092763,0.06271042657257908,0.05816133936995338,0.05731022472570135,0.052737148165751924,0.044282252286467205,0.036722131982579675,0.036999264682514355,0.04412994382538238,0.047326552618109696,0.057968415543414586,0.06713616135420386,0.07406400515865741,0.08152290378680704,0.09081888962888685,0.10648774943321282,0.12659275721453733,0.1466715526726614,0.1645318175911359,0.1787508927041186,0.172569502989266,0.15503160459969556,0.13673285073732488,0.11394519354103116,0.0921032883712285,0.07035033493579501,0.04883647622020848,0.027696859989440048,0.010974687657858917,0.007754527671878009,0.0006901994105132925,2.473809450620479e-07,0.0,0.0001672246463351179,0.006794720388011655,0.024494501752213127,0.04683798398243577,0.07390639695732859,0.10264144928907992,0.13452784928877315,0.1632631651209977,0.19733946702559413,0.23273553374595357,0.26158495173307794,0.2954520795500206,0.33116323694426764,0.36687667501267685,0.40087518229969077,0.42221447256488753,0.4478950126470944,0.4826350687014085,0.5183493901327962,0.5540646357156169,0.5897763048060138,0.6235837025892952,0.6525815541192554,0.6878905954763681,0.7236057568602527,0.7593016693920638,0.7916730595599595,0.8218326598275314,0.8574316324220694,0.8930748010108855,0.9235923734256861,0.9511032952188976,0.9494445651432875,0.9209197373940512,0.8886939985754143,0.8584995348262652,0.8261065191301049,0.7960629837284525,0.7604902515544132,0.724775079738802,0.6894295709530396,0.6604034337023879,0.6334103138522877,0.6085802072383659,0.5733040156571936,0.5375888527830632,0.501874261435209,0.46697458559521254,0.4384511106254847,0.4037625271667573,0.3680477398347817,0.33247300721179296,0.3026747731243542,0.27005038577352036,0.2400590376721552,0.2075437791591055,0.17516741426565385,0.14501913172237546,0.10952895701097387,0.07901793043364558,0.05173248560981403,0.044838404253862985,0.040198373134714194,0.04180260082185039,0.029441349520678672,0.019999249118680895,0.007076343096933835,0.00779065884212482,0.023286370715264848,0.03049824697952097,0.04152359418729201,0.04515599789841862,0.04517553384729234,0.04517553384729078,0.04517553384728923,0.045175533847287674,0.04517553384728612,0.045175533847284566,0.045175533847283234,0.04517553384728146,0.045175533847280125,0.04508686575134058,0.04008203706580571,0.03636395837974704,0.042369651262010644,0.04904891990879512,0.05427410670347799,0.06012091173124867,0.06322996303625184,0.06336574591227984,0.07045492940180287,0.08780013713910906,0.1056576567046923,0.12351528580340476,0.1413144157036197,0.15291208317332683,0.1494648544787378,0.13302545578473568,0.11404792603403235,0.09252170603165877,0.07121425653320834,0.05358481897356637,0.03346444084098499,0.015030890227493154,0.009070097833864699,PM
0.24949741262460168,0.2124831000186751,0.1727666406776731,0.13455647514128488,0.09364388176406013,0.05783761089729089,0.04268330753466554,0.04209678435662356,0.04670283879126491,0.05569847113090076,0.06642249322852911,0.08422179642487926,0.11619949031899135,0.147535754424573,0.1906003146274171,0.23697620730952873,0.28234530569603167,0.3344402333196801,0.37969800052329883,0.4336712766685775,0.48586867115313237,0.5315164819531224,0.585717233374887,0.6400327666240087,0.6858251524657202,0.7377682903161025,0.7919229317222418,0.8373617415326844,0.8862541344233608,0.93230014222427,0.9770348251861629,1.0000000000000002,0.9693935784946646,0.9206545900020313,0.866069980592467,0.8183173395921515,0.7691431687572219,0.7289164062198996,0.6848380873345452,0.6398685875262802,0.5875919735326669,0.5424462626286932,0.4902419324596894,0.4450268144569509,0.39413184279631763,0.3489749006507521,0.3012624213046451,0.252695501359016,0.20701156681926824,0.17737954749879603,0.15693853658457546,0.1402544895516309,0.1203923137822549,0.09901596970154092,0.08794857169335146,0.09729999241091236,0.12050974813806548,0.12863709127137746,0.12918912130667248,0.13813103703541962,0.1437353444172793,0.14542735203592705,0.14349348692032948,0.14571318325476423,0.14137182874925203,0.14940722458690825,0.15345627337595746,0.15347666087896217,0.15348123704359118,0.155980574380012,0.16922393548193848,0.1950463031624341,0.23411239668116912,0.27312148180273277,0.31146789945727416,0.3491598455250424,0.3901551939261678,0.4293072840729659,0.46583143818095185,0.4985213309494958,0.5186081037940335,0.5022727987816211,0.4673590947870909,0.4298479148736589,0.3888644747354044,0.34774061030596504,0.306579034017189,0.2654174577284143,0.22444842267988796,0.1858884817788924,0.13971268216816135,0.10144219511513652,0.06891038740041489,0.04640465583821407,0.030616868428022803,0.03084089008877311,0.04220752161838526,0.055865061100516034,0.07007525232896405,0.0930506605253465,0.1164444782575702,0.15213061645074055,0.1942278750570805,0.24050171376300677,0.28932804065565176,0.34255781553363485,0.3876230115214627,0.4411867770083069,0.4893893827388196,0.5385959578682591,0.593182108554511,0.6406861885258326,0.6906175288208181,0.7453739020123706,0.7971697240668567,0.8430734142206429,0.8947289839886301,0.9403927277791764,0.9861767465371203,0.9849977342781029,0.942946531655912,0.8885494658393343,0.8412702807107231,0.7910792964268529,0.7363037487673052,0.6828865499015933,0.6377807653768566,0.5846216999554923,0.5385339165000611,0.48957975482430727,0.4440202340036874,0.39211569795065704,0.34670586486022503,0.2946410874559102,0.2494688087882342,0.2020724691158413,0.16944792994316704,0.16422080609130085,0.1499568567952596,0.13410051219409302,0.10880998636533645,0.09458858681259508,0.11417456012172944,0.12820366156737495,0.12871884869486983,0.1287189493853611,0.12871901615338688,0.12921216275823477,0.1378794939967276,0.1320683438186927,0.12873038117359936,0.12871894938535644,0.12871885515628545,0.12826772410474896,0.11939236761431804,0.11654648790904298,0.12773514887437853,0.15424604814038423,0.1835067869866751,0.21932305704655053,0.25586160884627396,0.2943140292930584,0.33540280112929577,0.3741232499453291,0.4192283464079367,0.45378067625617,0.4731669950908979,0.4633832126034212,0.4319242815965454,0.3918451920706161,0.3506090696328219,0.30434361804674537,0.26043418883071756,0.21820783623785833,0.17964244322421785,0.13964626983689388,0.10276459270693361,0.0673721669708629,0.03475764577534313,0.01196777686091699,0.0007143254391097642,0.0,0.006296983760091024,0.020366076286616464,0.03862349255871478,0.05737975654252425,0.08424608991713645,0.12017595744220166,0.16381358035149085,0.20870446841131618,0.2615396633584479,0.31634337088432685,0.370530963310465,0.41603231738247337,0.46839174413954043,0.523141545907863,0.572356822537069,0.620533776669286,0.6752309442571762,0.7283024522400863,0.7734580078620266,0.8267381515206706,0.8724018341332564,0.9214014699536006,0.9652101535936561,0.988316431529422,0.9648304514920534,0.9161689910098663,0.8683214368592089,0.8187901065510308,0.764022244965308,0.7102913140550295,0.6651907161242081,0.6120467513237313,0.5630233605124049,0.5146441548488709,0.4599408048800415,0.4070605945959873,0.36217025849376294,0.31674695268663533,0.2678505181947377,0.22258255162775353,0.1862973325349484,0.18987591501654122,0.17933266488692579,0.1589299443968597,0.1512175818808763,0.1329777024153802,0.13865136084099072,0.1470315759053269,0.15548130492072199,0.16638598477844213,0.17688838568669385,0.17823315946031548,0.178828534589776,0.18814729602864255,0.19652135594880726,0.2029506073065266,0.20850273811052822,0.21591841836060532,0.22526995694893093,0.21765993542807194,0.18419657426535507,0.13384275278214042,0.11076323491961348,0.1328740574110212,0.16210248672652106,0.1955242995361568,0.2320575169574257,0.2685991310890754,0.3085542124582916,0.35717825634615585,0.398260709716024,0.43522541255270375,0.46470579755254904,PM
0.2659076691989375,0.2658722490555161,0.2602325929867306,0.25135453391128193,0.25079110867904353,0.24061019485185486,0.23575944791192294,0.2224471628850635,0.2081389539435583,0.20700177389490682,0.21128865063548297,0.22258227996783164,0.23479266928016562,0.2462604509246562,0.26298482683186863,0.2659400402314662,0.2731588372862377,0.3010479165301234,0.3416067806214147,0.37863712298665053,0.4155336458728254,0.4524089460895073,0.4879114675895382,0.5122979039145892,0.5146289321607025,0.4925067870215756,0.45940486562251204,0.42350428466728296,0.3823914940038038,0.34537797705871975,0.3084668024396269,0.2715898128590526,0.2360498365850554,0.2066147213866687,0.17096833529407762,0.143564047162005,0.1398027198497167,0.14286494428658258,0.15259471928078616,0.16631097155501484,0.17707268125984932,0.18004277537895508,0.2001466700749912,0.21083447907593822,0.22915437735631405,0.26176504690624824,0.3074709008188017,0.3622953369402637,0.4074384064814889,0.4584479409303084,0.5137137375208836,0.5686809722349162,0.6137870358229951,0.6648372734712602,0.7201032781725547,0.7753830947550062,0.8304280096784558,0.8762744929850674,0.926510176858037,0.9800001608101403,1.0,0.9762020382857206,0.9249284945463456,0.8696545942048726,0.8161779451018902,0.7725719388965397,0.7185434220049554,0.6632650762726389,0.6098101076208402,0.5661973205927353,0.5121540712065564,0.4575837562177596,0.42044850622906793,0.3802791929009359,0.3471648683424444,0.2946698184558212,0.23939419048819488,0.18447946680177507,0.13929892980822212,0.08827222200341112,0.03315509208815248,0.0008808088084841792,0.04376031263286562,0.09483186446037051,0.13995495512631306,0.1921046541699356,0.23552887744004147,0.2731885079488512,0.29483395963428727,0.30189595849325324,0.2954160573128455,0.29523263124248667,0.2860902318180276,0.26535122848940684,0.25046871060512377,0.23524322571711753,0.2140417403968038,0.22426298181368276,0.24715344170073328,0.2692973938841181,0.28028518691003645,0.2790933458445348,0.26733820242469486,0.2659082580604242,0.2659076691988198,0.2659069871754012,0.2647975941337881,0.2530039948748768,0.2511795930369196,0.2507549174516188,0.2401675717963112,0.22647411272340046,0.2166759608150337,0.20561381896897668,0.19261872200184804,0.18938043765163526,0.20059080576669608,0.1989795376909993,0.20699955795053526,0.21559357089920717,0.22920878898143204,0.23658052515408468,0.24838864526603688,0.2757276150472694,0.3107465949594723,0.3518969300850796,0.38907891241978465,0.42595535700529785,0.46286633920480114,0.4988462797731783,0.5259540223321468,0.5430114111484907,0.5336458769532237,0.49259778050198166,0.4563907570291006,0.41605882065076294,0.374658535589814,0.33731453359156927,0.3004902020957565,0.26372737168898697,0.23117648272362956,0.1976270447920192,0.16387909639652642,0.138160424159806,0.13734583593394767,0.14764969061634936,0.15077451643026807,0.17099909668765,0.18676538042440605,0.20081124429300878,0.1980850027804375,0.2014304142329122,0.21643629838386902,0.2502196714049254,0.29657482754701814,0.3402787168749075,0.3931075479203212,0.44838001811574824,0.5010122706478177,0.5449180129636417,0.5994930503368332,0.6547725858477178,0.7098796497491886,0.7563184688306253,0.8059192474944865,0.8611619641453618,0.9155910700654397,0.9567381824221179,0.9694703360747052,0.9311380548396646,0.8764447394342234,0.8313184490227008,0.7802242353575797,0.7249554250824848,0.6697445444828234,0.6210546616960211,0.5737713682243171,0.523422860715065,0.4777614823380856,0.42273598897026865,0.3674561723878145,0.31217635580536207,0.25689653922291056,0.20161672264045816,0.14633690605800576,0.0910570894755538,0.035889276201833464,0.0,0.03265763920455189,0.0815824044166451,0.1338804594630134,0.17788476767685335,0.2238579164563812,0.25691129777614785,0.26877632010077246,0.27999251381975077,0.2781168798721656,0.2665568532038378,0.2575255473548501,0.24040324665306878,0.22975260216669913,0.21091347688461815,0.2209940731384168,0.23975306795303464,0.2555192407205036,0.26559684811450657,0.2689607332296089,0.2765952127026141,0.26794819350552945,0.2787934042053277,0.26903846561739053,0.26591148000222775,0.26590766919869324,0.26589325102471095,0.26154156249218286,0.25147887245558875,0.25115767124081456,0.24529364438098478,0.22491112735785723,0.21453601036767056,0.20630133980072696,0.20172091215731713,0.2021712172938157,0.21650819587454428,0.22213155699121234,0.233108708991689,0.23967362453607732,0.2513752533287237,0.2686072553627019,0.2975500742096582,0.34374198446814574,0.38478001193535416,0.4217613941696805,0.46259811096887926,0.5002521048782484,0.5351176793259804,0.5627465788702972,0.5742995681728886,0.5568501637769647,0.5199438703138766,0.4792710219482368,0.44065881406544216,0.40059492702657984,0.36362011319646115,0.3231040522525115,0.2850446606799708,0.24826134204829797,0.2138337211041894,0.17589227736698332,0.15025233314583275,0.14833011192552803,0.15798546001547997,0.16478155366413816,0.17801788833855703,0.19078898756511542,PM
0.9999999999999999,0.9715423402979647,0.9410129206464323,0.9104817466787337,0.8799879375196703,0.8529130343483108,0.8333983414141751,0.8051505619696867,0.778242278876078,0.7549741488289744,0.7300379911232245,0.7054965809877495,0.6820141837223187,0.6615125041460065,0.6388302385120045,0.6111296103835323,0.5806442470090308,0.5501134400571966,0.5200635167571203,0.49379435310988595,0.464111080626049,0.4348032932296165,0.40835311169506594,0.3801118645047662,0.35389268696424614,0.32895192262301765,0.30708500716472764,0.28480457384690683,0.27025829456707107,0.26124675037286726,0.25067847892788875,0.23725318562411835,0.22540152435246086,0.21098630729818535,0.19711187122247775,0.1844275198167099,0.1605639573474379,0.13451457807453227,0.1101001236463901,0.09316703420144379,0.07170329117877594,0.04773894916860477,0.03855003202525764,0.05799154187967137,0.08466925772507694,0.11502740582469384,0.14554941000868526,0.17453195607336602,0.20123128229148335,0.23156314360787822,0.2620867961892991,0.29112831982285226,0.3147805755265818,0.3374932450974829,0.35095030403060024,0.3431911258168363,0.32619116571860707,0.3112614765737908,0.29806586015992886,0.28557766490786574,0.26508217491271746,0.23513165609043474,0.20662949940664344,0.179523512982928,0.14935978480053935,0.12281693187352516,0.09371643181990819,0.06777971319385834,0.06061577014997144,0.08201427697215202,0.10860737596595316,0.137565022875885,0.1674400578889903,0.1936541652157996,0.22155245669210655,0.2475861427123095,0.2657049557832626,0.27370384682908466,0.27317327663938185,0.27275106001394056,0.27012355233286045,0.26822537606564545,0.26459823870313703,0.26070595975164534,0.25079358461989365,0.24021367879353628,0.23918904278712982,0.2451617352275749,0.25103530425571696,0.24982820769824232,0.2477707188967424,0.2499010808258697,0.26227890787154173,0.28579195943828783,0.31429657027462066,0.34130319634483164,0.3699005691316145,0.4004160750518443,0.4309450361464625,0.46059143163104876,0.4868779769373709,0.5169520676757432,0.5474829647311398,0.5780141386988379,0.6085453126665369,0.6390764385825486,0.6693822062977185,0.696025581186606,0.7250874897374325,0.7556122023458319,0.7861433763135303,0.8166741591955543,0.846780217600856,0.8730840173508722,0.9026529446827448,0.9257774035054572,0.9087253276472366,0.8783286725864238,0.847797498618725,0.8172663246510262,0.7867351506833281,0.7562040291356512,0.7258949846342097,0.6992654330472979,0.670191715858487,0.6396682610040328,0.6091370870363343,0.5786061475792618,0.5485206839287508,0.5222231001678578,0.492599072154179,0.4620701973570397,0.431542540263396,0.4021275118991626,0.3757249672436892,0.3459410129144983,0.3227249604522193,0.2983468313120491,0.2709697254446751,0.24506936848248306,0.22063044591019032,0.19711449604437503,0.1777188461867898,0.165925117112929,0.15756060075232692,0.15357426878486513,0.1459828777555705,0.13653628088843783,0.1266088068780168,0.12020176265151072,0.12621031263454008,0.1416282833668122,0.15986995315517694,0.1816909488407329,0.2041125075027035,0.22718512194011287,0.2502155310691815,0.2734394088498955,0.2881388120235383,0.28099159935890283,0.26837513163094084,0.2561450281560811,0.2477756358186849,0.24066646137018177,0.23278795026442856,0.23496481395281665,0.2382251047494519,0.2445268992060451,0.24551308899427682,0.25059141259441287,0.25328938657349764,0.2533271831955557,0.25299223910040736,0.24569257479461204,0.23824300153697064,0.23434672694740433,0.24596793909896453,0.25233781852405035,0.2573120172379003,0.25861256448415615,0.25579888671244044,0.2627554903835875,0.2769350254920271,0.30276580587009905,0.3294169970266294,0.35973417939895114,0.3891960055429219,0.4155736180994515,0.4457417894354524,0.47627278223219716,0.5068039472333131,0.5372181530459922,0.56432422959536,0.5928267784716005,0.6233396719114918,0.6538708458791905,0.6844020198468893,0.7149329164645511,0.7451007805880899,0.7714682567470196,0.8009406731895409,0.8314689095261837,0.8620000834938827,0.8925312574615815,0.9230240222022063,0.950871110248967,0.9649582903053401,0.9417522977406044,0.9114350418980691,0.884684168526433,0.8557654888081675,0.8252443198586844,0.7947131458909856,0.764181971923288,0.7336507979555892,0.7031208337370717,0.6733434014346141,0.6470861836959351,0.6171145271165327,0.5865839082762948,0.5560527343085963,0.5255224679781346,0.4956175493078311,0.4693858499895013,0.4395160893989126,0.4090410966528736,0.3813644369429251,0.35347051497028936,0.3229813028854036,0.29258646085671003,0.2657032981013183,0.24093233296859695,0.22026613446377907,0.2022969504605786,0.1946280645674785,0.19723360364225595,0.1938719715843119,0.18764151275522523,0.1771946683098211,0.15843924512808039,0.12986864163454703,0.10123685721118836,0.07439664900361043,0.04760490332362477,0.021501184522895844,0.0019662092149373978,0.0,0.015869627184523782,0.036893931903729915,0.058298240909807175,0.07979064124097368,0.1006914906723353,0.11774949778727761,0.11639023147264815,0.10326575724243148,PM
0.08752046159471027,0.12792282984369563,0.17254592534283675,0.22654220392143687,0.27571068861781445,0.3312984299503361,0.3805565360771217,0.43688684779605014,0.4951118431705912,0.5533411269141144,0.6115678214193161,0.6681178788918261,0.7173418076054991,0.7745120284123272,0.8326851648034266,0.885931242637918,0.9375493712536827,0.9887089518187788,1.0,0.9589369162537071,0.9088712965010997,0.8509852409478231,0.7942670568086818,0.7452207314009853,0.6880511547164261,0.6326791501725353,0.5828646578808683,0.5251016676284803,0.46688052384100365,0.4112411098705788,0.3615805679837214,0.30393164579302834,0.24570354775677172,0.18854717828015088,0.13932963110926244,0.08352751560647276,0.05944118606049553,0.09180932601361036,0.10732365442594283,0.11862666688786683,0.12026323031333863,0.11720441757290323,0.10213443212965911,0.07242703908429626,0.05083365172019372,0.06625372175980315,0.0894732127423239,0.09644003579719373,0.09429393675574427,0.08358498883855203,0.08491714341932344,0.08357483535287025,0.07977349053863092,0.08863700921555706,0.08803416299367628,0.08565123590550239,0.08466437652152448,0.0905038667400091,0.09296364008574431,0.11407906640317744,0.13599208012348996,0.15759979502192745,0.18807440512687057,0.22067883282981393,0.25916468272098525,0.3004221202400177,0.34374566725115585,0.38489045021769286,0.4284667163120224,0.4722505748910102,0.5203625449502889,0.567254098135276,0.6072803290520605,0.6346449138198111,0.6294763369890344,0.596031510017518,0.553872166919477,0.5032592709321038,0.4476429897665706,0.39917068078908624,0.3507430571332484,0.3032198521492391,0.268254118399363,0.22140044710530793,0.17480681470825443,0.12800355268991193,0.07921893998566132,0.0343800477526488,0.00010963451018763948,0.0,0.01789998794228742,0.011738015662519086,0.018678530279099714,0.02049887098866976,0.03192698779168679,0.060300249238479875,0.10146631952540308,0.15024130816771164,0.20289685796207357,0.2610426438117708,0.31846083742313036,0.36780997962753004,0.42398877868231244,0.48196436088124717,0.5328040079991201,0.586955498778782,0.6451515385336322,0.7018827503169938,0.7510498167781252,0.8077512405827676,0.8530551944748077,0.8916713309028053,0.928692344183264,0.9155488547372039,0.8630565433803699,0.8121485855549961,0.7581308590898104,0.7004837956523566,0.6509073399729068,0.5952090719790282,0.5371472175945753,0.48567524736806567,0.4322280794483033,0.3740466182453117,0.3162537865998667,0.26620733244735906,0.2110924628116524,0.15287659876333337,0.09464841071984464,0.0387306509974259,0.029883942514021156,0.05234328675030442,0.05173844514627546,0.045275476928718916,0.052303812968125474,0.042599925574100084,0.025181542477352936,0.02583408382555974,0.04875088338438194,0.06186980950754006,0.06931114040805464,0.08037924476838398,0.08856910518848538,0.08218107532853569,0.08467464393584634,0.0710117932392127,0.07691568876353116,0.07885766707852682,0.07674296176816608,0.07636093288515777,0.09404314799489377,0.11005979183141901,0.12651601739109353,0.15889545708402264,0.19027601219457901,0.22362675722922276,0.2592795269290731,0.29512952904696066,0.33556164923174014,0.37933390570024006,0.427511225008006,0.472421295568314,0.5160550844124563,0.5584480729601728,0.5995209736386786,0.6289727116348556,0.6356823046615774,0.6057273607535638,0.5611520776516525,0.5138523933916765,0.4657745118681218,0.41888732532403505,0.370108618605137,0.3212206409699063,0.2726272619093977,0.22440282030762626,0.1762287022512481,0.12964342600072887,0.08797626176740514,0.058520141368728185,0.06508121085000118,0.07401482877495313,0.08017921237085424,0.08940749782025148,0.08125984441360701,0.08928558173084,0.1307569647139799,0.17922391522287873,0.22805261163374846,0.2775677611568468,0.3321058458050792,0.38246350067238666,0.4371345673962259,0.49526402929767155,0.5478893507819764,0.6001623040224091,0.6582825472931018,0.7158225863339975,0.7653361755617167,0.8212179647924751,0.8764474018700517,0.9263342228371951,0.9741781555185991,0.9712160264494338,0.9209386373546748,0.8715942687162874,0.8155071734396429,0.7574888042683003,0.7065389764273196,0.6525431140697919,0.5943411763852144,0.5361118926416908,0.4778826088981667,0.4196937230397766,0.3660453137298729,0.3147567412577108,0.2567126791096692,0.19848347773771224,0.14066901490208883,0.09141311163486754,0.07371191561544777,0.10634320162999411,0.11378109913895607,0.11103723800324294,0.11367206631969351,0.10518888888366962,0.08433886625947462,0.05508103427715749,0.05028874401617278,0.0789601075945554,0.09280134010307872,0.09764219812328645,0.10106757255209686,0.10732934347691803,0.09952277799420806,0.10112886408306498,0.11061294000537347,0.10975220354562198,0.10808496161233339,0.10481841616099996,0.11075614763329833,0.10198534226505962,0.09849060147473376,0.11251158936322936,0.1307102618793876,0.15939544705323438,0.18896496602911284,0.22310316487420057,0.25969010196873565,0.3010161401449807,0.3482021699391331,0.3940402432986563,0.43523268541462645,0.4785286226343537,0.5198202406919252,PM
0.3036602491732703,0.3112015251114153,0.3039901560745948,0.28293504818634263,0.27868787390333116,0.28228727637543116,0.30263290657534636,0.3153874891648387,0.31816375427404786,0.327635630037026,0.3282465630311471,0.328226051533699,0.32370176022440456,0.31630124257476844,0.32454178650200394,0.3282347356655544,0.3303206000163583,0.33997458901386457,0.34101364823553704,0.3502325587956445,0.35624118897127,0.37100706351061774,0.3888357986439259,0.4129343064992419,0.44337407129267215,0.47283691482793966,0.5030452689191409,0.5295434584765144,0.5494840737053073,0.5428383606718592,0.5149256117069902,0.48435211797234956,0.44855195834606265,0.412023024647723,0.37037227299468967,0.33431328664350435,0.2983919328653357,0.2624622055942347,0.22468614648484042,0.18792282213233347,0.15976241568240446,0.16809852696851801,0.1947116041145991,0.21597563502080264,0.23957426914194224,0.261937639268663,0.2808474033803283,0.29127355747173,0.3010455599838977,0.31714127032353057,0.34878816899641674,0.38774326355744204,0.42646886538938134,0.4646698344637694,0.507935877804838,0.5476332641262864,0.5952885501373997,0.6421011035778452,0.680120574368758,0.7179525622787954,0.7502770341644083,0.7970395461811326,0.8355017397175404,0.8808560387521327,0.9276183769260165,0.9654759412164058,1.0,0.9993423999896001,0.9686576909652569,0.9212144417423747,0.8779729089052672,0.8376688546927942,0.7904359201030968,0.7550248508373296,0.718689479891101,0.6711548050020348,0.6283982945892026,0.587646843343332,0.539996154951397,0.49910583322860136,0.4568918329041649,0.41915130415158597,0.39103355301796405,0.36722620107673176,0.3534012707871881,0.34533014086160163,0.3360467584320057,0.31466981123010784,0.29110172074983565,0.2810351062415286,0.2945730749446853,0.3032692141075386,0.30345750641639446,0.303457527134507,0.303457527134503,0.30344756375171267,0.3004246721804944,0.29141036438120116,0.2910629677500025,0.29106295946275207,0.2910629594627485,0.29106295946274496,0.29109436649716036,0.29596371517585895,0.30343936353765866,0.31230582003391394,0.3312971267133116,0.353371188811769,0.383191372839363,0.4134945733256914,0.4373519326503481,0.4515142929071261,0.44582991739085287,0.4180980215679275,0.3856391334884921,0.3430319436117184,0.30445198224149284,0.2659312935736473,0.23273427475266129,0.19372636192619086,0.15772363394915945,0.12191504473144255,0.08959082520286343,0.06233124254027311,0.0667449662707349,0.09278003965434478,0.1144648487730282,0.13350339843033687,0.15314266276030764,0.16625491636442424,0.17896418154973337,0.19423612759335862,0.2143400465745786,0.2414204025988096,0.2773010646645875,0.3176428793116379,0.3588482826125934,0.3968294622712629,0.44317431238639804,0.4830300042910536,0.5267720202820123,0.5746311921838672,0.6221400184682815,0.6585388714183344,0.6851022091528263,0.7289674840761049,0.7766428706656514,0.8167460508355733,0.8577523087850927,0.8674222441797883,0.8353305348678606,0.7923329848152285,0.7523284850483378,0.7065365628297613,0.6833079671246711,0.6460641767806359,0.6034309310190125,0.5626209762884637,0.5148627253793232,0.47100949459295194,0.4312521475594311,0.38395297655674687,0.34467995551374564,0.3035346954887883,0.2773428960487512,0.25605628588738316,0.25213553046191883,0.2419614796738565,0.22838045598882806,0.20797328198715404,0.20344193979511593,0.19734484526795382,0.20754825289999546,0.21581848621391586,0.2069018990269771,0.20679671895861773,0.21303953776842466,0.20370246197800812,0.19340965393665543,0.19190761395714118,0.19133990575255155,0.18201381422307428,0.17972455689640854,0.18764152459425332,0.19200841884716602,0.1992520677402152,0.2042658059284399,0.20435146893522171,0.21034627766417202,0.22312282716933818,0.24553248499716318,0.2695854528432511,0.2979772323832206,0.3238464346682859,0.3490879681388135,0.35113690237793804,0.33261270747090244,0.30238569712717567,0.2668889227546787,0.23406848921571477,0.1980855340370069,0.15888525768587547,0.11866292704534342,0.07834623067064106,0.04522925001316369,0.012597944530328586,0.0,0.020365471790463996,0.044301578431554356,0.06828439551598553,0.09513876784128317,0.1164769739387359,0.13833104891998227,0.1548156895664894,0.17428910859903923,0.1934494505836475,0.2172645775195634,0.24530347141035902,0.28198712253438174,0.3197033363358113,0.36379549590490967,0.4020169498030559,0.4488549460976845,0.4875186999746215,0.5325952935105369,0.5804258232707569,0.6230514477913265,0.6639418316684691,0.7117005039270436,0.7591924183712506,0.7977569497416028,0.8426424472380378,0.8776147465512181,0.8803723105292347,0.842400070070632,0.794574043821314,0.7466998574570107,0.7011315444464885,0.6748663791845151,0.6405485586558761,0.6020272807496738,0.556894658508019,0.5119337773444359,0.4731704350763084,0.4256743629700348,0.38237731596674207,0.3427820144251772,0.31545566404949277,0.30452257409656935,0.3034506122122185,0.3005952029197556,0.2830690337071964,0.27873948339050036,0.2861514439745214,0.30729014286729317,PM
0.20938113768106992,0.20349673793529122,0.19389688361477342,0.18586637427049757,0.17850323652189348,0.16648164482393435,0.16528539612364268,0.16450166382596,0.17115626250528515,0.1765780165671078,0.18606353919316487,0.19611481443846346,0.19591410190687797,0.19456528752827218,0.1998149781709484,0.2003775829225385,0.19607512512331726,0.1876098830830042,0.17610904283805917,0.1506552585985672,0.13523098255479216,0.14545759756823684,0.1734190954546757,0.19940479187868676,0.22983383891536757,0.2610835030017784,0.2923337734001077,0.3235840437984372,0.3548343141967665,0.3860845845950962,0.4173348549934257,0.44857536428708955,0.4778617029324923,0.5042594373020322,0.5274189430570069,0.5534401931596014,0.5846281452999522,0.6158772897547171,0.646316003099612,0.672300525261335,0.7028935581831761,0.7341433865971163,0.765393656995446,0.7966438721457265,0.8276552457293507,0.8540960195645495,0.8836634858376944,0.9149088982926095,0.9461591686909396,0.9773717913863322,1.0,0.9802856002462201,0.9491588030913298,0.9212451649433437,0.893303807450007,0.8621030736719368,0.8308528032736078,0.799604612953198,0.7694875826515999,0.746546698735604,0.7252989568471482,0.6948092246168134,0.6635595129670822,0.63231044542599,0.6020619331131645,0.576002332641907,0.5452943628662437,0.5140442716699183,0.48286055829452024,0.4552479001873766,0.42699219355104057,0.3958366148597936,0.3681149812206206,0.3399928274987165,0.3113147321760501,0.28414426947507065,0.25466936359638903,0.22828304203156868,0.2006957668957292,0.17696896407300566,0.15243642355045806,0.13355613154653834,0.11681717739407949,0.0981228619181802,0.08027150243806302,0.06853388246544567,0.053524365709137545,0.04305652367737034,0.039654131625355804,0.04899809902422336,0.06925077009984792,0.08984198937222443,0.11205429902820085,0.13292431172162344,0.15159203442882063,0.1602814016292633,0.17173896338083416,0.19108951145852893,0.20685092622378987,0.21907544513519328,0.226307432954572,0.21818792210508908,0.20397807805392243,0.19586762196930674,0.19845531660175508,0.21210867040314096,0.21629663328445625,0.21984137240168589,0.2088318924659005,0.1944291639045257,0.1890158296498572,0.19496530586526384,0.20411035573220104,0.21557098177289435,0.21585344731071232,0.21109241709697502,0.20711884940947134,0.20067262801368302,0.19432880878175807,0.20213052447562574,0.2120619142240996,0.21111250446539032,0.20244419635323574,0.20270736609117024,0.2119045054188533,0.2239117054943507,0.21829859895454318,0.206633348752441,0.19640609585712188,0.1969246068023529,0.1970521767125184,0.20539055268320627,0.2071780004564554,0.20488474265652457,0.19634162465865823,0.19822955838731815,0.20064955299774812,0.20526353730174507,0.2046113133716727,0.19645604849688203,0.19949426301612538,0.20045751275632573,0.20045465134600615,0.1989325134432136,0.19025060625339463,0.17820077566912773,0.1568770342440413,0.1486486988674134,0.16525940685452212,0.19455525241510707,0.21596646420397314,0.24453111304963238,0.2757706888507865,0.3064841267815599,0.33254674750102575,0.36278683194422867,0.3940358368267003,0.4252861072250298,0.4565362302952294,0.48732622239753054,0.5134311265919143,0.5435532208604046,0.5748013485221941,0.6060516189205238,0.6372919412593594,0.6665579469592331,0.6932362679260418,0.7243165898193578,0.7555668602176879,0.7868171306160172,0.8180594159805485,0.84753943821508,0.8740561137432274,0.9050708674388115,0.9316198246697376,0.9210774186927706,0.893408633379706,0.8622087381534906,0.8309584677551616,0.7997083701840613,0.7688943713937186,0.7427958663599337,0.7126916225305149,0.6814432264579977,0.6501929560596684,0.6189508485850086,0.5897309815032796,0.5629933507159117,0.5319279837442181,0.5006777147625048,0.4696633700169577,0.44318133279709593,0.41365909641998955,0.38383261064336294,0.3575700430687063,0.3274615565768899,0.30146958114284894,0.2712756506597258,0.2451046196622022,0.21634327444190782,0.19056534245509704,0.16545834117580283,0.14360353504152124,0.12611351730579323,0.10623557841166809,0.08877027502759871,0.07123133537503101,0.05238175061327188,0.03246843800317756,0.01625800922818177,0.005350480519952683,0.0,0.010758241496626408,0.03132040959434901,0.051421074174045955,0.07251033154845898,0.0956392232453035,0.11907785656496306,0.14252851034987413,0.16594954362264414,0.1874555766784538,0.19982309649313534,0.19724036889629648,0.1984823281597019,0.19544766582944417,0.19008538455813784,0.20040322770816155,0.2114907645819566,0.2167390977279937,0.2074022737859853,0.20078570382467076,0.19963685769658457,0.1947055830622857,0.2015532966267668,0.2041442766954109,0.20059815130873893,0.20441214812619446,0.21230416434759225,0.21262298177449557,0.20173370230141874,0.20371799621561104,0.2077686205355065,0.2099724445472373,0.20446672576939862,0.19467445764821245,0.18795816591545056,0.19285234091852987,0.1989132863137617,0.20146285406893183,0.2041987314528131,0.19402888969432341,0.1856909300896541,0.18055778841992431,0.18308237140972516,0.19376011711137098,PM
0.24742754220724428,0.21673682687454887,0.18410782011716464,0.14900203772427312,0.11598293139975269,0.07815299960588229,0.04790924809838004,0.01976349992659787,0.0,0.003055993972694848,0.012293561654153962,0.02021289758477085,0.028521277381295063,0.03376645593245797,0.047413889464617,0.07095374035452262,0.10319441074981661,0.13844141051987835,0.1751050231092688,0.2172096457278927,0.2596683863689506,0.30186288274093775,0.3389254260954835,0.37912611118383865,0.42129388439253823,0.45829161885028324,0.49835643594504186,0.5334712341094388,0.5613352221597774,0.6021419411103939,0.6442921167844491,0.6811970803348033,0.721594683941285,0.7640430380348868,0.806501480107026,0.8483327727988199,0.8847765634479139,0.9259464137657376,0.9666290118399237,0.9846639135711286,0.9605822410339175,0.9220051174232646,0.8842952082894151,0.8419621480991599,0.7995032318365896,0.757044315574019,0.7145853993114484,0.6721264830488778,0.6297471921225468,0.5914089062568415,0.5526296057651612,0.5104808184087097,0.4733755681195473,0.43431774412091895,0.3979631552316645,0.3563940149803648,0.3186626356119737,0.27923697672894066,0.2372181006678984,0.20053889343852416,0.16013995910768686,0.12671730749108723,0.11677151810093256,0.11649282810793693,0.11108254797338457,0.10615150910544946,0.1099973877977305,0.12012452529175599,0.12449064711870639,0.12454643771093243,0.12454643771093177,0.12454642446433373,0.12440242585768457,0.11961486638238217,0.1124139245172997,0.10554233578681127,0.1105941089866036,0.12370878706484012,0.14159633108019198,0.16871893664746107,0.19594606950354088,0.22924899856673786,0.25997657731570434,0.2902324767618656,0.31819243957632404,0.3241437998882506,0.3054366981415071,0.2765195529768665,0.25057182697827485,0.21642510943670357,0.18232204965281884,0.14856897925622614,0.11600732952522441,0.0839614300674314,0.056665090384200756,0.028890588728804012,0.009829797725165346,0.01177527768637554,0.01618085106814071,0.022218137298810392,0.029795558934337496,0.03985152815961501,0.05882300163255372,0.08865206555674199,0.12298695124455228,0.1585081735900471,0.1987573922795367,0.2358109151720813,0.2760079899575685,0.31702645655955997,0.3535124233159026,0.39537620255670136,0.4339195090762793,0.4724883336953587,0.5135700381463919,0.5433408490887623,0.576253524697613,0.6184647399058145,0.6593428623600914,0.6959254775019696,0.7379147958273504,0.7803733904435508,0.8228317495162654,0.8646335037495982,0.9010466687224163,0.9422792044787209,0.9836271674934804,1.0000000000000002,0.9687769863719746,0.9295498151474739,0.891765783373194,0.8494274520573979,0.8069821813777303,0.7668593297801707,0.7297319775288236,0.6875236327229675,0.6451524298510551,0.6068899065239985,0.5680320199414934,0.5256476335614662,0.48614008458809366,0.44868652978684676,0.4114934811860693,0.37167666937047583,0.3327188513734738,0.29456784221046206,0.252363243879562,0.21477155219455213,0.17520166850361107,0.13539808475780157,0.11757294374164884,0.11492662716647462,0.10578400870379867,0.09708028221573706,0.09361006884695744,0.10461775443496313,0.12025845066224283,0.1245085810072093,0.12455460302443022,0.1266504139841289,0.1321624068851044,0.13227791681289247,0.12707858695125251,0.1222401529815782,0.11015356997455128,0.10237936001026737,0.10920219493217331,0.12655388725380323,0.1474541807993881,0.17153093291894117,0.20262001961859388,0.2321004291133706,0.2625612660962975,0.29564273491009985,0.32134799333534714,0.32569673034014657,0.3038657548376289,0.27142509059817277,0.23761077618707338,0.2050923080236271,0.17076633276541764,0.13166509944392968,0.09810540183361316,0.06687922333176166,0.03832268674361816,0.013230091108419328,0.0030192124844370394,0.00891047884233398,0.018565964920000733,0.025651937404135294,0.03135813385692465,0.040182019344211284,0.05894591226145951,0.08894332814855077,0.1278473889451306,0.16481022080900876,0.20391661204345635,0.2403214968999703,0.28202342016111004,0.32095925947664683,0.3591460202650565,0.4014973854656998,0.44164581560902705,0.478745741961613,0.5185424778707017,0.548225448639855,0.5826845783445422,0.6245356578040553,0.6669940865775481,0.7093324178933458,0.7471164496676246,0.7864721964512122,0.828897866172186,0.8713560592460505,0.9130985776032905,0.9490272105336668,0.9757551600928498,0.9628081901504417,0.9231393727033599,0.8806884123825698,0.8382294961200001,0.7957705897923768,0.7534476271334789,0.7156396790383113,0.6762959810116926,0.6338668002627923,0.591423842143574,0.5515346897173647,0.5142133319276085,0.4724907051505567,0.4360379849358109,0.39810981308338267,0.3603295473115402,0.31832626134875475,0.28143289909651203,0.2409983958300168,0.1993753515996084,0.16305863458645087,0.1275017254374322,0.11499861290250579,0.11526971224966243,0.10408841361420373,0.0970501971320572,0.09778117058988611,0.1007812063574074,0.11460132864367134,0.1223498239666605,0.1245343338349636,0.12454643771089824,0.1245464377108978,0.124537417248896,0.12259501410271922,0.1167094735463654,0.11107788088215065,0.10869612375215265,PM
0.3036602491732703,0.3112015251114153,0.3039901560745948,0.28293504818634263,0.27868787390333116,0.28228727637543116,0.30263290657534636,0.3153874891648387,0.31816375427404786,0.327635630037026,0.3282465630311471,0.328226051533699,0.32370176022440456,0.31630124257476844,0.32454178650200394,0.3282347356655544,0.3303206000163583,0.33997458901386457,0.34101364823553704,0.3502325587956445,0.35624118897127,0.37100706351061774,0.3888357986439259,0.4129343064992419,0.44337407129267215,0.47283691482793966,0.5030452689191409,0.5295434584765144,0.5494840737053073,0.5428383606718592,0.5149256117069902,0.48435211797234956,0.44855195834606265,0.412023024647723,0.37037227299468967,0.33431328664350435,0.2983919328653357,0.2624622055942347,0.22468614648484042,0.18792282213233347,0.15976241568240446,0.16809852696851801,0.1947116041145991,0.21597563502080264,0.23957426914194224,0.261937639268663,0.2808474033803283,0.29127355747173,0.3010455599838977,0.31714127032353057,0.34878816899641674,0.38774326355744204,0.42646886538938134,0.4646698344637694,0.507935877804838,0.5476332641262864,0.5952885501373997,0.6421011035778452,0.680120574368758,0.7179525622787954,0.7502770341644083,0.7970395461811326,0.8355017397175404,0.8808560387521327,0.9276183769260165,0.9654759412164058,1.0,0.9993423999896001,0.9686576909652569,0.9212144417423747,0.8779729089052672,0.8376688546927942,0.7904359201030968,0.7550248508373296,0.718689479891101,0.6711548050020348,0.6283982945892026,0.587646843343332,0.539996154951397,0.49910583322860136,0.4568918329041649,0.41915130415158597,0.39103355301796405,0.36722620107673176,0.3534012707871881,0.34533014086160163,0.3360467584320057,0.31466981123010784,0.29110172074983565,0.2810351062415286,0.2945730749446853,0.3032692141075386,0.30345750641639446,0.303457527134507,0.303457527134503,0.30344756375171267,0.3004246721804944,0.29141036438120116,0.2910629677500025,0.29106295946275207,0.2910629594627485,0.29106295946274496,0.29109436649716036,0.29596371517585895,0.30343936353765866,0.31230582003391394,0.3312971267133116,0.353371188811769,0.383191372839363,0.4134945733256914,0.4373519326503481,0.4515142929071261,0.44582991739085287,0.4180980215679275,0.3856391334884921,0.3430319436117184,0.30445198224149284,0.2659312935736473,0.23273427475266129,0.19372636192619086,0.15772363394915945,0.12191504473144255,0.08959082520286343,0.06233124254027311,0.0667449662707349,0.09278003965434478,0.1144648487730282,0.13350339843033687,0.15314266276030764,0.16625491636442424,0.17896418154973337,0.19423612759335862,0.2143400465745786,0.2414204025988096,0.2773010646645875,0.3176428793116379,0.3588482826125934,0.3968294622712629,0.44317431238639804,0.4830300042910536,0.5267720202820123,0.5746311921838672,0.6221400184682815,0.6585388714183344,0.6851022091528263,0.7289674840761049,0.7766428706656514,0.8167460508355733,0.8577523087850927,0.8674222441797883,0.8353305348678606,0.7923329848152285,0.7523284850483378,0.7065365628297613,0.6833079671246711,0.6460641767806359,0.6034309310190125,0.5626209762884637,0.5148627253793232,0.47100949459295194,0.4312521475594311,0.38395297655674687,0.34467995551374564,0.3035346954887883,0.2773428960487512,0.25605628588738316,0.25213553046191883,0.2419614796738565,0.22838045598882806,0.20797328198715404,0.20344193979511593,0.19734484526795382,0.20754825289999546,0.21581848621391586,0.2069018990269771,0.20679671895861773,0.21303953776842466,0.20370246197800812,0.19340965393665543,0.19190761395714118,0.19133990575255155,0.18201381422307428,0.17972455689640854,0.18764152459425332,0.19200841884716602,0.1992520677402152,0.2042658059284399,0.20435146893522171,0.21034627766417202,0.22312282716933818,0.24553248499716318,0.2695854528432511,0.2979772323832206,0.3238464346682859,0.3490879681388135,0.35113690237793804,0.33261270747090244,0.30238569712717567,0.2668889227546787,0.23406848921571477,0.1980855340370069,0.15888525768587547,0.11866292704534342,0.07834623067064106,0.04522925001316369,0.012597944530328586,0.0,0.020365471790463996,0.044301578431554356,0.06828439551598553,0.09513876784128317,0.1164769739387359,0.13833104891998227,0.1548156895664894,0.17428910859903923,0.1934494505836475,0.2172645775195634,0.24530347141035902,0.28198712253438174,0.3197033363358113,0.36379549590490967,0.4020169498030559,0.4488549460976845,0.4875186999746215,0.5325952935105369,0.5804258232707569,0.6230514477913265,0.6639418316684691,0.7117005039270436,0.7591924183712506,0.7977569497416028,0.8426424472380378,0.8776147465512181,0.8803723105292347,0.842400070070632,0.794574043821314,0.7466998574570107,0.7011315444464885,0.6748663791845151,0.6405485586558761,0.6020272807496738,0.556894658508019,0.5119337773444359,0.4731704350763084,0.4256743629700348,0.38237731596674207,0.3427820144251772,0.31545566404949277,0.30452257409656935,0.3034506122122185,0.3005952029197556,0.2830690337071964,0.27873948339050036,0.2861514439745214,0.30729014286729317,PM
1.0000000000000002,0.9816270848313513,0.9620116651488022,0.9423962454662536,0.9227808257837045,0.9031654061011554,0.8835499864186063,0.864014506941879,0.8477339807707669,0.8299461584181369,0.8103369247073504,0.7907215050248013,0.7711060853422522,0.7514906656597031,0.731875245977154,0.7122598262946049,0.6926823881056277,0.6759693206102377,0.6586398153873352,0.6390467645833491,0.6194313449008,0.5998159252182507,0.5802005055357018,0.5605850858531527,0.5409696661706036,0.5213542464880547,0.5021138595944439,0.4866297799240997,0.4677562221563063,0.44814118477679865,0.4285257650942492,0.40891034541170046,0.38929492572915114,0.3697788465172277,0.35368856383066727,0.33569207946904567,0.3160818640178952,0.2964664443353462,0.2771574651785197,0.26164178535291094,0.2428689224883973,0.22445732565025156,0.20874897995381592,0.19244500384461383,0.17632990890750655,0.16288997482510714,0.14983393115032162,0.1379568934785812,0.1308258909442549,0.12509925483575957,0.11856878041154506,0.11154454173364992,0.10187281025547601,0.08775068162277244,0.07323176816096466,0.06162449077869647,0.048808158351205,0.03728438348967511,0.03145803544574832,0.03564131321052666,0.04793651666105958,0.06149934786758071,0.07983293230340227,0.09864643735828116,0.11414893910997348,0.13297291057819238,0.14836650467262447,0.1666446436215584,0.18213646179768173,0.2012917722027956,0.21742018038161115,0.23454752946347956,0.24633139183517538,0.2602955425577298,0.2784322540976435,0.294960437321071,0.311942313340713,0.3273347463353202,0.3443798575015091,0.35360226820180507,0.3444430285145278,0.33132300251647795,0.3177081372238688,0.3070643994213412,0.2984098753587795,0.2877747610426482,0.28040228808753265,0.27511560596421036,0.2685501662024039,0.2719717384355994,0.27334757307644775,0.2802760396044153,0.2831398018150335,0.2850859287997859,0.286325101138742,0.28830311847532153,0.28758160228872265,0.2828812723332468,0.27792276589816545,0.27325848109855644,0.272898779596762,0.27706006483046197,0.2779915573186509,0.2817608910204954,0.28306619115957465,0.28389164045967685,0.29309015294513785,0.30770349570166233,0.3224033900410239,0.337208596444012,0.35480900582710095,0.37441355276956767,0.39402860835398223,0.4129329763533247,0.42840733289897215,0.44762661448082386,0.4672420341633725,0.48685745384592205,0.5064728735284709,0.52608829321102,0.5457037128935691,0.565319132576118,0.5849323389107006,0.6035645145090196,0.6191458289874323,0.6385321942873745,0.6581476139699232,0.6777630336524725,0.6973784533350216,0.7169938730175707,0.73660929270012,0.7562247123826686,0.7758401320652177,0.7953130808638105,0.8112797528956879,0.8293932813131117,0.8447163640158699,0.8577974856823083,0.8698516884358825,0.8869182806819236,0.9065204044309092,0.9261358241134581,0.9457504006935042,0.9636896191952695,0.9584970304370979,0.9432774743473658,0.9244064840988679,0.9047914482364352,0.8851760285538861,0.8655606088713375,0.8459451891887884,0.8263297695062393,0.8067143498236902,0.7873086379879692,0.7716930402489883,0.7531142433041325,0.7335012881124336,0.7138858684298846,0.6942704487473355,0.6746550290647872,0.6550396093822377,0.6354241896996888,0.6158087700171395,0.5961941877602994,0.5774507463861025,0.5619475432981045,0.542595612730123,0.5229802886233343,0.503364868940785,0.4837494492582364,0.4641340295756875,0.4445881732131347,0.4282058888991229,0.41052631437813547,0.390920967864431,0.371305548181882,0.3517235983034154,0.3349578543429609,0.3176837807446521,0.2980924864706256,0.2785046713958236,0.261670448030785,0.24446928510676225,0.22576041647595213,0.21039536444039497,0.19494109824490513,0.17888864181736153,0.1640969325323257,0.14935480806263957,0.13644390450752453,0.12738291245320188,0.12367963120713688,0.11744125676713502,0.11210439093512237,0.10273038193806983,0.09082832117950912,0.07768366233730728,0.06306111860527386,0.049653238787668696,0.03495936709529368,0.020303375034062876,0.0072459252467163004,0.0,0.004554830327690551,0.017231031654093787,0.03425013192361903,0.04966155066879441,0.06667963996605875,0.08320051132066664,0.09997407219772358,0.11717042714493586,0.13470743498527282,0.15120490635713657,0.16934296575965457,0.18525179888110876,0.20450871773228074,0.22009942894254997,0.23871064082430282,0.25605019620951697,0.2725230566021003,0.2881133429783266,0.3053995798240864,0.3208997952495565,0.3360201853154774,0.3473209592288441,0.3405672817412012,0.3275238757172668,0.3148338098216745,0.3031808259981754,0.29417863214754636,0.28931503641617395,0.28703118608923395,0.2821662268533053,0.2740464919556681,0.2671253962893615,0.25963732286846375,0.25135984998478134,0.24888210334146055,0.25239521406539944,0.2596732981456732,0.2664956440738161,0.274599783731043,0.28574369814608724,0.2913460402722582,0.2885195048057576,0.28669473422945346,0.2831756267243303,0.28321966810846544,0.28667483110099345,0.28246901263326474,0.27532044018648005,0.2732884806683997,0.2826795715148269,0.29909363558789126,0.3132238811382184,PM
