0,1,2,3,4,5,6,7,8,9,10,11,12,13,14,15,16,17,18,19,20,21,22,23,24,25,26,27,28,29,30,31,32,33,34,35,36,37,38,39,40,41,42,43,44,45,46,47,48,49,50,51,52,53,54,55,56,57,58,59,60,61,62,63,64,65,66,67,68,69,70,71,72,73,74,75,76,77,78,79,80,81,82,83,84,85,86,87,88,89,90,91,92,93,94,95,96,97,98,99,100,101,102,103,104,105,106,107,108,109,110,111,112,113,114,115,116,117,118,119,120,121,122,123,124,125,126,127,128,129,130,131,132,133,134,135,136,137,138,139,140,141,142,143,144,145,146,147,148,149,150,151,152,153,154,155,156,157,158,159,160,161,162,163,164,165,166,167,168,169,170,171,172,173,174,175,176,177,178,179,180,181,182,183,184,185,186,187,188,189,190,191,192,193,194,195,196,197,198,199,200,201,202,203,204,205,206,207,208,209,210,211,212,213,214,215,216,217,218,219,220,221,222,223,224,225,226,227,228,229,230,231,232,233,234,235,236,237,238,239,240,241,242,243,244,245,246,247,248,249,250,251,252,253,254,Target
0.21582654513231692,0.21582654513231625,0.21582654513231514,0.2158265451323147,0.21636935688301984,0.22522597410227707,0.23012084754704754,0.23831284149917087,0.24271887510573675,0.2501799038621615,0.25849085109368763,0.2661069129187954,0.272652182455841,0.26104246211519566,0.23640263688000784,0.2086687112052914,0.18035841201314806,0.15693515397225322,0.14972089304149772,0.15983347875450682,0.17263994484879963,0.18214511522130739,0.19147217430166452,0.1966787811767492,0.20721328022593144,0.21787734901628375,0.2267764843826987,0.22845553009054997,0.2406291507152607,0.2603575130979934,0.28755021313349305,0.31679120207047684,0.34888232483659376,0.387702683018881,0.4213450526487059,0.4619315477867074,0.5043050438736003,0.5397289828336809,0.5781362550172875,0.620652189307362,0.6630535915521603,0.6987192312811406,0.7368700210951911,0.7793766165153024,0.8218021392307198,0.8577094797286011,0.8956037871730946,0.9379476895499259,0.9733233634812786,1.0,0.9885964261442908,0.9515118741211466,0.9112316349061031,0.8774130627914407,0.8353443270963825,0.7928088670547626,0.7502734070131427,0.7077474695036621,0.6683932440771909,0.6338394278851522,0.5915489798052014,0.5490135197635815,0.5064780597219611,0.4640827388433819,0.42864215580257925,0.39026822458968136,0.34775363251402025,0.3053236158276065,0.27012637285105434,0.2511100898814256,0.25007878400791816,0.25011408215912123,0.2555020198650335,0.25828365359613614,0.24007453879243168,0.2159278968307594,0.1860837589322284,0.1796195364338531,0.20234033802424878,0.22120498674181688,0.22716830447258252,0.22490382891000515,0.21625522577678247,0.2157584572569371,0.20990319767397825,0.19649055310308516,0.19300392907002117,0.19301258718116743,0.1969701885531543,0.1965968522626702,0.19300753661632997,0.1929917192152062,0.1929917192152053,0.19299171921520464,0.19299171921520397,0.19310165654140632,0.19972977608514508,0.20437092868227014,0.2044091321737418,0.2044949490293253,0.21083959825847387,0.21577900277084439,0.21550188502812562,0.20202866488472604,0.17857080390850277,0.15336222329510663,0.12844005136804792,0.10356768305318798,0.09179308713499901,0.10256230068845484,0.11664046050509858,0.12761063462479072,0.13562068435028984,0.137939905747684,0.14678097322906836,0.14735431525310427,0.1525052641453315,0.1605682993064026,0.1776693753579388,0.20437225847439855,0.23326098738197643,0.26520967856088795,0.30231984567448067,0.33568965782249216,0.377080220132227,0.4182487388554521,0.4516277591175224,0.49327007889842456,0.5357096750225843,0.571785241284966,0.6095024540045655,0.6519941072327362,0.6941199084809018,0.728040907786168,0.7681890114031624,0.8107175646302833,0.8519310815896906,0.8850343611207401,0.9101604502882594,0.8951137785231698,0.8613736579255389,0.822567871682744,0.7800482290422468,0.737536030300157,0.6992313510643724,0.6637107317967317,0.6213238018343059,0.5787883417926851,0.5362528817510648,0.49377430294084235,0.4564811403874707,0.4200022181997789,0.37752845454312434,0.334992994501504,0.29247892798542185,0.2541229522757258,0.21872282686238909,0.18575280219102241,0.181577889284519,0.18160383233375232,0.18665458956053738,0.20003372355171511,0.19943708153526973,0.17863175995026603,0.14981423588763088,0.118295392690138,0.12609393076097875,0.1509095469801287,0.15865398027730482,0.15873948033956187,0.15873948033956098,0.1587394803395603,0.15873948033955965,0.1587387842659702,0.15731633547693225,0.14826433800347694,0.14730440940346368,0.14322751801936118,0.1360607636391249,0.13329870400212784,0.12471723727203154,0.1176269035150832,0.11309502552692474,0.1130446994318679,0.10876262215212074,0.1017961215319203,0.10165241554685012,0.10196696508512426,0.1104107138371373,0.11272453817143924,0.10195146788073783,0.08047017966133763,0.053294317918117784,0.02690094628779538,0.0033654172727881626,0.0,0.009290433545424914,0.01779489728235628,0.021717655812092174,0.02176077242343033,0.026724724430927882,0.03305743663233529,0.0334122461337647,0.042518117558909996,0.05994558445956466,0.08563341824515502,0.11412058145114923,0.14600792911406968,0.1823961101035847,0.22456493536325084,0.2587320303250493,0.2985096574531325,0.34095651448277065,0.3772049475702852,0.41474042450435844,0.45722537946333297,0.49834997925549196,0.5317456466838997,0.5734158248083969,0.6159501195133359,0.6572587632721141,0.690609443820335,0.7321403302268541,0.7746667265179306,0.8139706821435211,0.8449213635105082,0.8519354784177251,0.8284049164523295,0.7941600754122189,0.7558485885959696,0.7133347180295706,0.6708116489425158,0.6320925260684649,0.5969586280310666,0.5546102908216297,0.5120748307800089,0.4695398321804305,0.4280089457739109,0.39465826522568914,0.3533496214669132,0.3108153267619742,0.26914531287955845,0.2364051780875147,0.21658567129678552,0.21582654513223742,0.21582654513223676,0.21573351140559605,0.20789965815528233,0.1853440299010134,0.1571303048758934,0.13205241634591536,0.14343857400581705,0.16589456638868394,0.18202315092584098,0.191894206410675,PM
0.20472162111458037,0.193785307811996,0.17267549734201637,0.1457859995342663,0.12093863234160063,0.08773152852287902,0.05939541935008541,0.030942846650342304,0.009303780666727102,0.0,0.014510082408807135,0.03332624426946884,0.05396398019438009,0.07242014479710357,0.08248932069668036,0.09346745235451204,0.10465715536557307,0.10649195069115258,0.1096637043139641,0.12412533494805422,0.1442833876352665,0.17822408640621656,0.21477485968520726,0.24985325706866712,0.29197553514736185,0.32901094473650305,0.3728220603576351,0.411118413991157,0.4519477541899204,0.4882631828524113,0.524158916522881,0.5551145863814724,0.5787980380391802,0.6083893478961686,0.6459693223726863,0.6872361513283947,0.726356541267561,0.7715845883347052,0.8081833141548898,0.8533206287748194,0.8959312695026891,0.9339103863232254,0.9679702937385906,0.9726512107048677,0.9456026279408154,0.903057319453616,0.8601081280764578,0.82221246799247,0.7759669421120292,0.7294581990274307,0.6829494559428322,0.6364407128582332,0.5899319697736338,0.5438802148089654,0.506466882244955,0.4628340971023026,0.41643716044911505,0.3770806218563867,0.33571209985856676,0.2894070546909955,0.2507570460166004,0.2087044982723798,0.17000043477241134,0.16401315852211606,0.16861494508945096,0.17130822201494178,0.17446858568207402,0.17014841648067813,0.1800877559646783,0.1819429883238186,0.19171548853391895,0.19349491949746822,0.18864889117989936,0.16792447054076032,0.1584127825021988,0.17169871937324954,0.18080309022753083,0.18107916696542725,0.18107916696542414,0.1810791669654206,0.18107916696541748,0.18107916696541437,0.18107916696541126,0.18107916696540816,0.18106944491949406,0.17780079247756397,0.16901282088652891,0.17544168940010163,0.18197280606298438,0.19184337371369597,0.19350988795563673,0.19351074923642564,0.19351074923642253,0.19323467249852033,0.18410949565155255,0.164130431094216,0.13260512220413867,0.10074049164240861,0.0771288793403977,0.04929012942169453,0.025978968739929442,0.02146884359671164,0.03635119351600369,0.0564903403374073,0.07023415591732851,0.08561245104651616,0.09521804119626576,0.10538416153397923,0.11178167535001693,0.11890557049201989,0.12592246112209837,0.14058137385946812,0.17019000932178763,0.20387549657487192,0.23991099890787382,0.28269876891904433,0.3200934724582596,0.3620072591518224,0.40017712081090506,0.4377416317713423,0.4759086332069331,0.5134450013817995,0.5421428091087672,0.5654605630627749,0.5940022996546896,0.63142838301928,0.672863110327091,0.7137900553477023,0.7535389461959547,0.7985874880267088,0.835091533213951,0.877833544171112,0.9046550210983608,0.9086783049566871,0.8780562714888607,0.8387399053621154,0.7980128251663254,0.7515433896060775,0.7066829024237471,0.669992195016162,0.6244507142320805,0.5799353723576735,0.5431354368150516,0.4973591887358393,0.45332676744674716,0.41627867861394074,0.37025914144937166,0.3248874207561534,0.2883576811265174,0.24316322723181782,0.19714029206186723,0.17001734384972655,0.1726009009785483,0.18083960823875334,0.1812650090257173,0.189124744434781,0.1934952233453684,0.19461222897003294,0.2031191211812322,0.19465829499270582,0.1912694113038822,0.1741758225258434,0.171313903063937,0.18837551975580658,0.19347377777610397,0.18959479216248942,0.18978275053569416,0.1926343798829473,0.1827388763025004,0.1820700307103098,0.19189818164778627,0.1935099208707025,0.19351074923630307,0.19351074923629952,0.1935107492362964,0.19351074923629286,0.1935107492362902,0.19442510777021438,0.20422014805037625,0.2059983207988294,0.21252942696150745,0.2238950215017188,0.22466845393596602,0.21775944164022665,0.20304778657317124,0.17984934107808037,0.1525691629170467,0.11871054482197385,0.09018053069405596,0.062192595295492925,0.03698754117028824,0.01992066935774961,0.020540214284413327,0.036438564415479435,0.05960472504624126,0.07926102546110059,0.09080838662305091,0.09404853331077367,0.09406699353670267,0.09757604694730393,0.10637945268853222,0.1177611161189478,0.14696526457936443,0.17919215154825796,0.22019576272711872,0.2574021452967381,0.2961096669469039,0.3374176627785537,0.3752744226507634,0.41617471611162227,0.4529286719510024,0.4955565386768437,0.5304690661850522,0.5573788014708092,0.5806894383461021,0.6113677585156596,0.6542397430286675,0.6913766316167709,0.737312576483395,0.7776387061801291,0.8180160979374675,0.862645672251404,0.8992998971772153,0.9440222624324623,0.97977490674372,1.0,0.9833633552005177,0.9420917508838982,0.9046291713385077,0.8610833598417602,0.8145787585851774,0.7696087213648002,0.7329525070524903,0.6874833271237377,0.6410756197939871,0.6014831300388352,0.5603551487167762,0.5138812803753279,0.46921468680823697,0.43701280993809366,0.40960287256627215,0.3651396239008591,0.3204079598376697,0.2836770104855968,0.2380450645483485,0.19166892101985988,0.15912701400771256,0.15869077925118047,0.1681060406989947,0.1686475133778771,0.16865006430506302,0.17103317158687448,0.1805195038539087,0.18107906273371643,0.18107916696514703,PM
0.03964615744830269,0.06422047958162225,0.08710215304558433,0.10493971500896415,0.11913411393880202,0.1307371096301434,0.14921309944166683,0.1761866289710331,0.2099783453420655,0.24865819351735918,0.28625241164632176,0.32349801441421644,0.3535108000828283,0.393853653254017,0.43502442027959265,0.47289053493605515,0.5150648524853373,0.5576370529298621,0.6002095775453081,0.6427821021607544,0.6853534307939216,0.7271811332728656,0.7643612537457024,0.7976744742259677,0.8361751802174783,0.8772931092339923,0.9151758421243396,0.9560606591580555,0.97499644962771,0.9495946595268284,0.9123500931249805,0.8703024509640035,0.8279907567533632,0.7898045552960876,0.7490732136512833,0.7065134979177293,0.6642431260007459,0.6261662510187324,0.5852861958852597,0.5427249575163066,0.5008231293450222,0.46313485389519016,0.42150475993637115,0.37895141040557656,0.3383924593185065,0.30007346247724886,0.25854919634509843,0.2283286837384374,0.2261159304322139,0.22995189369619007,0.23597008357601112,0.24921924666287743,0.24741004617407103,0.24076607489445745,0.2624292751192826,0.28945022208006066,0.31400693079564557,0.33346656150197485,0.3505622250754804,0.3688279649812839,0.37888152720090706,0.3764106464399467,0.3564203709392325,0.32772124973911476,0.29695528494799805,0.26630448092823633,0.23518449647004525,0.21041116575853336,0.21326680809631793,0.23006970770401247,0.2375789133801961,0.23317209922467386,0.22346419583907273,0.21757707096293954,0.24156448442386325,0.27784106341102743,0.3165967531144652,0.3557918823813716,0.39604063683840474,0.4345517151445085,0.47691126293392994,0.5166917627842548,0.555698157172383,0.5981672562052615,0.639712866502547,0.6774212947841084,0.7193878178706757,0.7618643196032876,0.800923156469013,0.8406498820061178,0.8824848513469369,0.9180714591504208,0.9248118945276108,0.8894735337632408,0.8470970090493354,0.8082342565569595,0.7682968451053375,0.7257602863662483,0.6832451456873142,0.6437027479761778,0.6044651839443392,0.5619707829804749,0.5194228805001405,0.4791950988213275,0.4406005361262776,0.3981812795947012,0.35563719281104345,0.31557965653675313,0.27683760991970596,0.2345371698462163,0.1958941630633536,0.1599736365676253,0.13431998506414844,0.11435840186966606,0.09788128656318962,0.08685294488674389,0.08753469460671648,0.08429236632723514,0.06313659403102179,0.045581943473195996,0.054289623853302715,0.06553900979859739,0.07677746953139819,0.08995865542202375,0.09495258539072438,0.08627179072957647,0.0681097816419094,0.04354574809254197,0.013243217607345703,0.0,0.020764994110461066,0.048974223482813994,0.0754714440200226,0.09956582957461824,0.11756783661971315,0.13398225914497452,0.15437166862996354,0.17675463877135933,0.20212329507211402,0.23150695661714626,0.2655818651412091,0.30191301493717304,0.3407592577388855,0.3803802391265104,0.4164780337253168,0.4497428371063873,0.48893499436464827,0.5276905741241992,0.5701283924875767,0.612700917103023,0.6552734417184688,0.6978317375625357,0.738465166170866,0.7767256484565713,0.8190629939387272,0.8615875247873669,0.901211156916656,0.9403553819865301,0.9807939909782294,0.9999999999999999,0.9760155058503787,0.938838664832078,0.8968221450622166,0.8557719433803793,0.8178169281765238,0.7755979979349447,0.7330346068412178,0.6921298685221297,0.6540852615447542,0.612211888409352,0.5776738313285074,0.539631306911592,0.4993572232798834,0.46084763115377914,0.4184526525792035,0.3771231022631659,0.33937424385777193,0.3002450739937427,0.2683448160573497,0.25833303424807175,0.24562037387941504,0.23979013783057634,0.25202355106913055,0.2537308514566309,0.2375234561350964,0.22012038737430373,0.23225846203643175,0.2525447041373444,0.26458637083298664,0.271477271595448,0.2663753496274489,0.25019984169959664,0.2271163132706303,0.1990302813806496,0.16668905167662207,0.1355415012812864,0.10397192343682837,0.07359229992165639,0.06293367196500288,0.08174797938104095,0.09604692988458852,0.1037032826057055,0.11243797614050421,0.11682465886836901,0.13576102028391024,0.16583153447527066,0.20261149100289078,0.24120245738656887,0.2802054455337649,0.3172697795975802,0.3492647586680212,0.3859781713308076,0.42800759845281655,0.47006673891636097,0.5078337855948291,0.5492285291566413,0.5917940421532114,0.6333302653769927,0.6710409328620796,0.7130146564272765,0.7553619023729551,0.7936595542307284,0.8342470382079948,0.8764432417380771,0.9133972919176364,0.9291824794307485,0.9016549039383169,0.8598499851712936,0.8172784680244974,0.7747059434090514,0.7321335189815826,0.6898756801489322,0.6518262956441628,0.6109069339294234,0.5683450733861547,0.5264648101866317,0.4887832523473764,0.4471249971680459,0.404554736192979,0.3623804186436971,0.32451430398723435,0.2833329757926747,0.24140053807837736,0.2039844341164173,0.17370528319308265,0.1682489511672528,0.16852206095298483,0.17720359583917966,0.18541764727497545,0.17062206007217207,0.1533280676804255,0.16423973923971869,0.17993685324698505,0.19411062139499957,0.20506392820436503,PM
0.12123998509172695,0.14415757582719602,0.16156444831880412,0.16144888296172555,0.1393927730887392,0.11872346977012027,0.0922906813320199,0.071788042976348,0.04540132102907535,0.030066348759536066,0.017178354821692388,0.016047590001214918,0.004072820562820212,6.827240948137359e-06,0.0,2.584018291340584e-06,0.0030446186545249887,0.025802023208887803,0.05471347303463636,0.0915822167270357,0.13306680510420854,0.1805018810125385,0.22807936627546832,0.2738763082834761,0.32310463834928704,0.3672865125412397,0.4178124688701601,0.46069671679900237,0.5122028578380875,0.5543260899815534,0.6028986069658306,0.6469899188356183,0.6926418580321254,0.7401282673504856,0.7919966723189757,0.8341195769241736,0.8803372979336599,0.8778509636522673,0.8384694275530924,0.7839721760804217,0.7304992340427283,0.6888854658482115,0.6358449048070383,0.58098374656152,0.5261222029768602,0.4712733702947598,0.42081804400528267,0.3776351225280745,0.323134510980577,0.26854256132978804,0.22435395623167365,0.17578143924739598,0.13366007286655934,0.08378742346999868,0.053613026255647345,0.04938904370805508,0.05344820978897635,0.06542297922736706,0.06655397525132267,0.08037804877031052,0.10226918410755248,0.1146680337617143,0.10385268789483293,0.08337188300901088,0.06665792231796797,0.07488230351557279,0.08775969468800282,0.09848116525150408,0.0987507591853709,0.09911169122252961,0.11079031332997946,0.11519653062515856,0.11520924152771395,0.11520924152771128,0.11520924152770817,0.11520931859553318,0.11592919107485766,0.12866338120875698,0.1316518648291929,0.12724877640535182,0.11557015429789708,0.11508096526805511,0.10602743415499871,0.09878887537366632,0.09574645505794166,0.08301226492403879,0.08229239244470943,0.08229229610992128,0.08202270217604823,0.07136093048788084,0.07136093048787906,0.08202270217604068,0.08229229610990796,0.08229231537686221,0.08229254658034302,0.0833823721645559,0.10227240931358628,0.11566448155141762,0.13274725296815593,0.15322807712092912,0.16404528875043844,0.15322807712092468,0.13273454206558766,0.11124555335366448,0.0861261342618489,0.058717845764735266,0.03457222500254309,0.018233786564418875,0.009078914814312888,0.007373948930874175,0.01633018681559939,0.016457744819568187,0.015069143272599561,0.001974728546383364,0.010625392481051765,0.01714797416870839,0.031003044883116893,0.054759068909648434,0.09158221672686384,0.13306680510403623,0.18050188101236575,0.228079366275296,0.2738869934077601,0.32679927818929766,0.36841304638381445,0.42173262775757925,0.4661218836762462,0.5151805639169167,0.5700003673808278,0.6193569737062719,0.6635456751391708,0.7181376247899602,0.7729965650893686,0.8249135984696014,0.8670479588775346,0.9207645003508214,0.9638429738204879,1.0,0.9956159526393891,0.9588013893039133,0.9046667766430097,0.8498053293931362,0.7952133797423464,0.7510246783094479,0.7016680719840025,0.6468175988629392,0.5919560552782803,0.5370945116936214,0.48226363776611203,0.4332049575254415,0.3888149833511121,0.33410680043038044,0.27929388525746424,0.23180487265385175,0.18588526308697784,0.13316539671431515,0.10298841548166937,0.09875783689661732,0.09982976477628958,0.11321478759827608,0.11521414520501949,0.11928244742952909,0.13307810307662082,0.14646711907316856,0.13676891505675126,0.11633003495235839,0.10675421094297555,0.11508104233575533,0.11520924152755851,0.1152092415275554,0.11520924152755319,0.11520924152754963,0.11520924152754652,0.11520924152754386,0.11520924152754075,0.11520924152753764,0.11520924152753453,0.11520924152753187,0.11520924152752876,0.11520924152752565,0.11520924152752254,0.11520924152751988,0.11520924152751677,0.11520924152751366,0.115209241527511,0.11520924152750833,0.11508096526787037,0.10602743415481442,0.09879200424482537,0.09875077845209868,0.09875077845209601,0.09875077845209335,0.0987507784520898,0.09875077845208713,0.09870215004034177,0.09133220307758583,0.08533670282772743,0.09811995344005275,0.10973910898004524,0.1302624941990227,0.15652032078542977,0.17698220396401654,0.19608150964380355,0.19708675963542666,0.18209886082800875,0.16062094257968162,0.13550161982265152,0.10874914440707029,0.0882771757085492,0.06769644597660829,0.06583351938473347,0.06444453249862425,0.0511967571084786,0.04937577456498943,0.04937538922584617,0.049386459689439555,0.054932699809202123,0.0735676715912188,0.09985541122143582,0.13134089996018217,0.17081611981404388,0.21534399896260892,0.2594701089495266,0.28915033940176293,0.3261516030780114,0.37799658015099036,0.4299104846598798,0.47204484506781474,0.5257613865411006,0.5689442116835219,0.6192461773090714,0.663623440580841,0.712675293580566,0.763440174186206,0.8063269483324711,0.8600577270966556,0.9021739522829453,0.9481238269137218,0.967935766598969,0.9371813908280893,0.8857265596711414,0.8435992062203823,0.7894575351150501,0.7345960685982194,0.67976519467071,0.6307065144300399,0.58631654025571,0.5316083573349792,0.4767468137503186,0.42188528943261794,0.36729333978182765,0.3231046383489282,0.2737480320234842,0.21889977147027873,0.16773707579772434,PM
0.114753310275308,0.14298374199063302,0.1663035109485147,0.17573604153049827,0.17590200295967007,0.17863960246122845,0.18704545625236202,0.17787085262617675,0.17408510957503198,0.1548551003844323,0.1324146856024555,0.1110741739672223,0.09860426219068819,0.08582306128868789,0.07527065630112606,0.0656385419797636,0.06996141158854252,0.07478319355209084,0.07089042448628757,0.06467615349671196,0.06278607152614102,0.06640934523100683,0.0848951395738684,0.11947403163316661,0.165715870775772,0.21138792243746485,0.26031460908067006,0.30761857220638467,0.36193062448051716,0.41605603083932996,0.4619396826312907,0.5127797401903598,0.5672369280412553,0.6211924105325393,0.6663753460718707,0.7180827033484172,0.7725434686916386,0.8270125194543385,0.8814815702170384,0.9358240495231116,0.9823266899810741,1.0,0.9704732600494719,0.9268866821531851,0.8731014791638976,0.8186327247632548,0.7644900831458239,0.7187542853107263,0.6677819367962692,0.6133262433852806,0.5588571926225812,0.5044402323315489,0.4553013459977526,0.40789348691273775,0.3535508297894303,0.29940818817199943,0.2536724199731082,0.20295011996745904,0.15971817288827506,0.13986217609082097,0.13819013956778248,0.13822067840759678,0.1445502447558229,0.16146512916705102,0.1575443636545173,0.13362522621942796,0.10023275157725342,0.08119070224592129,0.09802579093021624,0.10047338339215495,0.09938345805329041,0.08945360466263219,0.08791101578679772,0.08790931096565435,0.08733987069211713,0.08159098829389055,0.08649125625036902,0.07630084827489636,0.06527191225486417,0.05414384883832346,0.03749025893810898,0.020906000668066138,0.012592052670342246,0.006138573325958019,0.0,9.453524910574274e-05,0.008059900622163108,0.020372667522210453,0.05079574897285344,0.10208442956163255,0.15040656230648608,0.19859573571634037,0.2526488785511427,0.29853253034310256,0.34937258790217207,0.4034862498940024,0.44936990168596314,0.5002099592450326,0.5546539082890387,0.6056262568034958,0.6513620546385921,0.7055046962560225,0.75984735337933,0.8072548568298759,0.8551854581242813,0.8870567880022455,0.8721083194026877,0.8228316945673866,0.7728650379453916,0.726280669900802,0.6719852211296371,0.6175244557864166,0.5658170985098696,0.5206341629705364,0.46667868047925287,0.4122097482613749,0.35789769598724286,0.3105936735891155,0.26134057780064124,0.20690335579201813,0.15268529485731408,0.11056657099133327,0.10585650110358324,0.11340565009236503,0.12302650226446499,0.13649005982661588,0.15636019939640766,0.16214689845532604,0.14681850301410737,0.11416340884289689,0.081975424817057,0.08616560914807181,0.09986461395589208,0.10116282113940489,0.11083706823883688,0.11304701148326624,0.11502340433289682,0.12477461158787495,0.12353172711795501,0.11982449427167996,0.11438431468241506,0.10572855082403043,0.1005109799372792,0.10048079673192589,0.10202338560775415,0.11195359463287557,0.11416195781771199,0.12372343820036003,0.11800954721902723,0.12490213064024225,0.15105257513128345,0.19140794294573737,0.23936086547290092,0.2839758199731959,0.33661882812280153,0.38320182864291885,0.4331913005893515,0.4874548319411902,0.5340391999857794,0.5840286719322125,0.638465805275588,0.6928552741819578,0.7402206277155776,0.7715925757207907,0.8186876321529164,0.8729753818863899,0.920351086219064,0.9625650600105815,0.9712792303717417,0.939290380096443,0.8893119976795711,0.8434285829772552,0.7893031766184415,0.7348346409696447,0.6812043797430882,0.6364913627073436,0.5839938783223029,0.5295277037501798,0.4750586529874794,0.42058960222478037,0.36612055146208045,0.3117237642233901,0.26369213405221226,0.22366855481584702,0.20193105082237794,0.20662906396690683,0.2224018324473631,0.23047491313845248,0.24410976397535133,0.26335589296730566,0.2663906853632434,0.238339577829231,0.2024098424548928,0.1800566448397638,0.19037295494674344,0.19961495917308847,0.19115752944209508,0.20407616513809446,0.21344562145558843,0.2142908496464555,0.22339553792753053,0.21960467466594924,0.21472041415498078,0.19463378027715894,0.17645531886460208,0.15863232881769251,0.1490692429503282,0.1297164798128656,0.10838122332044042,0.09895142901600806,0.08813103044164272,0.07083643946473406,0.051873472384265096,0.050204549141450006,0.05235223806675027,0.07316725617012709,0.10661653654816661,0.14916783671036793,0.19465605578344247,0.24464434932104284,0.29839799052547367,0.3431928830973545,0.39545486680619923,0.449887291979052,0.4991403877675249,0.5464444101656523,0.6007564624397848,0.6548818687985984,0.7007655205905574,0.7516055781496274,0.8060612686328228,0.8589877305196909,0.9035227914231032,0.9537157719458427,0.9751614435982296,0.9399410315912182,0.8893122347691289,0.8434285829771655,0.7893031766183563,0.7348341258556541,0.6803733605124309,0.628666003235888,0.5834830676965539,0.5295275852052677,0.47505865298739414,0.4207466007132594,0.3734425783151307,0.3241894825266596,0.2697841483011554,0.21979561767390843,0.1743797510334626,0.13872355838257766,0.12597873920075875,0.12759318527799213,0.1373443925329707,PM
0.03675299744689564,0.06779539656000111,0.06952647807928347,0.06952680323779248,0.06952680323778893,0.06952680323778537,0.0695268032377836,0.06978438348545257,0.09500888882599501,0.10827390273001125,0.108341549377033,0.10834154937703033,0.10834154937702678,0.10824922619920141,0.09184627155936642,0.0696905547398945,0.06952680323775784,0.06952680323775517,0.07213102303374619,0.10401736686527752,0.10834035712913437,0.10834154937700369,0.10834154937700191,0.10834154937699925,0.10859912962466733,0.1343700717090659,0.19570309685352782,0.2603434753831486,0.3381973939997547,0.4157882352043698,0.5134900765209878,0.5846074873034137,0.6714214580124196,0.7577847551948276,0.8295974817360774,0.9244979833598466,0.9840194796590804,1.0,0.9576335382801693,0.8608917391095705,0.7649738217015871,0.6990924330428454,0.6053119761989159,0.5298123367816503,0.44762126671260205,0.3509160711173429,0.28336965728916397,0.20137788982271054,0.13642295513648506,0.07241419455563225,0.045101988748165844,0.1086164189381904,0.1582552047261796,0.18543160764796696,0.18597104165548917,0.1859710416554856,0.1859740764682476,0.19311859873724124,0.2234518137265349,0.22464411155531305,0.20063130137566265,0.154036527150744,0.12173406295028322,0.06089668352180144,0.05007130616365263,0.08023420754489141,0.1277537448015762,0.1588249320840971,0.18529945526991654,0.18597104165545808,0.1859710416554563,0.18597104165545364,0.1864475556427072,0.21488834726817885,0.1945757670799253,0.1859749435575715,0.18651010813972224,0.21591031762929624,0.19311686455847443,0.1859784119150074,0.19562174732518312,0.21437736208759972,0.18641627939417305,0.18596974102138386,0.18100339642659868,0.1493474846498133,0.14715629551616072,0.14715629551615805,0.14715629551615628,0.1471562955161536,0.14715629551614917,0.1471562955161474,0.14715542842678175,0.14476250115568856,0.11218876306202841,0.11695634287651746,0.14609161196780374,0.15689521752790636,0.20419612024327094,0.23539199309673808,0.2627964700118275,0.26360010038922077,0.26173664971957233,0.2294771583049524,0.19657854759150872,0.16631726524558132,0.14509737898532293,0.11301092248455724,0.10834198292153197,0.10834154937684914,0.10834154937684648,0.10834154937684293,0.10834154937684026,0.1083415493768376,0.10834241646619702,0.11342872213836941,0.15598563841509705,0.2112556122870659,0.29200921054377016,0.3634065665745716,0.43262801803428896,0.5207176656931187,0.6158523716678035,0.6819140713102332,0.7761835720940855,0.8424984045291968,0.8370768908289801,0.7737545748078443,0.7008089503547783,0.6059243366757503,0.5400930690880692,0.4453448746800355,0.34725872232914057,0.26548352659876784,0.19119315004285298,0.13002640951397026,0.10847966071128834,0.12133691740072994,0.16893665498866284,0.18607374622815165,0.2093447157324686,0.22470169012702623,0.22478578779457958,0.22478578779457692,0.22478394522968248,0.21659985350474464,0.18344146642736536,0.14911904117029362,0.11137706241614342,0.06307953970695568,0.041881800481765374,0.07422337628400921,0.11825507592870377,0.14648427558581378,0.14715629551603815,0.1471562955160346,0.14715629551603282,0.14715629551602927,0.14715629551602571,0.14715629551602394,0.14708864886899597,0.13382363496497351,0.10859912962442753,0.108341549376755,0.10834154937675233,0.10834154937674878,0.10834154937674789,0.10834154937674434,0.10834154937674167,0.10834154937673901,0.10834154937673546,0.10834154937673368,0.10834154937673013,0.10834154937672835,0.1083415493767248,0.10834154937672125,0.10834154937671947,0.10834501773416338,0.11590213712081532,0.1502111414296623,0.1837097248313091,0.18597028295203355,0.18597082488288308,0.18437211251395702,0.15345127217734245,0.13704311627378551,0.10875551086692781,0.10834154937669371,0.10834154937669105,0.10834154937668838,0.10834154937668661,0.10834154937668306,0.11177183049735717,0.14411903843839013,0.14715532004040188,0.1476953620002126,0.1826897899054778,0.23212827394615054,0.31287458248548994,0.37897710313328403,0.4750226207001411,0.5624820098926095,0.6333730082148534,0.730745685642769,0.8230117941746204,0.8770234956701319,0.9190989992872947,0.9162582636145888,0.8546001627878974,0.782941355382853,0.6850830125988265,0.5869045370701125,0.48872790410629285,0.39873254482698073,0.33095022016341336,0.25696419686847616,0.18909451418239165,0.12364829423913637,0.07763382772535365,0.10861072882824896,0.17553812787161327,0.21978296441496337,0.22478448716038368,0.22478578779442504,0.2247857877944215,0.22478578779441794,0.22478502909122433,0.22252273679176948,0.18261824135629023,0.13422102520970647,0.08444366772970113,0.03482972736190071,0.0,0.028653140567318047,0.05021966682928802,0.09682227726823545,0.10829857926039566,0.10834154937661822,0.10834154937661467,0.108341549376612,0.10822454966798745,0.08868365429234881,0.06959672599394295,0.06946738210058534,0.05683760540339211,0.031000913594263046,0.030712057098077672,0.030712057098075007,0.030712057098071455,0.03071639254487657,0.0403810563532403,0.06859026177871463,0.06952680323732086,0.06952680323731819,0.06952680323731553,PM
0.23771235109416766,0.25447109372871024,0.2554772073205669,0.24389754949216336,0.2200922601969042,0.20049458169093715,0.19905498885455852,0.21602017965982512,0.23992407954298978,0.2552916376594876,0.25582150847256635,0.25445136785931366,0.23980808214437577,0.2149729482582856,0.22383886439743472,0.24354938054620456,0.2651029943651815,0.27107632008307636,0.27198062569378045,0.2845585437528473,0.2970023828000108,0.30008837245206355,0.2816782096896082,0.27165961147951023,0.28565874099964894,0.3010691609355671,0.30089296061823223,0.2877108765004799,0.2674077359881215,0.2609573071019602,0.27735079475725,0.2897763162917162,0.3058796903861367,0.31307446068207057,0.3022498244192624,0.31088704976759596,0.3136048132237437,0.3021747395717971,0.29585677923454234,0.2784408892263057,0.2541946179464363,0.24184546494885595,0.25913844689512233,0.27819624533229614,0.30689263334741534,0.3265160368386817,0.33218893788212434,0.32730710708923194,0.3149083077123147,0.2988783225046161,0.2761052305819054,0.25123648517164554,0.2373452857749183,0.21228433658973067,0.18221514784529314,0.14556133757117395,0.11096061863131279,0.07365611770963376,0.038572286189228144,0.010487867585935451,0.0,0.02032469558482486,0.03260343050435699,0.04249074125972374,0.05512981786424431,0.07367923754406336,0.09984073769133683,0.12087253311257085,0.15250880236756137,0.17811980310715958,0.20634318876325608,0.24163891559840955,0.290377475513393,0.34004980505389204,0.3782300151218565,0.4268492920329181,0.4741038303138887,0.513167635350178,0.5633241201819787,0.6108013341229452,0.6497487262620734,0.6998008019786854,0.7474988379320013,0.7863424476272072,0.8362774837753939,0.8841963417410579,0.9229358821639768,0.9712514297113124,1.0,0.9980535937512727,0.9663724533868114,0.9234170189829132,0.8841544332709113,0.834479468381681,0.7953507680901839,0.7481697690903193,0.6995115470461237,0.6613475637870962,0.611696565324154,0.5611102155471723,0.5111794756606387,0.472341671650641,0.4249681812131558,0.38525826247709416,0.3389301485161509,0.29795060149373764,0.27242348914818804,0.26780436479965886,0.256356957239702,0.25385116182721923,0.24144745085761432,0.24053871847434394,0.2406754555535877,0.25209181467347763,0.27638346397990565,0.2863830015076765,0.2953968712790682,0.28935063902870883,0.279856550680718,0.25490536663017016,0.23776504812940136,0.21653285318831061,0.21014004068288106,0.22064582574709357,0.23974005826702038,0.2648477378133589,0.28982437213146595,0.308181973387319,0.31501332924996595,0.29540578309058274,0.27011643304842226,0.24482105941890753,0.22026005620567668,0.2212326072720736,0.23792950630644594,0.25784268380443676,0.2707869713507134,0.2742198783947738,0.2947205620573006,0.3117211312417627,0.31562075841806125,0.3014949054023144,0.28727812916632933,0.27784606422617175,0.2595505728250136,0.23519682100696526,0.23154459019116658,0.24122070636351944,0.25803879036593225,0.27079408697855856,0.2710739908741746,0.26545313187426034,0.2661437123324486,0.2740545092013069,0.2952955850347636,0.3167936485786753,0.330713898087756,0.32049473069253187,0.30011945119075323,0.2778962946417618,0.25799690685904686,0.26538729014722984,0.28763155302674415,0.3011748485138317,0.2910036446718127,0.29670307853484434,0.3016579760142508,0.3056118328871791,0.31647728957737886,0.307082605825701,0.28776246539945305,0.27432068573147195,0.2576297474019942,0.25057543119970305,0.2652423374361259,0.2715949408046683,0.283137050584819,0.2955639008276867,0.30163825158000623,0.3013607105113194,0.2849221960979986,0.25636665089995914,0.23106805340668002,0.20577960748085955,0.17978241057758382,0.14250598815530546,0.10846499805816334,0.07973487026210302,0.04974905626154236,0.030729770068512074,0.013780227463158212,0.03775896167584181,0.06429521066967459,0.0895822297815565,0.11488429212098605,0.14016899508735126,0.16157413043799096,0.1740824032620023,0.1828048123616366,0.21936744915549644,0.26954611890392277,0.30949385295864085,0.355603137743461,0.39688921969588087,0.44162948249423106,0.49207404057607196,0.5336698618760503,0.5781086028738356,0.6279188780940417,0.6664408507049018,0.714547977641605,0.7623540605308743,0.8011457790041203,0.851022295368093,0.8990515643399317,0.9377307960641401,0.9812472234872591,0.9881494166522398,0.9648481298248321,0.9255012254111392,0.886625318268083,0.8393340103465587,0.7907342060020617,0.7525458825296276,0.7028603405563163,0.6522739812653713,0.6024027332072093,0.5649297446199721,0.5378210728660919,0.5070555316240535,0.46158378697932134,0.423158381661334,0.3768064841900758,0.3421009064397511,0.3145617858033134,0.2955638509157268,0.27470860247314066,0.2782568480756895,0.29022340212558007,0.30131919273309915,0.3016472013671794,0.2963378469875835,0.2858777702848214,0.2701850103909136,0.2597137238736358,0.27069749515893937,0.2700641644578452,0.2576681797755942,0.24440928903667913,0.22153759241201332,0.22470815358647833,0.24010652617045602,0.25103882221774576,0.26996041538544135,0.28568858748971193,PM
0.06014202220484277,0.07161863482117115,0.07512972641407423,0.09921553980181441,0.13772049047770762,0.18903416487656965,0.24404840200335265,0.3009625972605381,0.3574668591950254,0.4138964641841274,0.47264556746472497,0.5319232377704295,0.5909768495979737,0.6503453088258415,0.7160599651653952,0.7715520628982553,0.834389422390053,0.8898759539842547,0.951193842377962,0.9918369722074103,0.9861099316741515,0.9389672255272807,0.8744050933421406,0.8193141964247999,0.754928867736,0.6884150947703067,0.6273062506978713,0.5698319772309013,0.5035856211500889,0.4439551908901893,0.3850588920233564,0.3186224480248545,0.2531996495860951,0.1981435350328078,0.1435694332376718,0.13337139227760764,0.15406018312853842,0.17104331656496097,0.15543441359430643,0.12275651506836027,0.0802499328768751,0.06183541511410873,0.07193864370613623,0.06589114464519152,0.058852021313436254,0.06804738513724296,0.06677042128710742,0.07271743122798302,0.07477183461754544,0.08628509506717164,0.08191582672622477,0.0623460141548855,0.0402388195876644,0.017297977055091618,0.02647872239140492,0.04011952186129797,0.057332999012001284,0.0668394738789071,0.07487924026693449,0.09841019558770459,0.14077503714611206,0.19870894713147624,0.2384383648535966,0.29095661624688596,0.34558252534273004,0.39924507724339886,0.4511168763350568,0.5099896039771412,0.5673380749127857,0.6250796079292438,0.6854639339148139,0.7434097532781765,0.8039291207842418,0.8649809582867771,0.9224445124679086,0.9817880853638079,1.0,0.9559262792976648,0.8907205524339004,0.8355648208204145,0.7713498605726485,0.7049445402999939,0.6465498461166748,0.5864258127298783,0.5199216828034103,0.4549653458476537,0.40001453788981145,0.3366382575811806,0.28176456150111573,0.22335451699212516,0.16593627735411065,0.1233585660748262,0.11905791246348807,0.13062461201249986,0.12905299270675252,0.0995607883194598,0.059029177395024224,0.056005167369135744,0.07047470021756741,0.06923255926973404,0.05861810240244614,0.06332381760392547,0.07254069434778954,0.0728820256141578,0.07973832530826996,0.08736867964231632,0.07814036251076661,0.046701085080700366,0.017959841627661177,0.0162336709370976,0.03157375690808051,0.05127815509454292,0.061846598769123684,0.07334389455487234,0.08990476695686889,0.12476119947808062,0.16886554850525703,0.2244473821855184,0.2830015502195904,0.3378022533568732,0.39614333917983435,0.449693016437096,0.5050756053394809,0.5594389695568958,0.6149229766527249,0.6763490611862459,0.7332515256614451,0.7949263874103134,0.857660469898915,0.9134310051416397,0.9626520290993921,0.9575896704697415,0.9067859764385768,0.8517507707123491,0.7877128560478908,0.721181506134553,0.6594517456380089,0.6025635507646956,0.536283650992579,0.4698402459945621,0.41110742063167516,0.351805247672921,0.2960357347838243,0.24263562724793042,0.18257738493624798,0.14841991293936108,0.1603343181730419,0.1808758148116607,0.18576023719644175,0.1589480343264471,0.11434520275387872,0.09121210037824223,0.09988787884399475,0.10056412805122417,0.07759941306173612,0.05306045308004981,0.030439069849062417,0.035810540394060286,0.05669106132739321,0.058018830878173944,0.057747725226024116,0.04708929626177083,0.020190093498965833,0.0,0.005919367589579672,0.024695495284732694,0.03493569174400557,0.04395972712560603,0.05557912229670814,0.06946143603807275,0.11054971313064144,0.16101494767597657,0.21744492036538254,0.27347661019521485,0.32794803188990995,0.38202910339615404,0.43359678741386043,0.49752598866914166,0.5639394906148434,0.6225593817255044,0.6824725496840651,0.7466266821924221,0.801748329321935,0.8624260864999833,0.9176575280047277,0.9546519291120923,0.932997841342639,0.8826173919268627,0.818873003610896,0.7527471502439247,0.6964178196673467,0.6339877525152464,0.5674545589777202,0.5040487853479578,0.44843976753262194,0.3838790623570194,0.32889244941042506,0.2673943034136075,0.21185229970504071,0.15202329699737982,0.10978997759319142,0.11569296393549289,0.13718353350879298,0.14521441738397245,0.12091425357820507,0.07874289166718462,0.06553121436930631,0.08355807595370068,0.0875979522644097,0.08761337703289751,0.08761688494515552,0.08985018850055448,0.1012403103267987,0.09652426288953064,0.08775511987487583,0.08036389150025247,0.05043520490772657,0.020647907198161786,0.013792686099106,0.0222621808438892,0.04036950757886704,0.04786605955005108,0.05768745464993685,0.06509266350120857,0.10077101964868396,0.1513573031392852,0.20791772489207938,0.27331144839900245,0.32822877349511304,0.3808537993818799,0.43224115168124566,0.49516344767033793,0.5505514419654944,0.614233751388928,0.6747430622900796,0.7327756785934345,0.7958986243505608,0.8515428874811182,0.911265669559016,0.9535506225957016,0.9429784847056664,0.8872881188426609,0.8308305505992033,0.7686652559784228,0.7021743510570211,0.641268326376458,0.5835992890051402,0.5172505612536309,0.4506927748812215,0.3841523360160686,0.3217634075098257,0.26577238980378715,0.20959209999341022,0.14797263122756288,0.10556629779006643,PM
0.14751407016463713,0.14798268965690098,0.15344968542762194,0.14776855988629944,0.14147554665986162,0.13698210137645916,0.1369463813168439,0.13654091082677455,0.1338175602194427,0.13688951349794776,0.14073695926749408,0.14599287220837875,0.13774794845541516,0.12954220406750205,0.11231903983585778,0.09410800275237219,0.0684814786325707,0.0445768342352606,0.031942300121279965,0.038918051352866856,0.053959688994786204,0.07190013641384385,0.08712554444831433,0.1012378183189031,0.10556410936591676,0.11235627731837572,0.10650670372052828,0.0976562886419432,0.09502947742607337,0.10306672992342159,0.1252031813266261,0.16077286817028624,0.19895401709026617,0.23780356034732142,0.27469460899906295,0.31734029347646553,0.35961391940261866,0.3969275064256512,0.44141849100216235,0.48625189213775166,0.5263571169974048,0.5655932545081404,0.6103762354684223,0.6552575789211967,0.6998150907212055,0.7372987169775425,0.7793418247569879,0.8242153233874563,0.8690966668402302,0.9139621409637966,0.9546794206543543,0.9677531070886822,0.942389374828059,0.9005562829821792,0.8638075849018068,0.8194909714450522,0.7746098858383956,0.7304103987851949,0.693728217436097,0.6505314286674089,0.6056518835260183,0.5607705400732443,0.515889725535583,0.4721362954564505,0.4355645455237369,0.39181208157158154,0.34693145215420973,0.30205010870143556,0.25730137431124556,0.21847342283577698,0.1779447037037809,0.13463298924183853,0.11656045842114326,0.1233484335744155,0.1263865837854945,0.13105025513197166,0.1528655576396325,0.17679255162850582,0.1887133196413624,0.18377164095402954,0.16068577054129296,0.13118499261447591,0.11499505549034605,0.12572900674241616,0.1332838356962578,0.1369228847279953,0.13694644081975027,0.13694644081974916,0.13682524728052714,0.13090791731497542,0.12641447203157274,0.12637881147490715,0.12637881147490626,0.1263788114749047,0.12639687781055908,0.1301705296393716,0.1367681696636982,0.136781868291733,0.13034128072714735,0.1238795195034561,0.10943171409627661,0.0879303259451838,0.0654534337229209,0.04006403418134985,0.016330411886908758,0.004797187307377326,0.013419230842664165,0.030711229972672838,0.048759222057716656,0.06257181212412233,0.07239380647410254,0.07354012922415465,0.07352065636495397,0.07006270743834753,0.06320039818003687,0.06720959933186132,0.08934618558907093,0.1225639563735399,0.15868813693709583,0.1984019743183547,0.23670026375343944,0.27769860139315705,0.31946956854888686,0.35711965433029813,0.401751718392781,0.4440537081362217,0.48135151001740595,0.5258352007096818,0.5707165441624558,0.6152740559624654,0.6527576822188019,0.6948007899982473,0.7396742886287158,0.7845556320814902,0.829339906174994,0.8682628391339808,0.9015730341265067,0.9311882219185919,0.9597539767997831,0.9927707655436653,0.9950200109122289,0.9637088970858245,0.9199502966583422,0.8772651341397399,0.840303833762744,0.7958692117330128,0.7509878682802389,0.7061065248274649,0.661227018835912,0.6178187551907091,0.5811641332632924,0.5371554813854911,0.4956445802725431,0.4664917698253126,0.4243883756866411,0.3934271081670373,0.3553139765165223,0.31795087817340506,0.275808903708038,0.23093617946319278,0.18606876261444683,0.14436357835885572,0.11295595932941094,0.10862803489406492,0.11627180089858147,0.12471873704117686,0.13281787042670645,0.1541463337492428,0.18018215677350735,0.1891063751213744,0.17707965287397842,0.1505092214735575,0.12269152464978017,0.11439137645323161,0.13003621971692292,0.13686710768026966,0.1369464408196983,0.13694644081969742,0.13694778955323383,0.1383772949103823,0.14669656735852188,0.14448332202343672,0.1372371867650728,0.1369402188653268,0.13449528333450367,0.12677428155316472,0.1275209575339824,0.13583449733950448,0.1369355396179861,0.1339687193205632,0.12664702799635785,0.12154148382440244,0.10420464675236274,0.08397180834383278,0.05803976447907533,0.031846745715703895,0.011366602148209948,0.0,0.0033397740364957684,0.02240884889108119,0.037313406497803125,0.049322604988611296,0.061421011098402145,0.06297270421029655,0.06455824684540667,0.06770997942864798,0.06790951313392357,0.07664123181096816,0.09224457525535223,0.12299603508690948,0.1611319003465752,0.19844761724122062,0.23998947397953274,0.2767433076072636,0.3196967804922213,0.36149666043430173,0.3930911852894112,0.4234647458378775,0.46720793751653056,0.5047128745406255,0.5467301609345181,0.5916031527498429,0.6364844962026168,0.6813658396553908,0.7262471831081652,0.7711285265609391,0.8160098700137131,0.8608896267211488,0.9042287301205725,0.9408207535465831,0.9821091739560706,0.9999999999999998,0.9798029951372762,0.9451561524067149,0.9016688054594038,0.8574560132568807,0.8207422616240863,0.7775915780160545,0.7327120857661755,0.6878307423134016,0.6429493988606276,0.5980681479679968,0.5536864790948786,0.5166096691995696,0.4739876488999799,0.42911031094159147,0.3842289674888202,0.3393476240360438,0.2946902138327663,0.2568737606800626,0.21525755069980024,0.17056394153417775,0.1332910147648163,0.11640002718859743,0.11581118212998409,PM
0.05596887681913465,0.07434008342425624,0.10180542189219155,0.12484793223028001,0.13620180839099572,0.14528008734694708,0.15798879048778502,0.15065496090849617,0.1449590341767224,0.14489222839059712,0.1372151740809251,0.12765920651144524,0.14760225827570972,0.18833656295136603,0.2351767297809335,0.28230187403286955,0.330744869459318,0.37826695667017995,0.4343148864011428,0.48150201502239165,0.5418397048842891,0.6035502702801261,0.6560152834916728,0.7090753492352766,0.769941115342466,0.8174803210099189,0.8761821606519309,0.9369041406098031,0.9819712327681334,0.995252859269947,0.9490372719359734,0.9020225061584588,0.841413776431208,0.7796106766871849,0.7178095337477917,0.6581961411153441,0.6111736304331239,0.5525070667887717,0.5160454032682793,0.4683100348509144,0.4336868668289493,0.37638166806628126,0.3149119880616573,0.26516449633887573,0.2092030806480092,0.14741362252312928,0.08674219118880977,0.07881702168195792,0.12336446819916524,0.17471709364900967,0.1982386852136031,0.19966718366248193,0.19976731207380993,0.2093005609396963,0.21784401519345575,0.21882330343761902,0.23320752539556144,0.23611687004091797,0.23014216815466737,0.20946397372526704,0.18578828862543872,0.1964556942937099,0.1996618040905176,0.19774141046667015,0.18285724689095062,0.18113417016862066,0.1694467359050713,0.16320147163954868,0.1641604223291515,0.17870544062278615,0.1842887077471791,0.19860301573079875,0.2057287939739627,0.2210772089556361,0.23540841650846023,0.23492432339068614,0.2200756021543615,0.2013825636229627,0.17038032678058723,0.12754897743043303,0.09064335296295267,0.055675185201709,0.019832852313330207,0.0,0.0035267480301017784,0.023165362398196443,0.043780122275533184,0.05898251126548937,0.08420053167537045,0.09037807678221554,0.10220198570794459,0.1218098169595403,0.1266244842947004,0.11769292229643247,0.10854941688323416,0.10879323092329818,0.1249092561893077,0.1556639758079852,0.19850043785572913,0.2443081072987363,0.2898949919848892,0.3365137915275529,0.39170568356229074,0.4387368203299826,0.4963825217626945,0.5327445037895702,0.5782487210189067,0.6291744147371552,0.6907683030574372,0.7525716934085267,0.8143750837596162,0.8761782550376864,0.9369041406097436,0.9819811571690846,1.0,0.9668482246066099,0.9202630901161872,0.8596543603889346,0.7978570812990076,0.7405213604439571,0.6919818441572927,0.6306816735494287,0.5688782831983383,0.5070748928472484,0.4455168253413282,0.3949085715253946,0.3398885300352541,0.2781019154006752,0.2162985250495857,0.1545274735733715,0.10602840066772412,0.13681002697313138,0.17832758442926533,0.21810054050882188,0.2356719615346501,0.23614849741055588,0.23614857229776076,0.23614857229775899,0.23614857229775765,0.23657820358484738,0.24964191157751614,0.2538241818724689,0.23473444929174114,0.197041414148035,0.19340697342277302,0.21284608415231165,0.21788919476915591,0.21403652946577845,0.2003325187288989,0.19966740438217112,0.19966732278864718,0.19917730597219174,0.1858732312543725,0.18143489889112008,0.18142756706099572,0.18429218345695153,0.19860301573073658,0.20572538232410853,0.2175968922893068,0.21736414417807248,0.203483293942599,0.1859109668098422,0.14804889902747842,0.11601200113784182,0.08983092301135454,0.06330403102714843,0.03841878241485919,0.03577191350988329,0.0514349131561902,0.07222145600209817,0.0884568774265122,0.10402150196565918,0.11923688241827124,0.12733475946817752,0.14112892375059616,0.14494094850080597,0.14494565250877933,0.14494634549486118,0.14763611327917125,0.17535228165144723,0.21637289976209306,0.25768777088637584,0.3036665039309807,0.36458388705688227,0.42623481162501076,0.4771599355653815,0.5318001880897931,0.593556720317642,0.6553560626348096,0.7135515320829096,0.7613936592224788,0.8225295580492777,0.8831817310983348,0.927904276013094,0.9451572248471347,0.9112617049693585,0.864541951171971,0.8038596776973641,0.7420565455394761,0.6805581670959113,0.6305647433465147,0.5748722917129987,0.5130835557979894,0.4512801654468994,0.389479022507504,0.32986562987505774,0.282842071078238,0.2228618244475582,0.2007509093327342,0.2540306977550131,0.2867022793290075,0.2908522899347332,0.2859042629769668,0.27300050073545634,0.27262974021327313,0.27262974021327135,0.2729286269047626,0.2887594833957938,0.3080922010851035,0.2967120311731053,0.2572320292225836,0.23788150431698352,0.25253577630757906,0.2543835559637584,0.2510102684252531,0.2369460419175451,0.23559882171009638,0.22192181279660206,0.2220529303955896,0.2356166829376165,0.23614884613895493,0.23747598274962956,0.25229372974868003,0.25438715450339444,0.2543891484314251,0.2540936406680574,0.24008160491355834,0.20948779941268114,0.17197555038406342,0.13662942565152614,0.09992426126420684,0.07242260547585655,0.04494157828814638,0.02408627761421478,0.039711242735254615,0.06032704047663584,0.075864295778731,0.09540926644852155,0.11138416508124793,0.12604629338939288,0.13883011692834435,0.14491520937314117,0.1448555531924547,0.1352589748302928,0.1267650418382411,PM
0.23845018933049644,0.23848530109251165,0.24783624562803386,0.26664422272305544,0.2908708776861184,0.32936063536475757,0.3820108741918329,0.44889407010588034,0.5084607813759741,0.5824655728117687,0.6398529603293408,0.7150466587251909,0.7801443240357742,0.8449969146677176,0.9061967115278122,0.9248566285555251,0.8887889901664927,0.8294515433939535,0.7646152993889626,0.701886293233791,0.6345417953287624,0.5577732169143328,0.4982040062245625,0.42747220880612513,0.3503890422736493,0.2862659314568061,0.25498021361104595,0.28250651216413925,0.3011329773253131,0.3123419131624301,0.3090143938422152,0.2889922113904131,0.29714509504246145,0.3104568966224681,0.2840060626918248,0.2477305408191901,0.22992452508156624,0.22918772982675417,0.25471019707529674,0.2799275244410291,0.28773501416979563,0.2877378043119325,0.2803997225302659,0.26351691688048895,0.2631059724178604,0.2631059724178524,0.26310597241784617,0.26310814582625053,0.26692963698902705,0.2862747621740942,0.28738099821720375,0.2707767098440437,0.26311249264304415,0.2630010291761522,0.25010143091404213,0.21815874427145587,0.19782777080338132,0.1581497534714278,0.10940066461020015,0.07035653498734984,0.03178079562323877,0.0,0.017556793429496675,0.03946123464665563,0.05389752185248531,0.0984417023466535,0.12091738499419113,0.14585288740000513,0.1640421431122805,0.16729213868399873,0.18783194919000668,0.20775471943624613,0.21861685600179204,0.23757617402139708,0.2544830024931679,0.3007091888086313,0.3399554427741638,0.414329195391951,0.4908233291613806,0.5497844267128835,0.6214446957491688,0.6928390771493014,0.7517932875814912,0.8282214756130344,0.8889015356480581,0.947732143039218,0.9761614099286051,0.9603278039414063,0.9041550286478008,0.8444576398342445,0.7743705602663944,0.7083223155426985,0.6443469254899181,0.5671939638302606,0.4899659181583358,0.4204862992597098,0.3597615969503991,0.28288223135767865,0.2308691621835477,0.26042328522844027,0.26310499438388923,0.26310597241766676,0.26310597241766054,0.2631059724176543,0.26306528037134047,0.25230655935641444,0.2184346654298528,0.19398317390645126,0.19296880795153637,0.21680732145250392,0.237290822417215,0.23986288851469162,0.2766938825781775,0.3089121456604689,0.29293671264155297,0.28782937093905137,0.2985703268192488,0.29694904692487434,0.2879177536394959,0.3018128866079719,0.29391158192475064,0.28780208344727765,0.2969490469248486,0.29857032681921325,0.2878254588038658,0.2877605601304225,0.2851265483237153,0.2640583430064618,0.240354621349276,0.20189004421752355,0.16324465099856056,0.12464393926792416,0.09154443718374639,0.06009040247995712,0.042810647897213006,0.06485583732916922,0.09051549080495302,0.11617666566662432,0.1419080315675938,0.17466327155338446,0.19008040746524735,0.20995138502235733,0.21394225409532375,0.22976852694671557,0.2389159676905095,0.25624751921052624,0.2751113260932252,0.3204246270742086,0.37632245818947574,0.43252483196112923,0.5045829542720126,0.5614465460988249,0.6362312431792345,0.7127253769486641,0.7716864745001679,0.843240169174833,0.9066355997654894,0.9665513689406984,1.0,0.989594533244488,0.9379664607260647,0.8797112317868248,0.8320992856072866,0.7566322526189051,0.6965229413089409,0.6263617576964586,0.549123056715227,0.47702091985320205,0.4184125432532584,0.3420321976668159,0.27638077502179836,0.2839508357598062,0.2942887658995561,0.3119757549327691,0.31125860636119285,0.2922616640460296,0.28776479827666535,0.2874120547546237,0.27093550982356707,0.24276669127460782,0.21540678037148542,0.23061934787861205,0.25571440796450773,0.2630820212238989,0.26310597241734257,0.26310597241733635,0.2630680705131647,0.2535510773205658,0.246251343640691,0.2627256498108732,0.2631059724173088,0.2631059724173026,0.2631059724172955,0.2631059724172884,0.262633784242297,0.2446407077957531,0.23832005775295695,0.22601795080255815,0.20757617112394033,0.17310435614320774,0.13484557143129994,0.10417764992035172,0.06450109796512216,0.03896719199516774,0.034554846064625,0.05119581796967365,0.07678166521085172,0.10256237147947633,0.12055541681141957,0.14535073486448935,0.16580558455357686,0.1866674465233742,0.18919170923702477,0.19966764579086593,0.2180671014577733,0.2384042272021123,0.2652455472218982,0.3039579717683054,0.3528576275027433,0.41302007014686914,0.47998424544545326,0.5427925384705024,0.6149549372236578,0.6733868733509754,0.7495069199507967,0.8113512507124216,0.8712571336346473,0.9179378055432359,0.9019711381987152,0.8562534185853661,0.790321306845045,0.7296362451666294,0.6622287605217441,0.5999379243950873,0.5228263448970969,0.4511612943623051,0.3922001968108004,0.31573559451910604,0.2508110724476591,0.26590831016569183,0.2838853358747313,0.2667724931714126,0.2854220485039951,0.27420213140581584,0.2641035532854472,0.28303898134576766,0.28731297884522,0.2695895006233,0.24859067101136034,0.2238285238355875,0.24161926111182552,0.2656158657286367,0.2842951338399713,0.2655768230371329,0.263106407098757,PM
0.1255368326706956,0.11587319931952211,0.10130161298306328,0.09425914832949522,0.10680032848469456,0.11510102405522771,0.12130273423068338,0.1253350974385099,0.11821022829091854,0.11710597760309627,0.1170728708568387,0.1134893306183078,0.10813431601210133,0.11264171265343514,0.11728953789425733,0.12356197835064409,0.12625227564287922,0.1262551255008142,0.12405533392823886,0.11685735584265888,0.1073440307430853,0.09271630394080543,0.07335178889552352,0.0596525915272752,0.04756548388465531,0.045891872411772505,0.055355281306682436,0.06198494790016085,0.06673087192605176,0.07130579852128194,0.07584744278291833,0.08763868497395122,0.11023335346118568,0.13987496045024939,0.17465836951524105,0.21481654984523568,0.24867580455653426,0.2865536184633719,0.3203252972802688,0.3592048313674525,0.39295370684389797,0.43307203802625693,0.470457955782033,0.505823650119787,0.5465479910107416,0.5874153912766811,0.626661497808118,0.6533471463599765,0.6829063375557689,0.7234250389326873,0.7641559891509846,0.7993400288350252,0.8369013519407684,0.8777463094032274,0.9173660906396577,0.9510380328684256,0.9849308269989037,0.9903889767164984,0.9615905404074481,0.926926946357131,0.8891501407874813,0.8482983183640498,0.807428064552093,0.7665578107401345,0.7256875569281782,0.684817303116221,0.6439470493042634,0.6030767954923066,0.5622065416803488,0.5213449862930382,0.4827897755627433,0.4484306417095434,0.40788362372781783,0.3670142656321487,0.3269996118594838,0.29332955345101386,0.2535612859356835,0.21400591948000836,0.18056025448566038,0.15434451982340858,0.14359070038977206,0.13589548851469146,0.13473264439172938,0.12493675177657981,0.11094840578046106,0.12104859693660686,0.133926251833121,0.13514278688903691,0.12868460925110692,0.12626869241165695,0.12492849187337485,0.11757329417969542,0.1105847971546754,0.10446950003668065,0.10255194201123197,0.10793171735408458,0.11344578059747779,0.11707051205688801,0.11613259398968201,0.10740960383207265,0.0984563424509679,0.08713831039643583,0.06722731568352791,0.04578109810202102,0.028458565944736725,0.016205797119956067,0.0024369188214956594,0.0,0.006759410305874791,0.009009881292524113,0.016282116512487788,0.023591074014186697,0.030948168133297704,0.04830478759972223,0.07666390412490909,0.10729933855305185,0.13892843135172628,0.1752588896844378,0.21005974713102815,0.24599631486720464,0.28249659991362486,0.31873110283866923,0.3551471626121556,0.3955414911473143,0.42963065680147694,0.4685487343631263,0.5094128043309687,0.5501893795269042,0.5860173952873791,0.6229095923608987,0.663735722283499,0.704605976095457,0.7453437817342994,0.780622653461075,0.8180853987859857,0.8589287978493145,0.899374137936009,0.9334504116504772,0.9719686505482856,1.0000000000000002,0.9887821615216772,0.9564585233214571,0.9171427912142727,0.8762754077484913,0.835405153936535,0.7945454006652712,0.7563004963014113,0.7216976334349374,0.6810822359840036,0.640211982172046,0.5993417283600886,0.5584715466971368,0.5179206962182024,0.48359665950734043,0.4450138904595564,0.40414855659560067,0.3632798174277654,0.3237474634331696,0.2899861585692103,0.2498258952048431,0.2096910846683917,0.17642385386281223,0.14837301596507557,0.12716753173828343,0.11803166026069634,0.11677647067155084,0.10960290849135901,0.09789477324834484,0.0806291091560174,0.08204104756162334,0.09697792818357698,0.09881383328341564,0.10261733205327683,0.10783416217228736,0.10794695878002658,0.10794687402245695,0.10756471469459505,0.1009070471197051,0.09880066673582455,0.1012390147451867,0.10923681366427718,0.11652282142284687,0.11710486260407404,0.11694998690137393,0.1111026346332118,0.09855258660543864,0.08214377215389534,0.06041589713242024,0.042392571533097057,0.029378773291566906,0.017357510238761753,0.019770729032530854,0.026483877853076265,0.03383498371440963,0.03468394365021332,0.03620293849641243,0.048343203385762035,0.06973178325791385,0.098771842407406,0.13181988614183204,0.16537154512242802,0.20176233348495853,0.23621056488268155,0.2706345029253687,0.3081203846309841,0.34187696155048375,0.38138053599841637,0.4218830947679264,0.4560891894732564,0.4948392437359639,0.5357014982574679,0.5756553162474556,0.6093598639256876,0.649155782151605,0.6900248486370446,0.7308951024490022,0.7717653562609594,0.8126356100729166,0.8533986159238698,0.889029720952234,0.9261067827579843,0.9630301386998263,0.9736070554128096,0.9486884594988829,0.9113001195038473,0.8765615141711558,0.8359079514350822,0.7950376976231255,0.754285207865897,0.7186749435762294,0.6815575590039085,0.6407147796705919,0.5998445258586389,0.5589752272752615,0.5189942079149097,0.48713136286618086,0.461010109671359,0.42295996503663,0.3830274454880185,0.3549970866438723,0.3193949019155331,0.2856824134580267,0.24608887717579986,0.20532566313614842,0.16965648282097323,0.13812764219538454,0.12150836107223983,0.11713419682311188,0.11559167273104509,0.10440762069803067,0.08943207649006579,0.08719925940345274,0.10391921123231995,0.10792347669795244,0.1079469587800106,PM
0.114753310275308,0.14298374199063302,0.1663035109485147,0.17573604153049827,0.17590200295967007,0.17863960246122845,0.18704545625236202,0.17787085262617675,0.17408510957503198,0.1548551003844323,0.1324146856024555,0.1110741739672223,0.09860426219068819,0.08582306128868789,0.07527065630112606,0.0656385419797636,0.06996141158854252,0.07478319355209084,0.07089042448628757,0.06467615349671196,0.06278607152614102,0.06640934523100683,0.0848951395738684,0.11947403163316661,0.165715870775772,0.21138792243746485,0.26031460908067006,0.30761857220638467,0.36193062448051716,0.41605603083932996,0.4619396826312907,0.5127797401903598,0.5672369280412553,0.6211924105325393,0.6663753460718707,0.7180827033484172,0.7725434686916386,0.8270125194543385,0.8814815702170384,0.9358240495231116,0.9823266899810741,1.0,0.9704732600494719,0.9268866821531851,0.8731014791638976,0.8186327247632548,0.7644900831458239,0.7187542853107263,0.6677819367962692,0.6133262433852806,0.5588571926225812,0.5044402323315489,0.4553013459977526,0.40789348691273775,0.3535508297894303,0.29940818817199943,0.2536724199731082,0.20295011996745904,0.15971817288827506,0.13986217609082097,0.13819013956778248,0.13822067840759678,0.1445502447558229,0.16146512916705102,0.1575443636545173,0.13362522621942796,0.10023275157725342,0.08119070224592129,0.09802579093021624,0.10047338339215495,0.09938345805329041,0.08945360466263219,0.08791101578679772,0.08790931096565435,0.08733987069211713,0.08159098829389055,0.08649125625036902,0.07630084827489636,0.06527191225486417,0.05414384883832346,0.03749025893810898,0.020906000668066138,0.012592052670342246,0.006138573325958019,0.0,9.453524910574274e-05,0.008059900622163108,0.020372667522210453,0.05079574897285344,0.10208442956163255,0.15040656230648608,0.19859573571634037,0.2526488785511427,0.29853253034310256,0.34937258790217207,0.4034862498940024,0.44936990168596314,0.5002099592450326,0.5546539082890387,0.6056262568034958,0.6513620546385921,0.7055046962560225,0.75984735337933,0.8072548568298759,0.8551854581242813,0.8870567880022455,0.8721083194026877,0.8228316945673866,0.7728650379453916,0.726280669900802,0.6719852211296371,0.6175244557864166,0.5658170985098696,0.5206341629705364,0.46667868047925287,0.4122097482613749,0.35789769598724286,0.3105936735891155,0.26134057780064124,0.20690335579201813,0.15268529485731408,0.11056657099133327,0.10585650110358324,0.11340565009236503,0.12302650226446499,0.13649005982661588,0.15636019939640766,0.16214689845532604,0.14681850301410737,0.11416340884289689,0.081975424817057,0.08616560914807181,0.09986461395589208,0.10116282113940489,0.11083706823883688,0.11304701148326624,0.11502340433289682,0.12477461158787495,0.12353172711795501,0.11982449427167996,0.11438431468241506,0.10572855082403043,0.1005109799372792,0.10048079673192589,0.10202338560775415,0.11195359463287557,0.11416195781771199,0.12372343820036003,0.11800954721902723,0.12490213064024225,0.15105257513128345,0.19140794294573737,0.23936086547290092,0.2839758199731959,0.33661882812280153,0.38320182864291885,0.4331913005893515,0.4874548319411902,0.5340391999857794,0.5840286719322125,0.638465805275588,0.6928552741819578,0.7402206277155776,0.7715925757207907,0.8186876321529164,0.8729753818863899,0.920351086219064,0.9625650600105815,0.9712792303717417,0.939290380096443,0.8893119976795711,0.8434285829772552,0.7893031766184415,0.7348346409696447,0.6812043797430882,0.6364913627073436,0.5839938783223029,0.5295277037501798,0.4750586529874794,0.42058960222478037,0.36612055146208045,0.3117237642233901,0.26369213405221226,0.22366855481584702,0.20193105082237794,0.20662906396690683,0.2224018324473631,0.23047491313845248,0.24410976397535133,0.26335589296730566,0.2663906853632434,0.238339577829231,0.2024098424548928,0.1800566448397638,0.19037295494674344,0.19961495917308847,0.19115752944209508,0.20407616513809446,0.21344562145558843,0.2142908496464555,0.22339553792753053,0.21960467466594924,0.21472041415498078,0.19463378027715894,0.17645531886460208,0.15863232881769251,0.1490692429503282,0.1297164798128656,0.10838122332044042,0.09895142901600806,0.08813103044164272,0.07083643946473406,0.051873472384265096,0.050204549141450006,0.05235223806675027,0.07316725617012709,0.10661653654816661,0.14916783671036793,0.19465605578344247,0.24464434932104284,0.29839799052547367,0.3431928830973545,0.39545486680619923,0.449887291979052,0.4991403877675249,0.5464444101656523,0.6007564624397848,0.6548818687985984,0.7007655205905574,0.7516055781496274,0.8060612686328228,0.8589877305196909,0.9035227914231032,0.9537157719458427,0.9751614435982296,0.9399410315912182,0.8893122347691289,0.8434285829771655,0.7893031766183563,0.7348341258556541,0.6803733605124309,0.628666003235888,0.5834830676965539,0.5295275852052677,0.47505865298739414,0.4207466007132594,0.3734425783151307,0.3241894825266596,0.2697841483011554,0.21979561767390843,0.1743797510334626,0.13872355838257766,0.12597873920075875,0.12759318527799213,0.1373443925329707,PM
0.24553808013428657,0.20877460462947894,0.17352769465518714,0.13560451005741392,0.09850151893838488,0.05818788463266866,0.0377759564397504,0.05445386769190064,0.07653105282011552,0.10544232883951787,0.12965469793926632,0.15092748054396043,0.16900618319025273,0.17561035957260174,0.18700425157700273,0.19440202440209653,0.2021060315719616,0.20221624540624816,0.20343979744424345,0.2174812696380264,0.23551550901452867,0.26026728069752014,0.2913347614708881,0.3325394209195722,0.3827528627350616,0.4242753872468601,0.476081437882256,0.5286120253918178,0.5727983954323905,0.6201315864723203,0.6725598743002106,0.7160704336630257,0.7641310638671093,0.8168134414088786,0.8663544727089008,0.9086712073806074,0.9607590784544886,1.0,0.9874809774932398,0.9454695491112637,0.9031357514946712,0.8507919016374412,0.7996892916906604,0.7581979138006751,0.7067737647803343,0.6540724713739094,0.601444268935829,0.5552920873101952,0.5127190876289163,0.48127058597138817,0.4328867825189566,0.38865007752868275,0.354644011988523,0.3047640630358601,0.2636296279661918,0.23420419041059803,0.25133090842924277,0.25850002491004087,0.25872671482914056,0.2676623366574682,0.28761286925885354,0.3003481123179177,0.29368984273565646,0.27988403480481194,0.2586487680595977,0.24640902558068145,0.25673229730283875,0.26616273045709304,0.26072866340494105,0.2585656838132673,0.25827954552595456,0.2504255476957469,0.25739410611531266,0.2570069246020057,0.24795925422717868,0.2577553776992447,0.25378762979462755,0.2507831566526768,0.2553603728588043,0.24493119157026122,0.2444767763512301,0.24410266209907538,0.23434340221446215,0.23039946236677578,0.2303899327028569,0.2311990368694694,0.24270056241624705,0.25958873288462314,0.2800669920505099,0.30529939377760984,0.33118686061173586,0.3422221447637801,0.33000223478635027,0.30528877341081984,0.27034888863278006,0.23212277950636073,0.19539227562340367,0.15998269111333308,0.11724255921046556,0.07562056202613832,0.0316320863061601,0.0,0.0007160649876158942,0.026214001981593515,0.05256421785663834,0.0789147383306843,0.10526138699751408,0.1281533758418787,0.14161907097646242,0.1546693315700174,0.16401179581502623,0.1736958194183913,0.17404255810936142,0.17455424572971623,0.18660393865256975,0.2019215369258096,0.22095646516358292,0.24729046455962633,0.28226529482002505,0.3240428670461726,0.3726962465829753,0.4170840272228671,0.4635486245910152,0.49914419832022006,0.5360398840121667,0.5801281091773922,0.6326936145427058,0.6844298152412502,0.7260645078792263,0.7767122109183338,0.829412242902742,0.8820873362649455,0.9296446155147127,0.9716940861944328,0.9881170942074564,0.9541646162260529,0.9115371856667038,0.8627150716096152,0.8101180814392688,0.7646745664758394,0.7186609723045199,0.6660048565817598,0.6133034885796613,0.5606088553443711,0.5107135306274921,0.4687325000973708,0.4170934891247482,0.3801397388689618,0.3392216950385323,0.2866691041337823,0.24051851957036385,0.23592355287650246,0.24599272995527555,0.25744020292717273,0.25954462218207297,0.27289167706608586,0.2860060757979328,0.2861705073437504,0.27412404212742203,0.25872663859879363,0.24083365269578483,0.2411433173912374,0.2444668768003253,0.24447677635109688,0.24447677635109288,0.24451253981070709,0.25127222337929567,0.2673053001002743,0.2536171059581891,0.2446435244147538,0.24447677635107512,0.24447677635107112,0.24447677635106801,0.24447677635106446,0.2444764220216098,0.24362248351893978,0.23246803853378006,0.23039179759453887,0.230391200829144,0.23207339918391945,0.24467972983659791,0.2580275681376345,0.27673371575672734,0.30265802382328877,0.3231679694570673,0.33973068124305383,0.3233021099092741,0.30221708217799703,0.26836271882433804,0.22914758796797186,0.1938654851925179,0.1586589846696458,0.11869336269132891,0.0706736401281951,0.03528037784443905,0.012026923471757378,0.029338633484744747,0.05214784987076282,0.07840794535517981,0.10218681341910019,0.12986367592684855,0.151061751327648,0.16165171165054337,0.17691031763723508,0.187741145934468,0.18812940175755433,0.1885554418607711,0.19905046739884025,0.2024279912429594,0.21377019224397387,0.23453828231678697,0.26394050300538163,0.3045144304959013,0.3457197293733465,0.3960107161710793,0.4383817320589265,0.48769151597384974,0.5403693617618561,0.588868046305584,0.6320186122383329,0.6844006171106352,0.7365340694304785,0.7784900653012761,0.8284244260716189,0.8811192454706713,0.9337157121970132,0.972795513411004,0.9663505226799125,0.9266133074421066,0.876971465484679,0.8349904349545567,0.7828427950768106,0.7301974934370663,0.6835062611984664,0.6387135851679955,0.5861241667167731,0.5334227987146738,0.48072295289402867,0.43009576555578777,0.3884545586110848,0.3367041703546354,0.2840206405182717,0.2401829872585739,0.2457677248982426,0.25859434040289786,0.2700337531676369,0.2726820976568938,0.279633911565635,0.2985495343668849,0.3001309680553548,0.28453610814719665,0.268990537951991,0.2525032488471819,0.24861532612571002,0.258209372273265,PM
0.0,0.011761199229149755,0.04361273831132406,0.07044188127348616,0.0971309976666963,0.12714341408577545,0.1371142327091288,0.11312154856608525,0.10207443039359121,0.13151788986843727,0.13223833752357228,0.1311840797815187,0.1179406135293235,0.07981285464387544,0.04020745302967099,0.014367820586184132,0.004051320866340635,0.02423596724173871,0.061400253079625156,0.08355300747668393,0.11973533091938227,0.15687642040342897,0.1740265681970583,0.1871315223949226,0.1911665932341775,0.19117464746994828,0.19117464746995072,0.19117464746995272,0.19117464746995494,0.1911769238576868,0.19336042123944064,0.20255430424014476,0.19657380227387433,0.19121002671942855,0.19117604694468904,0.19262569800977491,0.20236439717502264,0.2041595046837974,0.21383344545791605,0.22109257830201412,0.2368566687625555,0.23910736650026188,0.24665657549043662,0.2624255255139232,0.26331906035826713,0.27260167583881567,0.28482082948941523,0.2884174244291,0.2968326383295101,0.2879791555934297,0.2869610025497831,0.2829254091488176,0.2698255902711799,0.2564268016057121,0.24335163742670796,0.24012704945429175,0.2542639023151454,0.2724898190456204,0.2848194720673185,0.2872656380453855,0.29594962537956504,0.2935727715040073,0.27969377278249663,0.26050262251996337,0.25465593723310986,0.27250408505477397,0.3012594062347087,0.3317970009365536,0.37118738239842286,0.4110081193435675,0.44433540770443414,0.47898544245385843,0.5187762419416406,0.5521035303025068,0.5867535650519324,0.6266376910051952,0.6665294969985915,0.7022217851981243,0.7345173900457771,0.7743199330840358,0.8142340525648037,0.8541481720455717,0.8940399780389672,0.9297322662384999,0.9620272784367614,0.9999999999999998,0.9968708537274302,0.9579248126078912,0.9180107632147998,0.8780966437340323,0.8381825242532643,0.7982684047724968,0.7584658617342377,0.7261702568865858,0.6904779686870539,0.650586162693658,0.6107020367403939,0.5760520019909701,0.5427247136301048,0.5029339141423226,0.4682838793928983,0.43506816747454136,0.40286776907620214,0.3693179062025982,0.3394707911750421,0.3112220230286493,0.28987324296947303,0.27411460628841366,0.2555912456704177,0.2512643373665837,0.2589988767521285,0.2589988767521303,0.2512419818266114,0.25104811709645447,0.25320160693316884,0.2572021901875359,0.25113909708653503,0.2510463492529129,0.2520566162712179,0.2616949394977719,0.26311312266774367,0.26989637525624177,0.2829276855366052,0.28914437377377933,0.29627483887975425,0.28757438602345564,0.29236833774734894,0.2998826064527247,0.3088068741738146,0.3003935402572393,0.29893920243306327,0.2958680424646216,0.2795374269536566,0.27501665391966346,0.27499429837968825,0.27499429837969025,0.27501661186706405,0.2792384431483006,0.2869502842468994,0.2936486918093113,0.29891277654065607,0.2989427700681626,0.29894277006816483,0.29894277006816683,0.2989427700681695,0.2989427700681715,0.2989427700681735,0.2989427139980343,0.2984140088693372,0.2861831025966475,0.2710197914779704,0.2539282219494934,0.23830354528599051,0.22797839154140842,0.2401647685567192,0.255060891248319,0.26830769696704326,0.27491854628492374,0.2720311472187191,0.2630545868798513,0.25204093881878165,0.23000133426815017,0.20641159993062352,0.19564261995668364,0.21658078164120576,0.24582505335391924,0.26825701152415515,0.29913813390695565,0.33024494606056076,0.36720083943750814,0.40681105005571605,0.43801306865863343,0.474969004088188,0.5148781564591551,0.5547830282146438,0.5914914361516461,0.6229088585344147,0.6625603985379971,0.7024745180187633,0.7423886374995312,0.7822094305148182,0.8155367188756839,0.8501867536251091,0.8900708795783727,0.9299833893213874,0.9672067190906943,0.9587933851741173,0.9289741674265171,0.8900703570166575,0.8501567600976052,0.8102426406168382,0.7703365753718392,0.7344275332028196,0.7022783628833429,0.6625603845204628,0.6226481590410635,0.5848762966758001,0.5542217473196953,0.5148781424416244,0.47548783106743175,0.4448383795723727,0.4071096374571901,0.3693400514796561,0.33869355635932075,0.30338496625036093,0.27650491785970277,0.24644381146115335,0.22454300619248224,0.21002659550989766,0.20324194344668123,0.201823760276713,0.19218543705016233,0.191063593589353,0.18344267641069267,0.17707858801395449,0.16778865016615208,0.1632112343380201,0.1533039579735509,0.14384824673100116,0.14327777418091392,0.14330005963321701,0.14782310905494334,0.1663464696729413,0.18190896523611522,0.19545514049681167,0.2120483915551059,0.2151181520488301,0.2151584984080972,0.22061565649816806,0.23370672760324251,0.23904131696888764,0.23774646780944098,0.22810814458289053,0.2270978775645891,0.22719068146835775,0.23377751258826085,0.23904159731960584,0.23916491731259315,0.24575314790721925,0.2525022629531115,0.2676342647087362,0.27492474465910255,0.276480728169082,0.29158273639720234,0.29889413036021706,0.30318919122461363,0.31298932325565065,0.32022335262097035,0.31178646226796825,0.3198981671559027,0.3175935958628211,0.3124613829178049,0.3221043530720238,0.3207469364469915,0.31148981092048267,PM
0.14273115332742847,0.12422982721390685,0.10140070108811372,0.07718373278355273,0.072525673192251,0.07252525680492905,0.07252525680492727,0.07252545321403936,0.07458115958535316,0.09682386798346876,0.0990603072308831,0.09958050020491527,0.12182129549934118,0.15859919877243556,0.1951053185971423,0.22454134770316792,0.27358358292147145,0.33223636271867285,0.3899686937248896,0.45805073979496225,0.5121981968223253,0.585499648173581,0.6500520783381276,0.7073848812569148,0.7812663404696725,0.8508478304166189,0.9007642868769992,0.9404463571580628,0.9449488049264234,0.8934108786764838,0.8362196791636762,0.7874210278745855,0.7459075736147538,0.6866993393943304,0.6288478589107198,0.5564376376007578,0.5034503760305729,0.43332640779714904,0.3688937943320356,0.3195800008317544,0.265132246152862,0.21856081684252526,0.2052389426812633,0.20520983077948607,0.20999147267413232,0.2305644658255508,0.22687663192394147,0.19434285635647974,0.1570558934255999,0.12097218792470876,0.12353027461982347,0.15284299726051476,0.1836022588565518,0.20472311216143702,0.2052093674721993,0.20520940391700027,0.20520940391699938,0.2052094039169967,0.20520940391699494,0.20520940391699316,0.20520940391699138,0.2052094039169896,0.20520940391698872,0.20520940391698694,0.2052093377925832,0.2041774689207312,0.18382639315759253,0.17867404652044083,0.17867257449455654,0.1785353838555661,0.1652282889059533,0.15231181749269673,0.16821285770715644,0.17859957683721017,0.1791162035477507,0.19805291649259438,0.22411481175987635,0.2606823585925513,0.2839297127891749,0.2848153650843086,0.2805325045985576,0.2586975372788842,0.23921027113122584,0.21496197633324599,0.18968184988213999,0.1563359570478502,0.12912814933497607,0.09896860337686242,0.07542809871865774,0.0725255247941643,0.07252525680483846,0.07251616145602213,0.0644773755415633,0.0463668571727025,0.04598842738241071,0.045988427382408936,0.04598842738240627,0.045988754730927894,0.04961214781670975,0.08070964484000154,0.12391129517164323,0.1737892769666214,0.23135853103082837,0.2921740922996241,0.3476666664082426,0.4141275095701378,0.482835885596149,0.5367185199468887,0.6098700974327302,0.6837387283199252,0.7409994698168711,0.80497839824314,0.8536825067023228,0.8672969625916211,0.8313846803011353,0.7777210105612493,0.7179081245210703,0.6684364313462376,0.6142181025680804,0.552030666732497,0.4929417031139929,0.4267527521101817,0.37095060642291156,0.2973414343418952,0.2342467485615467,0.18459795007414392,0.12964829199962402,0.09951142030635651,0.09906221629371448,0.10033318365073551,0.122390157747013,0.12558947319498337,0.1186940857817751,0.07367273096314708,0.03394899992663358,0.0,0.022616247705144588,0.05517478467622272,0.07233463519101324,0.07252525680479849,0.07252525680479671,0.07254630709207355,0.08271730419800516,0.09886251085957998,0.09906208251726323,0.09906208622721202,0.09906208622721024,0.09936910730097548,0.11688055343879888,0.1255729325703978,0.12559891564962555,0.12559891564962467,0.125598881823608,0.12516208038886223,0.10635363717979818,0.09907368966107377,0.09906208622719426,0.09906208622719248,0.0991424622441679,0.11428652548386697,0.13847336662865128,0.15201141590405953,0.16086022452290027,0.19538182220506872,0.2102481362194215,0.23071163369812364,0.2420643218396039,0.25803399702579455,0.2487192002315508,0.23013601861702426,0.20186028441586412,0.1742902594361384,0.152803219147712,0.14286353435662402,0.1258469469140584,0.1256176384512484,0.13507634797772283,0.15192079955383875,0.1521273917472632,0.14470004206520048,0.12604254470278686,0.1258531563676577,0.1429218099868912,0.15212488898291632,0.16525152976780255,0.18978795225910172,0.2256860862510477,0.26349477647401276,0.3279015966014569,0.40142492541150077,0.4562112529678899,0.5235994103747403,0.5916524264916445,0.6459386091378452,0.7193475130829761,0.7931168066792695,0.8495440005090362,0.9143279120576944,0.9662032482209009,1.0,0.9955934894466258,0.9429072818457884,0.8909177875566296,0.8258006702542362,0.7851599303335801,0.727397595537087,0.6746681987682344,0.6013365675546671,0.5272417078885256,0.45432333250641577,0.40087308257026155,0.3416590167065321,0.28572455834789157,0.24220003264081136,0.23479359289500668,0.2564229066721655,0.2591208545307975,0.28600820528016513,0.3101201094892341,0.2965566118373335,0.2593577122321049,0.2105042688389851,0.17289775837734922,0.15623802472746817,0.1770899953043923,0.1861742096715604,0.2048127780976472,0.2052093722731252,0.20520940391681464,0.20520940391681286,0.20520940391681108,0.20520979760796454,0.2095990699954653,0.23041674847522842,0.23174626716524216,0.23285210858232475,0.2548410940946395,0.2582796339994573,0.25828306276164437,0.2582830627616426,0.25828398714384626,0.26335427033446823,0.28375020900401005,0.27962505167229956,0.25465289327152707,0.2007646579561504,0.15444764312647763,0.1642198657725853,0.1811893270306344,0.20479333133419697,0.22900714100560382,0.24624614502006903,0.2788385809275642,0.2872824449020994,0.3092461250376939,PM
0.09371729707255927,0.09371729707255727,0.0937172970725546,0.09371710051214088,0.09290611076953703,0.08331808918132655,0.08157751372099131,0.08157694347798428,0.08157709574951033,0.08237064440132813,0.0922845109144732,0.09371602976622695,0.0937172450420336,0.09327995832401514,0.08586124001055118,0.09293379229870835,0.08896498984147061,0.08166740086939184,0.08157694347795919,0.08157688380753969,0.08098799718458727,0.0705908004217779,0.054269857598010285,0.03424938860016624,0.014933296374598504,0.0012154473217405037,0.0,0.010141580792586424,0.020608352114113382,0.031890850470705834,0.0440580825812702,0.05409916393278191,0.05728715029270126,0.05729623628881453,0.05729623628881231,0.05730232926511469,0.060781300776362235,0.07427939250596549,0.09727116748218645,0.12405431755917062,0.15357759327344933,0.1836790099019412,0.22270621756648934,0.2551379924524171,0.2908659104196465,0.3302364968800138,0.3604806284647486,0.3989654355849055,0.43896848495166463,0.4720140138157296,0.5071139640553337,0.5471714061366466,0.5872512054824903,0.6233453398144762,0.6554927312553209,0.6953789546517148,0.7354658935931213,0.7751497508062419,0.8062136799200394,0.8435900200050654,0.8836709993459615,0.9214422155448645,0.9522050326766349,0.9860893187780797,0.9877538208560299,0.9559083534027284,0.9158572815729298,0.8757864944947191,0.8394968144932222,0.8076030533873686,0.7676497492597614,0.72756277778283,0.6874758063058981,0.6473888348289667,0.6073018966778974,0.5674917882478545,0.536128509594211,0.4991761934747365,0.4590943310388669,0.41900735956193547,0.37892038808500406,0.3388334166080722,0.29874858687992667,0.2609907536989291,0.23021586718910303,0.19062583529403065,0.15053891281797194,0.11045194134104053,0.07036692634305819,0.033538763359179935,0.04200300523896994,0.062324033726174566,0.06937732508612227,0.06947171748310255,0.0749366387014585,0.08149001668196298,0.08281928111511827,0.09264193083104155,0.09371488738018963,0.09191316205369904,0.07950105947472252,0.07578476767072506,0.0847906830492593,0.09345562711774891,0.09371726717136486,0.09368393453940671,0.08828320965972836,0.0816471273077386,0.08131058847146777,0.07266437923466951,0.0694419845829859,0.06943658988330248,0.06943658988330004,0.06943658988329737,0.06943658988329493,0.06954549053861236,0.07733114850000211,0.08137376612170888,0.07368402836213628,0.06944426985191576,0.06948926107552134,0.07553974738326574,0.08165741684434247,0.08982971140676321,0.09370026086535366,0.09371729707238541,0.0937172970723823,0.09371729707237986,0.0937172431977622,0.09323670602382594,0.0810002514696353,0.06564863487877504,0.0469119884453133,0.026889573528910082,0.01072487087048879,0.015849260404193988,0.02889592554452647,0.038501952623160474,0.051692990419958784,0.0572846961154283,0.06236325541802579,0.06906102457937302,0.061580532821261524,0.06826823752632238,0.07532230281617136,0.08120118269732401,0.07254253268488275,0.08125561643687207,0.10691706116092092,0.13381355285691887,0.16441305715504306,0.19750164813217808,0.23008161811001138,0.26554094665552963,0.3049749955283354,0.33534895197458336,0.37363745262111525,0.413168220611253,0.4437659519767059,0.48175829662926484,0.521843295892177,0.5618339621135169,0.5944685139360901,0.6299889851144158,0.6700508282053437,0.7101296436159439,0.745745367802713,0.7783358441732542,0.8182583685535998,0.858316052259843,0.8931332908815457,0.9264812995512428,0.9662736930492892,0.9956255411322577,1.0,0.9766872982453529,0.9375192919699606,0.8974325096469356,0.8573455381700046,0.8172585666930723,0.7771715952161422,0.7370846237392095,0.6970038988973526,0.6598595424256652,0.6286184581674941,0.5888770914260415,0.5487901199491096,0.5087031484721791,0.4686161769952477,0.42852922040298935,0.3886371420091841,0.3564182852570963,0.3204013138517583,0.2803216732051479,0.2402347017282156,0.20014773025128463,0.16006078129894696,0.1202027047000307,0.08887207497428307,0.07864259466934875,0.09060145682297982,0.09381464879030643,0.10151305462050919,0.10589523020542835,0.11221458426475595,0.12155931328465863,0.12989195011506505,0.12638515406422846,0.11314985708857739,0.09655159472778685,0.09601989306875058,0.10613239754139991,0.11656002690812617,0.11848160590717693,0.12772763911592566,0.12611340751607258,0.12621734585220556,0.11837005477297247,0.11799801005720534,0.11798551103203447,0.11450567081695517,0.10607003761673406,0.1058485646707199,0.10266597671363531,0.0968682572585231,0.10554795893209867,0.1058576099644899,0.10585765066682518,0.10585765066682251,0.10585690088769661,0.10472530443869621,0.0948520486560065,0.09371751046315135,0.09371729707225285,0.09368563815585018,0.08846878156166049,0.08165266746488742,0.08225256500017597,0.09207950959141242,0.09105088619636303,0.08176799524189815,0.07313507665270813,0.07402075000647268,0.09267060516769576,0.11194644792833364,0.11788637579596095,0.11146338410291223,0.10192232986316752,0.0937862708023034,0.08678656439236487,0.07125060639016789,0.06480888867961321,0.0588976045327716,0.06850108360907448,0.06943617917350431,PM
0.18293114621305728,0.16625311312779745,0.14208809160167446,0.11990111191222297,0.09545049201404998,0.06989726154390707,0.045573040678565824,0.021718102893593216,0.0,0.0036692516600496106,0.02377240970174921,0.0461347161770993,0.06764322369362263,0.08908792862966908,0.10868502506900424,0.12363125022787458,0.1340913811461204,0.14161349312669103,0.15492421845646143,0.17654626173934695,0.2048404626133682,0.23467778625763458,0.2677931662220243,0.29769963722541637,0.3243517150141211,0.35839606329306695,0.3896226402882941,0.42440168240189746,0.4601845069235091,0.49596969885691666,0.5317548907903245,0.567540082723732,0.6033252746571396,0.6391104665905472,0.6747905026993164,0.7070834230576803,0.7404390548016697,0.7761960094117559,0.8119754804737769,0.846319019784673,0.87779121384762,0.9132815581823293,0.948738489023514,0.9793303949136347,0.9959038245461156,0.9767511277603524,0.9431623673549849,0.9074072766823542,0.8735340157059626,0.8417094830742604,0.8060921875157603,0.770307006359674,0.7345297771850585,0.7003048285701523,0.6687378577851779,0.633221364233151,0.597436271605057,0.5616681047618706,0.5278828759678602,0.49597868555951496,0.4603507287838473,0.4245655368504402,0.38881023650425384,0.3555179879315782,0.3231677139740312,0.287551264813968,0.25491963150099517,0.22391055487687717,0.2084368611889662,0.2101732354864292,0.21792486799545951,0.2283556867544927,0.22611365056069466,0.21214764555842835,0.198734493241981,0.20921645098921426,0.2166735335238239,0.21395590994202318,0.21650053447884443,0.21350367555120697,0.20821796928015446,0.20555627100356166,0.20179631548193178,0.20478423913589716,0.20680367300243252,0.2128612086303705,0.21216401876081492,0.20618747507263935,0.19150571304319708,0.17369683951546233,0.15344066491912856,0.13028586491578575,0.10388730537195512,0.07910164963680333,0.05358199867147406,0.028635548822273482,0.01453490019328374,0.030931053752169424,0.053952547825724784,0.07580867771117572,0.09740168964283857,0.11523443730267147,0.1314764366119543,0.14657552439620936,0.1532201285211845,0.16092247772607482,0.17834506709748776,0.2036177559788903,0.2342682570876733,0.26530567077629597,0.2991701743697124,0.3304971232872358,0.36585537011875346,0.39993451514749623,0.43160322349158275,0.46716587009159394,0.5029510169911962,0.5386775389035361,0.5713808577535266,0.6043024200818723,0.6400365598124058,0.6758217517458132,0.7116069436792205,0.7473815882972825,0.7814543861441245,0.8131286997643079,0.8486469807170884,0.8802512840028132,0.9070717317082653,0.9381247429952213,0.9676996132790174,0.9633637941256856,0.9337673296495745,0.8998519142321448,0.8640798815719903,0.8282946896385828,0.7925547370657646,0.7595516442215366,0.7269317820007473,0.6912091468173738,0.6554239548839658,0.6196387991315639,0.5840489024763051,0.5522512727820019,0.51832536635289,0.4825532386047562,0.4469088418390015,0.4148533694442649,0.3812345996158655,0.3455017964487048,0.31234623476565027,0.2798801704495608,0.24582355800599576,0.21890648213872987,0.2087866513551826,0.21160283452801543,0.21317837077002877,0.2229978999743798,0.21963905226306468,0.20732234148821593,0.19554465492449213,0.2049531695278184,0.21318755613528562,0.2117713790831579,0.21137480666176844,0.20776720687737038,0.20607876272266767,0.20160515465875517,0.1974959367256811,0.1970818329770455,0.20121800837502102,0.2013432693638295,0.1964959186940205,0.18155339186033248,0.16337383952568574,0.14166272962515203,0.11941038185747666,0.09570318684557566,0.07007384086705792,0.04267852178950826,0.018162214972809454,0.0011869111146113331,0.012360544392207462,0.033569660374960786,0.058994342194631844,0.08229384217025393,0.10145514972289149,0.1184929180753117,0.13194128641033542,0.14318304501690382,0.15018662640466252,0.16485900544975884,0.19030049125900317,0.2193127807832984,0.24951756148783244,0.2838323366339406,0.3151647702960496,0.3497228929047098,0.38545791073000335,0.4184442564094608,0.45108932394481616,0.4868037505580307,0.5225885112147444,0.5579072125283036,0.589140855828274,0.6238919549910045,0.6596744853126495,0.6954586976932073,0.7305444620368691,0.7617292190744778,0.7967614456857537,0.8325452200672654,0.8683202621571806,0.9024164290932077,0.9340711242470547,0.9696003420903341,1.0,0.9969196026443796,0.964443308728246,0.928668947304442,0.8928837553710338,0.8571204594159969,0.8235218588486348,0.7914487939538049,0.7557982125498255,0.7200130206164175,0.6842391557531304,0.6502390447712729,0.6185152851747795,0.5829274385349685,0.5471422858618007,0.5113574117237962,0.4759804526328426,0.444642346603803,0.4100530609948776,0.3746894507536662,0.34665571691900143,0.3166586474937474,0.28490953680396025,0.2503116368572693,0.22068006285355168,0.2059793328930375,0.20968374490145858,0.20792202400763293,0.21453082094669962,0.22165461397471442,0.2106835943252514,0.19840240419143518,0.19748629892263492,0.2090991850313968,0.20790893224905682,0.20741823706609774,0.2040685888054432,0.2014593904758164,0.1994340493689316,PM
0.23809829984305564,0.2646169048239493,0.3161866807059921,0.3619902706457836,0.4073204230367007,0.46657378521169246,0.5278157897583657,0.5833573880508225,0.6319830658633507,0.6919732194309063,0.7383514477291642,0.7963127169188571,0.8443256802703991,0.8963062551307113,0.9433742000973959,0.9883598896179246,0.9999548260715181,0.9698808702283137,0.9207608021887412,0.8599058199223846,0.8101215595723952,0.7558244754099137,0.6945853464041463,0.6336284196417963,0.5849190481968942,0.5491801041318887,0.5052866700034162,0.44437383664374996,0.385498420786921,0.3394586353793825,0.2793328712969694,0.23216822847799534,0.2514072789506616,0.24734977919485823,0.2644086977379607,0.28904655818129976,0.2889238996903485,0.27445652846872814,0.2831326069172011,0.29216964114825617,0.2884301413909456,0.28251538668608145,0.2770153911531259,0.23909616935592926,0.2213018215645537,0.24429599415856584,0.25975963877178243,0.2731954537583521,0.2818114689853881,0.29167513124402644,0.2784918525272193,0.2735527879270596,0.2735451127827413,0.2735450358354572,0.2726978771221602,0.26138095404986705,0.27213023082692533,0.260192873767926,0.2675778754154696,0.27321311379529956,0.2609434300323161,0.24673609262833462,0.23636682986023416,0.24516835856302288,0.24153704270385257,0.2361867378844953,0.2361839966704684,0.2405672890679562,0.2537506850978364,0.23998861271631,0.23057009059806077,0.20852434976055578,0.18138372236932776,0.17509391510109706,0.15103008120132877,0.15898846838110003,0.1612532373506732,0.1505220552534059,0.14274758825607226,0.13455242821715974,0.12418514470197639,0.12371437240246053,0.11075313618842575,0.10523600598233296,0.09488248870269,0.09645620269505217,0.09151492407459516,0.08671541129216864,0.08492884587809879,0.07580181374891692,0.11141090009804433,0.15301448070573143,0.20813968289453344,0.25419021675200426,0.3124629844741329,0.36007486252477516,0.4166769215628894,0.466054227543665,0.5192412126271937,0.5552039048348085,0.5897583751380466,0.646014049216884,0.6923407960055896,0.7476953128383048,0.7931733281581517,0.8135250266531262,0.7857845643333419,0.7379745814190319,0.6855913788205696,0.6342617995796358,0.573107809203099,0.5145817499958456,0.4683198051822952,0.40803019438477683,0.3467774613052894,0.2855245915054665,0.2242717217056458,0.16301885190582288,0.10182069414797912,0.049758803225336656,0.019302065818326053,0.041220347374524735,0.06743638403315311,0.0837036191162257,0.07454390528299726,0.08562393299527882,0.07278962956992707,0.08177078449309283,0.08665100740607423,0.07889563188545345,0.05436782487984493,0.018496923416389865,0.0,0.02572176493694789,0.05571979231221791,0.07748415301047373,0.08614451743655627,0.07460373690044175,0.0939631281976765,0.10483864699059398,0.09143004884466155,0.0873561517238266,0.10143153815741446,0.11641571782362758,0.12401818874325876,0.11917120911653667,0.11597639988070796,0.13557797985008557,0.132022049794438,0.10914832746248893,0.12110059991164057,0.12611344002238,0.14117699542887685,0.14275908487834998,0.14275998416383917,0.14328144651148156,0.15686020025059655,0.15922864914475854,0.14993140668998572,0.16110269672509414,0.15655966425019407,0.15850436544042124,0.14927700494060403,0.15970347518112504,0.14705021274658092,0.13100659984793772,0.145209302466343,0.16929849136899744,0.18019820707320644,0.19446118254528688,0.21446117465486836,0.20532962208657102,0.21846139492718475,0.2342681674331124,0.23081920742974038,0.2236716480803409,0.2521940434205967,0.2503786295090542,0.24613180035465243,0.24751990430611004,0.23255244975626832,0.21901756321720933,0.23835826301040752,0.2768161495404886,0.3131370084795386,0.3577551534461567,0.40706163546520324,0.46048964123486824,0.5135974375555388,0.564464514025425,0.6201335501189393,0.6684275063256413,0.7205452659933975,0.7720571084485459,0.8270813440399651,0.8760024778704429,0.9274848093570305,0.9743309439427001,1.0,0.9843710513243233,0.9269921981137803,0.8657502365271177,0.8088602550750092,0.7613479351856047,0.7006666283849854,0.6394137794636388,0.5781898057336976,0.5231890164198698,0.4741700578326049,0.41308589093295556,0.35183499487448433,0.2929171899090739,0.25960043937385713,0.26347408046099163,0.29231341262215116,0.309920698733571,0.3032873302517256,0.3192695223694342,0.32961913956448674,0.34145464509893486,0.3435862881374323,0.3183024942840649,0.29725191225387393,0.277855945724093,0.2768467556342342,0.29565710126937494,0.3076176343715282,0.2937454028391193,0.3065600624212914,0.31106481740093495,0.3229516077691952,0.31938607433570887,0.30899887072001686,0.2988167850452297,0.3130049856245054,0.3282011317837559,0.3241154038049485,0.32738731261515275,0.31973405759970497,0.31490517578043864,0.32183588497658366,0.3177069314988339,0.3290422679616358,0.31692040289057877,0.2971258097110647,0.2928259817586296,0.3062792468976596,0.295609246370633,0.27379167705836194,0.25833119724795717,0.2646288239381045,0.2788232339489971,0.2876855782982881,0.26322908083629537,0.2493725808605145,PM
0.2944755016805436,0.29447345756264687,0.29243291693884776,0.2758208760656724,0.2514646609048068,0.230378169265824,0.22145025803980944,0.22778629293241126,0.2487232909583863,0.2532381965844488,0.23563359574189757,0.22873715517268822,0.22853805282149686,0.21898098753104156,0.21008133697397158,0.19678395111363978,0.19582793002358923,0.19535311519382104,0.1829760687726978,0.179391611685499,0.1793865462947002,0.1794576443344833,0.1875861899943838,0.19576985792509083,0.1958278256355146,0.19578540481354922,0.18907155359954197,0.17950444310010072,0.1775827550868887,0.1640565606192652,0.1530186413043655,0.12672707418388907,0.10613126660985284,0.07964809893261071,0.04818049622306875,0.016635917979484827,0.0,0.01589184633965024,0.04149351903125975,0.055672242195545785,0.07767681997101672,0.0913503582729116,0.10442027736631587,0.1145907956046277,0.1281326613930993,0.1383187716712473,0.17349707857755003,0.21233527323680912,0.25139335748884495,0.2921179493896009,0.33843810477911607,0.38301745033653534,0.436535246860867,0.4778754823896638,0.5181976408443361,0.5538008463939565,0.6020217934161609,0.6468317477844847,0.701529109226831,0.7502562922648575,0.7951800361852741,0.8497186893359028,0.8935625960505234,0.9423058634105441,0.9679547665473445,0.9550757274324813,0.9046774124028376,0.8564015582466733,0.811093770181675,0.7563250929508523,0.708166970848112,0.6627394322267102,0.6079236566428787,0.5529985290728736,0.5021318869246674,0.45912201113088624,0.40765547916921463,0.37711876427204327,0.32767918781485106,0.2799050742455682,0.2354821692435527,0.20299339942004924,0.2102416527680715,0.21298099532455206,0.22568147807419825,0.22869387699399057,0.22423529554846455,0.2105707947351898,0.1937604731971958,0.18314893737233495,0.19511581138541523,0.19582783643417967,0.19661824147377738,0.2095389859901391,0.2122661331256963,0.21226910497623042,0.21226899194916582,0.21130015578615247,0.19838818733822983,0.1895134471222666,0.1795851587905255,0.18733862939338675,0.19575628712167603,0.19635055667110057,0.2084932305913294,0.212264903588383,0.21226926911740618,0.2131869897681975,0.2264354679338103,0.22756765540919632,0.21454929008503498,0.21226342457414793,0.2081195508134983,0.18411881908286754,0.15658427773185668,0.12331698439210959,0.0885107882981746,0.06531701836837334,0.03129450156764069,0.01555690775895302,0.027026625880900657,0.05336980611059561,0.06824585469807243,0.09111540889354286,0.10976723913911579,0.12804093349625978,0.14483987465047043,0.1586195712588876,0.17310667162018767,0.19978955247053998,0.2272668069240753,0.2590654267665169,0.3052924603332259,0.348980727706409,0.39077729764787605,0.44250009604725893,0.4855469786440625,0.536364470703155,0.5912319565504518,0.6384557535178974,0.684800759966198,0.7391628278355018,0.7820645225375125,0.8330786149530574,0.8880056858841203,0.9428151029678431,0.9866180669182887,1.0,0.9802448521737697,0.9388574316511162,0.8936844164026483,0.8406148472684465,0.7991467811621904,0.7454498598884371,0.6908807451399279,0.6475625565818834,0.5970832770726209,0.5421585392794244,0.48722573314081563,0.43353933778218634,0.39171837092145134,0.3388670132077518,0.2852256155396029,0.2459420297566992,0.23931071249552316,0.24521180097997997,0.255090199650839,0.2759434462092143,0.2766257504697762,0.25761585809442566,0.24227888611276027,0.229424569314431,0.2298195445311504,0.2431981240400094,0.24591471829847178,0.25876322826021125,0.2615898827925429,0.26159294299856617,0.2615929429985626,0.2615929429985595,0.26159294299855596,0.2615929429985524,0.26159294299854885,0.26159294299854574,0.2615929429985422,0.26159294299853864,0.2616017311121821,0.2661347108358987,0.2776804634760439,0.2780340999533637,0.27754943259943454,0.2651017302448433,0.259879531776952,0.246400779076549,0.2440103088998118,0.2291870841369299,0.20616873153476378,0.17870821060334618,0.1512403951111425,0.12370208441363495,0.09166029904167461,0.07047199189778608,0.07615286263084631,0.0983361850047606,0.11373595169744144,0.12963729181916683,0.15213409044304305,0.1716267431106102,0.18472459845944256,0.20269236625858644,0.21321414617179713,0.23252861311497108,0.2599556521580846,0.29058644427801594,0.3290432599273556,0.3789690013843572,0.4212261297742894,0.47346361503692114,0.515229672655606,0.5686861849062796,0.6129119741209017,0.6623041135957233,0.7171972967186471,0.7661714249431513,0.8108674760124024,0.8643698666832149,0.9058597680909499,0.9556344889321577,0.9920733172521152,0.992045222979578,0.9544924228117413,0.9115123172866331,0.8623793569576192,0.8204216331892074,0.767887291098615,0.7140732102372485,0.6721426192701636,0.6195287904434421,0.5645975638940639,0.5114452192313728,0.4699598345046807,0.4162373856040724,0.36130735002522485,0.3090017834429992,0.2673358636311298,0.23526830032284485,0.2550325364778119,0.2616474591164626,0.2703465378440484,0.27515235485538714,0.2620998595156676,0.2507655566937448,0.2370952284046952,0.21546202684714055,0.22086182466494098,PM
0.23771235109416766,0.25447109372871024,0.2554772073205669,0.24389754949216336,0.2200922601969042,0.20049458169093715,0.19905498885455852,0.21602017965982512,0.23992407954298978,0.2552916376594876,0.25582150847256635,0.25445136785931366,0.23980808214437577,0.2149729482582856,0.22383886439743472,0.24354938054620456,0.2651029943651815,0.27107632008307636,0.27198062569378045,0.2845585437528473,0.2970023828000108,0.30008837245206355,0.2816782096896082,0.27165961147951023,0.28565874099964894,0.3010691609355671,0.30089296061823223,0.2877108765004799,0.2674077359881215,0.2609573071019602,0.27735079475725,0.2897763162917162,0.3058796903861367,0.31307446068207057,0.3022498244192624,0.31088704976759596,0.3136048132237437,0.3021747395717971,0.29585677923454234,0.2784408892263057,0.2541946179464363,0.24184546494885595,0.25913844689512233,0.27819624533229614,0.30689263334741534,0.3265160368386817,0.33218893788212434,0.32730710708923194,0.3149083077123147,0.2988783225046161,0.2761052305819054,0.25123648517164554,0.2373452857749183,0.21228433658973067,0.18221514784529314,0.14556133757117395,0.11096061863131279,0.07365611770963376,0.038572286189228144,0.010487867585935451,0.0,0.02032469558482486,0.03260343050435699,0.04249074125972374,0.05512981786424431,0.07367923754406336,0.09984073769133683,0.12087253311257085,0.15250880236756137,0.17811980310715958,0.20634318876325608,0.24163891559840955,0.290377475513393,0.34004980505389204,0.3782300151218565,0.4268492920329181,0.4741038303138887,0.513167635350178,0.5633241201819787,0.6108013341229452,0.6497487262620734,0.6998008019786854,0.7474988379320013,0.7863424476272072,0.8362774837753939,0.8841963417410579,0.9229358821639768,0.9712514297113124,1.0,0.9980535937512727,0.9663724533868114,0.9234170189829132,0.8841544332709113,0.834479468381681,0.7953507680901839,0.7481697690903193,0.6995115470461237,0.6613475637870962,0.611696565324154,0.5611102155471723,0.5111794756606387,0.472341671650641,0.4249681812131558,0.38525826247709416,0.3389301485161509,0.29795060149373764,0.27242348914818804,0.26780436479965886,0.256356957239702,0.25385116182721923,0.24144745085761432,0.24053871847434394,0.2406754555535877,0.25209181467347763,0.27638346397990565,0.2863830015076765,0.2953968712790682,0.28935063902870883,0.279856550680718,0.25490536663017016,0.23776504812940136,0.21653285318831061,0.21014004068288106,0.22064582574709357,0.23974005826702038,0.2648477378133589,0.28982437213146595,0.308181973387319,0.31501332924996595,0.29540578309058274,0.27011643304842226,0.24482105941890753,0.22026005620567668,0.2212326072720736,0.23792950630644594,0.25784268380443676,0.2707869713507134,0.2742198783947738,0.2947205620573006,0.3117211312417627,0.31562075841806125,0.3014949054023144,0.28727812916632933,0.27784606422617175,0.2595505728250136,0.23519682100696526,0.23154459019116658,0.24122070636351944,0.25803879036593225,0.27079408697855856,0.2710739908741746,0.26545313187426034,0.2661437123324486,0.2740545092013069,0.2952955850347636,0.3167936485786753,0.330713898087756,0.32049473069253187,0.30011945119075323,0.2778962946417618,0.25799690685904686,0.26538729014722984,0.28763155302674415,0.3011748485138317,0.2910036446718127,0.29670307853484434,0.3016579760142508,0.3056118328871791,0.31647728957737886,0.307082605825701,0.28776246539945305,0.27432068573147195,0.2576297474019942,0.25057543119970305,0.2652423374361259,0.2715949408046683,0.283137050584819,0.2955639008276867,0.30163825158000623,0.3013607105113194,0.2849221960979986,0.25636665089995914,0.23106805340668002,0.20577960748085955,0.17978241057758382,0.14250598815530546,0.10846499805816334,0.07973487026210302,0.04974905626154236,0.030729770068512074,0.013780227463158212,0.03775896167584181,0.06429521066967459,0.0895822297815565,0.11488429212098605,0.14016899508735126,0.16157413043799096,0.1740824032620023,0.1828048123616366,0.21936744915549644,0.26954611890392277,0.30949385295864085,0.355603137743461,0.39688921969588087,0.44162948249423106,0.49207404057607196,0.5336698618760503,0.5781086028738356,0.6279188780940417,0.6664408507049018,0.714547977641605,0.7623540605308743,0.8011457790041203,0.851022295368093,0.8990515643399317,0.9377307960641401,0.9812472234872591,0.9881494166522398,0.9648481298248321,0.9255012254111392,0.886625318268083,0.8393340103465587,0.7907342060020617,0.7525458825296276,0.7028603405563163,0.6522739812653713,0.6024027332072093,0.5649297446199721,0.5378210728660919,0.5070555316240535,0.46158378697932134,0.423158381661334,0.3768064841900758,0.3421009064397511,0.3145617858033134,0.2955638509157268,0.27470860247314066,0.2782568480756895,0.29022340212558007,0.30131919273309915,0.3016472013671794,0.2963378469875835,0.2858777702848214,0.2701850103909136,0.2597137238736358,0.27069749515893937,0.2700641644578452,0.2576681797755942,0.24440928903667913,0.22153759241201332,0.22470815358647833,0.24010652617045602,0.25103882221774576,0.26996041538544135,0.28568858748971193,PM
0.04791139267125821,0.026659430658225514,0.006555044678332678,0.006752250767490864,0.018611252031625947,0.03437021212540459,0.04783385213563873,0.05565482041615355,0.06281994054704465,0.06470130797031648,0.0652388267683579,0.07252299659356409,0.08390917076439974,0.10755195198517797,0.13711299470058713,0.1725631476317393,0.21252649047935512,0.25108971145765224,0.2841387013981038,0.3235519461090317,0.36166837759181014,0.3950020654104902,0.43458146800610375,0.47451086576603085,0.5095300838471291,0.5456495204588288,0.5856048050013238,0.6220191797039876,0.6567602826828307,0.6966556812663045,0.7366600957852394,0.7736445193980082,0.8078666656714613,0.8472376931620604,0.8804252355579067,0.9155826722289437,0.9289871398998693,0.9069113028639442,0.8736417548053956,0.836801517865732,0.7967990469346287,0.7567771496462954,0.7167562313082976,0.6776875878855226,0.6447631115513244,0.6057284569755204,0.5657071528490245,0.5256852555606912,0.4856633582723575,0.4456414609840238,0.4056195636956903,0.365597717916172,0.32582783648070035,0.29208271816835674,0.25456339118425864,0.21566000067738633,0.18270904221002682,0.14575438351426406,0.11741870405398047,0.11045797527929113,0.11761805622351829,0.12566296276941302,0.13375204484280112,0.14328400434208333,0.1419405840391461,0.13060404673210146,0.11522253543506178,0.1178725036053494,0.11449490212611235,0.11763349898287423,0.1107847424973627,0.10990455679377842,0.10990413174775249,0.10965685197558717,0.10341375666359198,0.10087449685044736,0.10087381659470562,0.10347092958624726,0.11493877709427625,0.12300176525446505,0.12790246640015557,0.12785216800488675,0.12177943824768778,0.10576926209249016,0.08539055364297887,0.06171929796847464,0.03839840839749953,0.01273346351711302,0.005710665775844559,0.015458929904006435,0.029170417786034797,0.047304168792711154,0.0555704815878717,0.06176055846397621,0.06962544117579439,0.07370024615459325,0.07376925317888494,0.0779797490825811,0.0976740208078064,0.12576136039898667,0.15793572845832982,0.19254418590834987,0.22848000303296323,0.2657775174956618,0.29967982623998446,0.3393734631135119,0.3742993052364909,0.41051538816838584,0.45049761880211436,0.4896947380072296,0.5226637099867653,0.5602823891387483,0.587197680627161,0.6233487744957775,0.6575441099497024,0.6945110074665113,0.7345150713038535,0.7741078131546608,0.8073825341872563,0.8454503337193757,0.8803973709739163,0.9152198177901969,0.9290971067729576,0.9009323411910497,0.8662775852756108,0.8299184879972801,0.7899219450090658,0.7499000477207312,0.7098781932908778,0.6700909462261824,0.6362223211458553,0.5988405877440679,0.5588300509234612,0.5188081536351279,0.4787972328914223,0.4415844136317302,0.4075767300575328,0.36776051620294736,0.3284069041779951,0.29539812812277777,0.2567326152707601,0.21754354016560895,0.1846435564001061,0.14757100811880974,0.1185585070891213,0.11117354107918542,0.11882448066679707,0.1266905845155779,0.13364045654883627,0.1482523528381663,0.14918889970696791,0.13932195056756203,0.12998704863465393,0.12798690084628017,0.12798316018616118,0.12798316018616052,0.12798316018616007,0.12797380816653203,0.12547351538562057,0.11921481226836583,0.11861869275230164,0.11223691087154086,0.11500840843113136,0.12280527300290278,0.1283484108670332,0.13603444350552918,0.14481958207122791,0.14667366621672384,0.1500998428779119,0.13668866105014144,0.12189554657409873,0.09892730009550554,0.07411504495744925,0.04761418743860668,0.024987169146063026,0.003952632357940855,0.0,0.009824827586299767,0.023649688491646836,0.03939488865066609,0.050938563567955564,0.05561516256137389,0.05797937213434201,0.06440663294549376,0.06499668106888223,0.07308251525143805,0.09575866551810552,0.1316550171765718,0.16495844150419847,0.20073554329731058,0.2343156793815151,0.2737479968669847,0.3074600366135758,0.34504627059145365,0.3850588995125359,0.4244814917476001,0.4575146966895065,0.4960875319835256,0.5361072553859583,0.576009804880216,0.6106246227561987,0.6471634857900197,0.6871553548948941,0.7270916894466204,0.7622239685197054,0.7982265239147548,0.8382031461373334,0.8775037611594745,0.9105027942532438,0.9490650931632971,0.9821228267778452,1.0,0.9851778681565979,0.9508731053768136,0.9109125420441182,0.8724711830703509,0.8393851882130328,0.7998828957809652,0.7598612108190461,0.7198393135307124,0.6798174162423787,0.639795518954045,0.5997736216657112,0.5597517243773777,0.5197298270890445,0.47970920336898626,0.4409100669917607,0.40793546181260587,0.37174606730472814,0.3451134724629472,0.3067835881268486,0.271510755400314,0.23567122400824325,0.196905277825981,0.1639729265955896,0.12938772885816885,0.11114680397636811,0.10990504904035103,0.1108778608972254,0.12134683283237258,0.13513532512765836,0.13680811455826447,0.12980963581157545,0.11988681099288478,0.1189440668843813,0.11894367054174149,0.11894367054174082,0.11894367054174015,0.11894367054173949,0.1189249472567222,0.11583486269150844,0.11004909576193156,0.10990620742693902,0.11125070841257823,0.11826396206884104,PM
0.2944755016805436,0.29447345756264687,0.29243291693884776,0.2758208760656724,0.2514646609048068,0.230378169265824,0.22145025803980944,0.22778629293241126,0.2487232909583863,0.2532381965844488,0.23563359574189757,0.22873715517268822,0.22853805282149686,0.21898098753104156,0.21008133697397158,0.19678395111363978,0.19582793002358923,0.19535311519382104,0.1829760687726978,0.179391611685499,0.1793865462947002,0.1794576443344833,0.1875861899943838,0.19576985792509083,0.1958278256355146,0.19578540481354922,0.18907155359954197,0.17950444310010072,0.1775827550868887,0.1640565606192652,0.1530186413043655,0.12672707418388907,0.10613126660985284,0.07964809893261071,0.04818049622306875,0.016635917979484827,0.0,0.01589184633965024,0.04149351903125975,0.055672242195545785,0.07767681997101672,0.0913503582729116,0.10442027736631587,0.1145907956046277,0.1281326613930993,0.1383187716712473,0.17349707857755003,0.21233527323680912,0.25139335748884495,0.2921179493896009,0.33843810477911607,0.38301745033653534,0.436535246860867,0.4778754823896638,0.5181976408443361,0.5538008463939565,0.6020217934161609,0.6468317477844847,0.701529109226831,0.7502562922648575,0.7951800361852741,0.8497186893359028,0.8935625960505234,0.9423058634105441,0.9679547665473445,0.9550757274324813,0.9046774124028376,0.8564015582466733,0.811093770181675,0.7563250929508523,0.708166970848112,0.6627394322267102,0.6079236566428787,0.5529985290728736,0.5021318869246674,0.45912201113088624,0.40765547916921463,0.37711876427204327,0.32767918781485106,0.2799050742455682,0.2354821692435527,0.20299339942004924,0.2102416527680715,0.21298099532455206,0.22568147807419825,0.22869387699399057,0.22423529554846455,0.2105707947351898,0.1937604731971958,0.18314893737233495,0.19511581138541523,0.19582783643417967,0.19661824147377738,0.2095389859901391,0.2122661331256963,0.21226910497623042,0.21226899194916582,0.21130015578615247,0.19838818733822983,0.1895134471222666,0.1795851587905255,0.18733862939338675,0.19575628712167603,0.19635055667110057,0.2084932305913294,0.212264903588383,0.21226926911740618,0.2131869897681975,0.2264354679338103,0.22756765540919632,0.21454929008503498,0.21226342457414793,0.2081195508134983,0.18411881908286754,0.15658427773185668,0.12331698439210959,0.0885107882981746,0.06531701836837334,0.03129450156764069,0.01555690775895302,0.027026625880900657,0.05336980611059561,0.06824585469807243,0.09111540889354286,0.10976723913911579,0.12804093349625978,0.14483987465047043,0.1586195712588876,0.17310667162018767,0.19978955247053998,0.2272668069240753,0.2590654267665169,0.3052924603332259,0.348980727706409,0.39077729764787605,0.44250009604725893,0.4855469786440625,0.536364470703155,0.5912319565504518,0.6384557535178974,0.684800759966198,0.7391628278355018,0.7820645225375125,0.8330786149530574,0.8880056858841203,0.9428151029678431,0.9866180669182887,1.0,0.9802448521737697,0.9388574316511162,0.8936844164026483,0.8406148472684465,0.7991467811621904,0.7454498598884371,0.6908807451399279,0.6475625565818834,0.5970832770726209,0.5421585392794244,0.48722573314081563,0.43353933778218634,0.39171837092145134,0.3388670132077518,0.2852256155396029,0.2459420297566992,0.23931071249552316,0.24521180097997997,0.255090199650839,0.2759434462092143,0.2766257504697762,0.25761585809442566,0.24227888611276027,0.229424569314431,0.2298195445311504,0.2431981240400094,0.24591471829847178,0.25876322826021125,0.2615898827925429,0.26159294299856617,0.2615929429985626,0.2615929429985595,0.26159294299855596,0.2615929429985524,0.26159294299854885,0.26159294299854574,0.2615929429985422,0.26159294299853864,0.2616017311121821,0.2661347108358987,0.2776804634760439,0.2780340999533637,0.27754943259943454,0.2651017302448433,0.259879531776952,0.246400779076549,0.2440103088998118,0.2291870841369299,0.20616873153476378,0.17870821060334618,0.1512403951111425,0.12370208441363495,0.09166029904167461,0.07047199189778608,0.07615286263084631,0.0983361850047606,0.11373595169744144,0.12963729181916683,0.15213409044304305,0.1716267431106102,0.18472459845944256,0.20269236625858644,0.21321414617179713,0.23252861311497108,0.2599556521580846,0.29058644427801594,0.3290432599273556,0.3789690013843572,0.4212261297742894,0.47346361503692114,0.515229672655606,0.5686861849062796,0.6129119741209017,0.6623041135957233,0.7171972967186471,0.7661714249431513,0.8108674760124024,0.8643698666832149,0.9058597680909499,0.9556344889321577,0.9920733172521152,0.992045222979578,0.9544924228117413,0.9115123172866331,0.8623793569576192,0.8204216331892074,0.767887291098615,0.7140732102372485,0.6721426192701636,0.6195287904434421,0.5645975638940639,0.5114452192313728,0.4699598345046807,0.4162373856040724,0.36130735002522485,0.3090017834429992,0.2673358636311298,0.23526830032284485,0.2550325364778119,0.2616474591164626,0.2703465378440484,0.27515235485538714,0.2620998595156676,0.2507655566937448,0.2370952284046952,0.21546202684714055,0.22086182466494098,PM
0.32348434949457017,0.29405879001954116,0.26470975366098914,0.23248743419512807,0.21714632506954878,0.21389508640939525,0.20780911887753517,0.22132430838639416,0.22983454176165885,0.2343511466471454,0.23037212615123404,0.21391150456601327,0.20542198699615055,0.20009532611037162,0.20163234938133978,0.21127651935992453,0.21728004773547938,0.23468371472401317,0.24332641023327806,0.22414661489598664,0.19674798766673252,0.1669453762006995,0.13535495033671652,0.10268396152306292,0.07139911427172296,0.03993586225164725,0.008951791708252221,0.0,0.026704197651647,0.05738060390227728,0.08662833326208641,0.1082228312829655,0.12209291375425024,0.1420529938932732,0.16093235389550842,0.176636831239391,0.20378084271392416,0.2335344971854575,0.2652296099445933,0.30037910641757104,0.3365426581438008,0.37437287386598606,0.4099964434150537,0.4499616802851746,0.48792587558427203,0.5249870611961339,0.5658117351299176,0.6065528827427392,0.6429932454972945,0.6816424398272428,0.7225463560976179,0.7633452596287099,0.8002284382803496,0.8383892887284191,0.8792549994117519,0.9175323308862341,0.9542831386902219,0.9910838192830062,0.9956505201592477,0.96490836850343,0.9247101285578051,0.8852242728537162,0.849397484239678,0.8088934238863869,0.7679712201811838,0.7276012735982299,0.6918920439602839,0.6521557540000679,0.6112361335104805,0.5703184211436877,0.5307816188794289,0.49498976117310856,0.45450128064321815,0.4136768386089943,0.3766240945388929,0.3404213760281857,0.3071998825517305,0.2761057555690779,0.24495645776610775,0.22575749870057782,0.213687632756003,0.21104684485324887,0.20833564684992545,0.21075691714785927,0.222636311755806,0.22353516852234867,0.21785459353057368,0.21662831427660556,0.22412132899016657,0.21831188276211033,0.20675247226528415,0.20337007506191018,0.2216449999507456,0.23550806230483923,0.2262146177359633,0.20707751835707777,0.18034952395991677,0.15080216478488306,0.11869585866330923,0.08697669967421062,0.05358235221221164,0.030576251646846075,0.04761572195487407,0.07767816256366367,0.10493542740779638,0.12929859183417147,0.1499006925175953,0.1656693804640056,0.17236055357026825,0.1894075354619814,0.21844438881815165,0.25320471100648156,0.2893053839917029,0.32612006675745653,0.3640975062332229,0.4045502053209681,0.44034206302728707,0.479878865291545,0.5206503242974704,0.5551643677010204,0.5831953973120748,0.6226968209875455,0.6634014239466343,0.6996883263604828,0.7385206496461357,0.7794291536696109,0.8202063964533043,0.8569235191435375,0.8952674985473116,0.9361293100857851,0.9740931878174669,1.0,0.9827850636104704,0.9432643607743526,0.9075556002227451,0.8678193102625297,0.8269057899165583,0.787469147567677,0.7516074280459201,0.7110877625126143,0.670165074880032,0.6292421989288809,0.588327764519491,0.5491415219590535,0.5131051478987062,0.47250745646532877,0.43158470808482086,0.39070900749011017,0.3529205384100368,0.31779262907459127,0.2858390118918547,0.25461646044857444,0.22460203388669997,0.20295292906789675,0.20070546960197755,0.1915803532406023,0.18918780804896473,0.19240872324570624,0.20204441207332346,0.20023127128521445,0.19799026711205336,0.18696898965928577,0.15805884534115033,0.1234162844561858,0.0912935556373552,0.06056538928751587,0.030985607388272385,0.010791683361663473,0.025212507659293948,0.05477187532548233,0.08390210698709322,0.10969565632350486,0.13346765496797863,0.14800455632874232,0.1475634056378864,0.1607595237005771,0.18400419357256637,0.21325676400457516,0.24793986613837882,0.28341056528990627,0.3198568373098968,0.3579562543127538,0.3988464073238277,0.43976928327497944,0.48067371787438995,0.519237313620802,0.5557653098429997,0.5965039270231512,0.6373894866763176,0.6754184490235772,0.7124180847677285,0.7532385145794925,0.7939868748479556,0.8304825895896472,0.8690706133637166,0.9096478158652849,0.9456282923452975,0.9773120725666541,0.9708900271300119,0.9353345144865918,0.899650621914244,0.8592283352114795,0.8183916899731968,0.7817565693307901,0.7538022016645297,0.7265400281939419,0.6992579651235183,0.6715887778428121,0.637018722665241,0.6094821256354218,0.5742980487512631,0.5334826692031066,0.49255981906982316,0.4518111432744144,0.41523444980507607,0.37674304580668927,0.33793067643626584,0.3022470177845781,0.26893592825028423,0.23974161297038743,0.21835951735107428,0.2189668039273308,0.21828162199977907,0.2108790786469662,0.21737022721101373,0.2245842342335257,0.21900945182877984,0.20848600441633935,0.20425738962482332,0.2143209061341017,0.21443376440703343,0.2129063760702784,0.2230548169311829,0.23084361396841746,0.21634404462516044,0.19099050045913624,0.16734629706399706,0.13563610759752576,0.1029666831837216,0.07454250697587472,0.04848529291171022,0.02924054993728853,0.046621331420398704,0.0737647375067646,0.10042273249813338,0.13131789964823837,0.1541245242008814,0.15480605504400458,0.15975556776631994,0.16596148795000054,0.18424675572772375,0.21485870814632524,0.2504143454817386,0.2858902488044396,0.322571856761494,PM
