0,1,2,3,4,5,6,7,8,9,10,11,12,13,14,15,16,17,18,19,20,21,22,23,24,25,26,27,28,29,30,31,32,33,34,35,36,37,38,39,40,41,42,43,44,45,46,47,48,49,50,51,52,53,54,55,56,57,58,59,60,61,62,63,64,65,66,67,68,69,70,71,72,73,74,75,76,77,78,79,80,81,82,83,84,85,86,87,88,89,90,91,92,93,94,95,96,97,98,99,100,101,102,103,104,105,106,107,108,109,110,111,112,113,114,115,116,117,118,119,120,121,122,123,124,125,126,127,128,129,130,131,132,133,134,135,136,137,138,139,140,141,142,143,144,145,146,147,148,149,150,151,152,153,154,155,156,157,158,159,160,161,162,163,164,165,166,167,168,169,170,171,172,173,174,175,176,177,178,179,180,181,182,183,184,185,186,187,188,189,190,191,192,193,194,195,196,197,198,199,200,201,202,203,204,205,206,207,208,209,210,211,212,213,214,215,216,217,218,219,220,221,222,223,224,225,226,227,228,229,230,231,232,233,234,235,236,237,238,239,240,241,242,243,244,245,246,247,248,249,250,251,252,253,254,Target
1.0,0.9540073343587969,0.8970266552004502,0.8339164468459441,0.7978993303901669,0.8489286996253607,0.8905088976509465,0.8945472237980008,0.8945559285777436,0.8945559285777396,0.8945559285777356,0.894555928577732,0.8945559285777276,0.8944029140632614,0.887545667841446,0.8996340779747767,0.9233373329298651,0.945991811545873,0.9596497102127151,0.930610353986236,0.8663449107774914,0.7881335815059991,0.7043943988897032,0.6224875492748527,0.599007108443268,0.6584658256351137,0.7110410441197441,0.7494130797661458,0.7333813138689154,0.7241361744250105,0.7400040702106834,0.753115106194894,0.734729400903229,0.6777473000184928,0.5951201677523636,0.5012593814850224,0.3947671069480938,0.28414454130330524,0.23339506325012405,0.3156544723288186,0.42699846943190023,0.5356370606296315,0.635087670358403,0.7446172479586175,0.8419348263953501,0.9001756838721473,0.8547187761447854,0.7950551338616401,0.7631136628917337,0.7144107126802934,0.6489504022720682,0.62570445399485,0.6823322422721647,0.7483376309911463,0.7681866177328502,0.7538940570409323,0.7293296866693089,0.7130876205997145,0.7100378770139848,0.723164689928403,0.7354000043678859,0.7422466300832196,0.7570500332108381,0.7814237169931721,0.8122876510430803,0.825357592354822,0.8018751690878174,0.7408520759840886,0.672998503959044,0.5983463374208626,0.5738605370890433,0.6182939557271379,0.670443200788795,0.7173461804186982,0.7500102701585756,0.7796010422639799,0.7882357639994249,0.7555536876342623,0.7104909796854608,0.6738593023703059,0.5985677116733519,0.4992516213608922,0.38985038066548894,0.3334597431844606,0.41413426504419526,0.5246393431128298,0.6241640398822534,0.7320186443909651,0.8324796467145745,0.9302326241444145,0.9650688702376349,0.9003323317808851,0.8200680629450345,0.788838112958568,0.7478303265567985,0.6826547383146213,0.6721894840964819,0.7307783037452324,0.8098537033994906,0.8848547243300611,0.9244958583504461,0.9203746779333661,0.87433865945196,0.8320675161138995,0.840067840406574,0.8537367545033638,0.8605422250650636,0.8606251872217561,0.8606251872217516,0.8606251872217481,0.8606211065696869,0.858383343668053,0.8300694932341726,0.7761279945683008,0.7082965884056658,0.6304696011885929,0.5571672422179552,0.5704568432795121,0.6194297816969563,0.6716316658549211,0.7080511255333777,0.7332841947501443,0.710184180303918,0.6724396268524471,0.6348313632721081,0.5849176588887506,0.5017243231991788,0.39089854571313065,0.2987240149288177,0.2800359367443277,0.3252207556668849,0.4307933083309643,0.5103852707804908,0.49225990678359643,0.49777252107046577,0.5600504806912108,0.6387028762595617,0.7131724362146343,0.7744757853458069,0.8131940327476448,0.8198402228946535,0.815555167552279,0.805264926319849,0.8170976398498158,0.8192606255961423,0.806970142970127,0.7891364426081662,0.7738192863753177,0.7820678111402479,0.8359078087890368,0.8776244950189036,0.8469992600996354,0.7764942052903385,0.7002547313974063,0.6266945521488845,0.5800541104183443,0.6045078180813479,0.6716202140269574,0.7295561124214638,0.7594320345540657,0.7783703839459051,0.7068437094671838,0.5986490145468273,0.4995566132581142,0.3897489090153097,0.2787680656739804,0.1793965279390206,0.10401286631270956,0.14341820072650924,0.23694235298300192,0.3347731455991316,0.4359244404347433,0.5362176607356886,0.6234071773802752,0.6683118572465765,0.7118229525493867,0.7396659328112247,0.7200383589747275,0.689298481517826,0.6478289299902666,0.595990667999458,0.5427138332900947,0.5061235979901157,0.5292594201930769,0.5938054147948826,0.6668044496322016,0.7371975365276424,0.7731155431189229,0.7576732706309182,0.7329231987503086,0.7098299122406004,0.700595794666568,0.6851145925429973,0.6744104835065787,0.671810811192842,0.6672966563184439,0.6689219624857241,0.6861912343592702,0.7117678462214503,0.6979489320743708,0.6387703990891631,0.5727904408972302,0.5377808266372628,0.5788567778899893,0.6497674871803176,0.704479300711129,0.7414421213105338,0.7232872331823161,0.6233684411259577,0.5150326528259574,0.4154680546336187,0.3047633455955152,0.19997273395384418,0.09827503751069555,0.008028479052769377,0.0,0.08655678573835068,0.1854708763275723,0.289913364502715,0.38896870849454945,0.4893823070818377,0.5818284397034899,0.6615340478297069,0.6983208051845868,0.6907039723360415,0.6731913225674333,0.6800625153636193,0.6770602555402245,0.6187938422789547,0.5611422831188024,0.5242038348639655,0.5556684827010985,0.6348513021291255,0.718759994544294,0.8014959305072638,0.8782829605376472,0.9105052011870622,0.8938697566753775,0.8691390490258053,0.8449625338272195,0.8379649338697548,0.8500121804854737,0.8538235098664004,0.8538390389507984,0.8538390389508019,0.8538390389508059,0.8538386695745435,0.8528471034427914,0.8272160091430898,0.7740470940309399,0.7297704294766105,0.7489269524099558,0.8197917576856821,0.8817014124142095,0.9397917916185032,PM
0.4014680166820519,0.48325724707759155,0.5736021384663406,0.664506085806382,0.7543678987203519,0.8459941094963812,0.9247705685758512,0.9542027361593692,0.8979203628150636,0.8102433751886104,0.7194322270285636,0.6216049615021138,0.5211233438978382,0.4276371407025741,0.33236091833597636,0.2666576005457928,0.30395344781740374,0.3663140105089584,0.4063868243929869,0.4422725952496609,0.4713601886829728,0.4780879997597334,0.4445669317946297,0.39034498899099934,0.3813205228108949,0.4032588808304911,0.3950906250500996,0.3950970096752504,0.38156236475836436,0.36704332869380996,0.3585122512124388,0.35227539622200665,0.3293074989503946,0.3064260244714092,0.26184910864083677,0.19372090621265703,0.12465533417886165,0.06836781833147354,0.0873481671278995,0.1372085070031468,0.19269571754025439,0.23228808519273647,0.24195987335009894,0.2553602047986703,0.2714716514876103,0.3287134517420103,0.4081040978271646,0.4962215657357609,0.5857910721115631,0.6766434091033611,0.7702261936666017,0.8580545487943179,0.9336832728593898,0.9548311184150122,0.885405193771249,0.7919289393062294,0.700858771530765,0.6080358154291197,0.5147951295965043,0.4188629820646532,0.32473417605311616,0.2340189657567997,0.17204322816483364,0.20960825927415794,0.2648029800012617,0.2928446641042657,0.28867469478171137,0.27347131983725403,0.2433701158040702,0.2069052335450463,0.22552487641472085,0.2647364548233726,0.28962468259982344,0.3062732131913457,0.316176519729894,0.31748411296827217,0.3145127417277178,0.3144762670270327,0.3010342763312204,0.27231087504412677,0.21798834854984994,0.1567726019241611,0.09087815557966161,0.059621351814050705,0.10371659701589508,0.1580564385416583,0.21224966349172658,0.2451773592364157,0.26191146947150235,0.2651971003300313,0.29013123783181904,0.3573254057854396,0.4406359534875828,0.5361366894390469,0.6283163895813904,0.7148733473377333,0.8027976921653088,0.889837042926837,0.9634822914075996,1.0000000000000002,0.9450516201043795,0.8575408888666869,0.7663620874409733,0.6742071976926829,0.5795664334181219,0.4840933646448893,0.39027159743729833,0.29663393571770924,0.20607117501368633,0.19080302468249566,0.25504546161610286,0.2839272287225161,0.2933001277935354,0.2924254948776024,0.2589692963589829,0.2258516217580413,0.2239753021723334,0.2569386415220414,0.2848797581133973,0.2874694175295003,0.29271815464001594,0.29139549242693064,0.28179614695662747,0.2890969539322368,0.2813019968120438,0.252454073095264,0.2462394424212211,0.24400116785621906,0.24319298175672865,0.24217788819967034,0.23762878094223727,0.24033636660546587,0.2276260475204157,0.1908722551840627,0.16047814213050482,0.18376640479342998,0.21193848732664944,0.24054479241052706,0.24398367610935967,0.22717015745731062,0.16865853735060088,0.10097829746360532,0.07198232069691701,0.13477245338574462,0.22878712479104424,0.3213753746269197,0.4187623337424353,0.5109479817323985,0.6076873781554799,0.7002025554926632,0.8000236615022145,0.8885237843344183,0.9003466933467592,0.8224153482396444,0.7345959869141108,0.6473746430358689,0.557789542373573,0.46874295884904904,0.38424609042767854,0.2996543822887794,0.2443682978073567,0.22387369971590965,0.21402084269496324,0.1921368450109473,0.16190218852080496,0.10719912672083076,0.048141705253892164,0.0036351426567244882,0.023041935283318438,0.08696181651955404,0.15371319487037938,0.21651270859752936,0.2514370595832245,0.26793439986477385,0.2611120111319807,0.2726145267896414,0.2668843504312448,0.2587890646631521,0.25509836688350584,0.24163105814845331,0.2080968793273903,0.16754662762005634,0.14973007826603157,0.18281750977040012,0.22213285381120906,0.23458202531857508,0.23282860297353403,0.1906602871446823,0.1227523718860215,0.0705798943646132,0.1041919778973166,0.19164624526767216,0.28503601402449497,0.37724300202379557,0.47735952516382274,0.5775199581882908,0.6698208170519029,0.7620086915373852,0.8512895076613869,0.8817864113824874,0.8087286971414505,0.7223328659010082,0.6349513450812443,0.5459881786948262,0.4556090339136214,0.36242913127751986,0.28538696710868705,0.2292502495161326,0.20769136388706833,0.20134801523715673,0.19200034782114117,0.17334692195140078,0.1255128163913517,0.07058068376570037,0.020159084091429413,0.0,0.04174565673347286,0.10916211817787036,0.18360533471175322,0.2396528968232452,0.2749536410464388,0.29779156530947604,0.30079384238523876,0.3052397448134043,0.3282504554175991,0.328151355133832,0.3380609652024822,0.34912511392538126,0.32302424511007,0.3274788264647037,0.35272686695441435,0.4060893456744543,0.4148748412003169,0.38031155890098156,0.34072665244464084,0.2949244642698716,0.22730892563001937,0.1546961940548499,0.13646488057965933,0.21394542845869213,0.3068696349460802,0.3999494895350433,0.4958771534487536,0.5887637890749822,0.6832734337496216,0.7740738638479387,0.8574398427012555,0.8546343122343305,0.7747978290717914,0.6879039316554898,0.5969639904319914,0.5025713491691699,0.40841348993410187,0.32068072187096885,0.245767982088255,PM
0.6113809675432269,0.5677444511721039,0.5240602476790222,0.5433623982202986,0.5994013841425003,0.6601407097170982,0.6744227865495875,0.6721295379591661,0.668892191850655,0.6845520713287421,0.7110563278283468,0.7400654773105044,0.7183182299531508,0.6060590984893808,0.4810916735208801,0.3551869325694965,0.25365673097617636,0.3173194308100231,0.4475745682348018,0.5765884548235203,0.7071065158379111,0.8339728639177206,0.9242845046667032,0.8758538649347081,0.7628653500418814,0.6754960362218627,0.6621849977498755,0.6483528516774268,0.5848809657403322,0.4874189510282867,0.42352006580797585,0.48486599182692025,0.5546868267426968,0.6057836406263544,0.6113013918162475,0.601744817472015,0.6048734759315186,0.6665367557470385,0.7181825215263666,0.6996565784040283,0.6536315403376864,0.6591862963644552,0.678943360395865,0.7061205878147407,0.732933429909425,0.7086262884918324,0.6088767571663549,0.48420968403169384,0.36171668364816734,0.3259354139171071,0.44452996854359883,0.5705190375901532,0.7056804330680153,0.8246888507763122,0.8623302345728519,0.7821650483857701,0.6774548663497044,0.630307690765866,0.6175355565057186,0.5736923575113426,0.4852605893251778,0.4752090316097335,0.5620614008771336,0.6297348323966929,0.6645583320567128,0.6311382428931793,0.6044796082788952,0.632878842603267,0.7002104686923087,0.7369275896594853,0.7404857547216892,0.7652278464475102,0.7600049802067441,0.7390453636707162,0.705193922172505,0.7248708329331253,0.7020976551385485,0.5911674881595035,0.46555284341570324,0.35324410785587235,0.37768047131705806,0.5006516823702278,0.6349134374916274,0.7612046799478822,0.8905124441858323,1.0,0.9796089147612403,0.8712033657808598,0.7542197492034424,0.6574719240955811,0.6213878304279641,0.6048601046400228,0.5424325942172983,0.45876256338991617,0.4711785055139255,0.5513345193889236,0.615352469733593,0.6383519355899909,0.5886694485690307,0.5393588237591405,0.552748338092433,0.6177267574240388,0.678058129858317,0.6808225277964617,0.6511723454741887,0.6329298558551679,0.6493840267812283,0.6877674344764957,0.7248961201960165,0.7468606893368341,0.6645940913028885,0.5416289116175239,0.41528503694607366,0.3830326353965603,0.49595809774312727,0.6265733173998016,0.7655766116881835,0.8982846387266807,0.9770735893259705,0.9212619019195452,0.8135461243323987,0.7037972665868701,0.6318688537336046,0.5973354274323648,0.5589273644785315,0.522532112722589,0.5431403086842379,0.5787838029045087,0.6391719048126099,0.7155597642391425,0.6591650229586201,0.5308546229433824,0.40484123110944825,0.27344122229058065,0.14711043084470798,0.030922369046423093,0.05357533942170534,0.16929713480234998,0.2870098659581819,0.39264166690531654,0.5150871200195826,0.6367726160266014,0.659253448807918,0.6223103570876471,0.5947723415544144,0.5808471424545432,0.5980377301114634,0.6305988540917538,0.6086457204359252,0.5397106586788802,0.4860189418344034,0.47146573104525347,0.5109818413710068,0.5662630713698928,0.5417625238474453,0.4623121517147659,0.3923449050315799,0.37873442698847315,0.4519138686097399,0.5376828475975288,0.5684456168578702,0.5795707264514443,0.6293576762987385,0.7315035210371534,0.7837896492162724,0.674787503410716,0.5477033590538412,0.41375187809922487,0.275977983885364,0.15024526312833464,0.031956213949465795,0.013453380545805249,0.12115399148430095,0.24622723491536957,0.3721149531144161,0.4981344110238388,0.6162211929736836,0.6510115798087894,0.6646045702130818,0.6957538629235773,0.7066701504105688,0.6641015889921382,0.6778537428804556,0.6730087870533787,0.6141811367443664,0.5504768353168754,0.5488605837524188,0.5731985148839951,0.5942922025496307,0.5415307369120672,0.4549630808665408,0.3916625439319774,0.4108634240678013,0.5024302170328458,0.5686062343408436,0.5773713516918528,0.600872314380748,0.6657201592765105,0.594888462353913,0.4573745776435292,0.3192893934481411,0.19336159821723164,0.07150984207368483,0.0,0.07102069302056835,0.19381816919833295,0.3195873809454248,0.4449948885385089,0.570097702223908,0.6622382661832487,0.6565003871889719,0.6216965555269254,0.6057113252671411,0.5975870163851962,0.6268261669603485,0.647277113265115,0.5942408368949632,0.5359183209663536,0.5330907813010115,0.5538431188406028,0.5296309165931441,0.46807237282093883,0.38700676502587417,0.3359095880056717,0.38485553695051644,0.4807974492517908,0.579366116853453,0.6091612553698944,0.6012825629092666,0.6512269044196346,0.7316956195562567,0.6622246266038769,0.5243797372291858,0.39033354285289246,0.2634552865066446,0.13656917287139825,0.028210953741018674,0.016552395189626257,0.12426561945398884,0.25352445684169655,0.378865474777486,0.5054155869811199,0.6288830022977776,0.6678335825153368,0.6424961274156575,0.6120063662284507,0.6106196356271667,0.6180529326476019,0.6193261826337215,0.6016098060612975,0.535844159907827,0.4812485023410833,0.4712670658116229,0.5041701200940154,0.5466766887615679,PM
0.8522881136223015,0.8404115604440388,0.839669624146862,0.8338761342297714,0.8340218150208147,0.847939432180226,0.868972861944862,0.8843549092374507,0.9157317403859664,0.9206947350653585,0.8770123033876578,0.804359807744985,0.7268114517438646,0.6438697834567431,0.5610098412553186,0.5071380267047854,0.5495479621091754,0.6208394798965826,0.6976608843214924,0.7702155076920985,0.8328373873486505,0.8721468586294971,0.9010983173629228,0.914387664182299,0.9266515728528071,0.9088664420066457,0.848485941792823,0.7696015854052414,0.6943902140078819,0.5963190199567485,0.4950326216320575,0.5178138173917062,0.6193950041013903,0.7288770012937147,0.8162601541987353,0.9020708131687645,0.9810174350531935,1.0,0.9966908903876779,0.9700611167750703,0.9299044400394605,0.9195998040386288,0.9600452633041443,0.9814641471217911,0.9824044296219392,0.9817398946605835,0.9741887973941137,0.9747415663577215,0.9574151457754572,0.9629357545582344,0.9611648838728222,0.9439151878817533,0.935746292170681,0.9311476846463496,0.9429482377339511,0.9533430129538418,0.9494977861999883,0.9359209663173331,0.8994138663912818,0.8451197667163468,0.7767325668058671,0.6871037439313903,0.5958785036779628,0.5173509554486997,0.5145107856965518,0.5821218299705868,0.66046369443381,0.7341844722257935,0.7938974788401527,0.843759184493055,0.8875842043814277,0.9150278491445238,0.9248727141528406,0.9075479423104089,0.8732105864806949,0.8077053938831118,0.7444206655679717,0.6493432162338331,0.5412466118101915,0.545622830683842,0.6533725335061824,0.7548370989509281,0.8544467560791009,0.9355266009559409,0.9741139702571293,0.9764942325132213,0.9761354045407256,0.9434131655081646,0.9090768325939589,0.9116769393567763,0.9559775947876252,0.981285054395709,0.9738844748944895,0.9445299643143437,0.9014615959835974,0.8569498974899292,0.7978761872111146,0.7520851270571178,0.7523828281981397,0.767592282590909,0.7720642260244421,0.7737795831099077,0.7891449866410061,0.8140494193643928,0.8201247123531612,0.8172930113125454,0.8288587077483571,0.8365867136679208,0.8243094086582547,0.8306625898870608,0.8296988717705798,0.8042889349573352,0.7572658888875523,0.7153461932756344,0.6261119387678971,0.5355778474372115,0.45473361029343407,0.40865400239745897,0.4139661192024908,0.48939603750803773,0.6013199139888492,0.6800026031113928,0.6953756535315425,0.5954713945517303,0.4813476573296356,0.4121642966284864,0.41406706002230775,0.48966425396255175,0.6042524386477841,0.7046072552821023,0.7463439118811226,0.7640082762480271,0.7624818290291331,0.7725759411629616,0.7667354620682283,0.7536456867545636,0.7566864132309097,0.758353628875045,0.7317279153013811,0.7170114261965184,0.7130576545063012,0.7075281540762357,0.6933319850809094,0.6834374824309304,0.7139914727875434,0.7691354639469448,0.8288091983699006,0.8749688738465959,0.9047767106848741,0.9237638726471853,0.9053617288829789,0.8585755461357514,0.8386391603827597,0.8608651773863771,0.8997421975673063,0.9209975549882827,0.9064317337542387,0.8268359749522265,0.7262083867103595,0.6206916045379418,0.5138015050525246,0.3992949920573916,0.29640751556036493,0.18404245354052406,0.07596948201919407,0.013238157478562051,0.07403540182756263,0.18365936924927073,0.2862843819747929,0.40054880042877805,0.508295261784105,0.6132813473642509,0.7069658824933045,0.7745587867091785,0.8361312511350603,0.8656043298469376,0.856541479279207,0.8284695980937289,0.7891206629911061,0.7284083150128038,0.6634518178037769,0.59097919666771,0.5168501776599319,0.4522167171226896,0.43499584608466346,0.48573346420368235,0.5752310434216312,0.659564914418509,0.7431925032564957,0.8122749826291678,0.8654366699016367,0.8862575010614528,0.8918842961875288,0.882274626459485,0.8693534660381999,0.8755645432287689,0.8918098507682308,0.9064469284025773,0.9151508725729913,0.9076967409106191,0.9202756896569824,0.9217670914440399,0.9217711867364717,0.9234539234799759,0.9293149925092363,0.884656550571028,0.8532274352119917,0.8694322447902105,0.9089413331549436,0.9437626865112696,0.9497713372940555,0.934484968162784,0.8578896871137869,0.7526035484112015,0.6369666034458756,0.5251820129217615,0.4218964239084091,0.306912132619789,0.192799244000887,0.09059324330547947,0.0,0.017857138714532983,0.11999231585006731,0.22472459909266762,0.3378322531083615,0.44033529344935074,0.5518989459600303,0.6510848756128249,0.7385961167962471,0.8107641698396022,0.8633208523282749,0.8675860850872898,0.852174835477594,0.8203893604398669,0.7756774327844687,0.713602742569377,0.6318560717119905,0.553985702100225,0.48612426294679745,0.4333798864987415,0.4520596479558181,0.5227323268758646,0.6043869697777957,0.6892508411077172,0.7748829440767677,0.838755605410721,0.8603526160079213,0.8348244406658893,0.8156287877759367,0.798500381377957,0.7809488980791901,0.7790986360958247,0.7797316569604771,0.7915336226327097,0.7968910780778766,PM
0.45164884961413687,0.49680200584639067,0.5198648157820993,0.5305004679076548,0.5281903903428993,0.5068738592620736,0.46714420600452344,0.44093199700755425,0.3990837812784198,0.40601560041581886,0.44167343219916466,0.502105031723945,0.5513157656404051,0.5766352055692581,0.582681977781339,0.5990635396292157,0.6422785579656036,0.7141120522903934,0.7497476413837543,0.6736501137434048,0.5641068352988117,0.4982019951649077,0.4970237876240624,0.535276768990276,0.5267525808540552,0.5219689563189447,0.4576677007859429,0.3679939194875166,0.301089958172319,0.3528010646140691,0.4309304100904181,0.4885927405387438,0.5345263490932801,0.5616760706879287,0.5815780715209038,0.5809022538048527,0.5632335182130856,0.5432895113674037,0.5513899883802305,0.5869379287823899,0.6372777983768332,0.6826378325261007,0.697156314658554,0.6995645783410054,0.7189492277077218,0.7528919558387992,0.81877552907513,0.8587003411536132,0.7977013728861149,0.6859084658219898,0.6255002690916598,0.6271044071835714,0.6952207535848602,0.711909942251908,0.6715968516167714,0.6198699857318095,0.5423479689162556,0.45571738127278705,0.4227397447803436,0.49478821064864587,0.5787465346579088,0.6397075351826764,0.6714421217661393,0.688224549056998,0.7021824690247378,0.6775793523962328,0.6537231845381641,0.6204391765899375,0.6215111742510722,0.6483683412608623,0.67365137902675,0.6758452239397497,0.6708569250912464,0.6437363703567089,0.6275832304285078,0.6711187793190443,0.7599842102372185,0.8144325590658434,0.7620038881892333,0.6588297154449823,0.578467868188433,0.5501661745600996,0.5995365927235237,0.6372862972386497,0.616645869942495,0.5885493830866886,0.5215784229227909,0.4293047559374332,0.4040561203516857,0.4740317851462956,0.5421856576841959,0.6089296100110562,0.649642353588709,0.6810045327268992,0.6973076015476911,0.6733550681550136,0.649552803118381,0.6104248556913103,0.5566706113752682,0.5263057883104385,0.5667834203947746,0.6226977332611079,0.6554102465903995,0.6496331783282341,0.6439312478872088,0.6486147178107173,0.6928076783635162,0.7837223743593436,0.883616016926386,0.9726733467123099,1.0,0.926330742625908,0.8110569756651009,0.6988325197849656,0.5818844103267566,0.5217284343447219,0.5842746732509294,0.6137746464897536,0.5765119321188594,0.517201212384446,0.43480996254071913,0.37356292121940715,0.3269369089569989,0.2513035061295512,0.15685572977563345,0.04091555196507457,0.0,0.035238019830334366,0.14989553349170315,0.26210183404797327,0.35283350572500005,0.44211816800817116,0.5145245841225035,0.5221161997626171,0.44166554144628956,0.39981399053002287,0.44230131018205787,0.531021902893233,0.6448676276393468,0.7564579385595707,0.8349420159744807,0.7764417408386706,0.6809812863102405,0.6088136160414601,0.5756346713845062,0.5796977155977587,0.5827456801728528,0.5850784438870695,0.5621011633642001,0.5083902046158273,0.458837721241395,0.44996395497765995,0.4989028136183391,0.548361860863757,0.5867033521096778,0.6141045467696973,0.6282012792560985,0.5941380042061093,0.5550236133855706,0.4991010469757362,0.42652936452560697,0.34704889346865997,0.2840152072454716,0.304906425432077,0.38276250451300786,0.4737649604077627,0.5319331889200289,0.5600224421924369,0.5159774569078879,0.43037542438996645,0.4038305218421634,0.3812179745293687,0.458130053596999,0.5723966881518341,0.6470142804988153,0.604870020105543,0.5573586756162761,0.5629328286377344,0.5909874873688135,0.6086439568290563,0.5956416427624238,0.5781323450306264,0.5423812894576301,0.5500455506708328,0.5858066650564115,0.6039050229955403,0.631254044468402,0.6238569895012582,0.5967238990146693,0.5517287117398655,0.4810058076478696,0.3981745765571616,0.3249008945321452,0.32970909773812407,0.40634807570429343,0.5027450686919996,0.5786632694056162,0.623519522936876,0.6231624700253251,0.5385567687915125,0.4871715346101153,0.44987945446290656,0.5021380410986049,0.6108410651200993,0.7139737293704642,0.717416029832513,0.6678954744780077,0.6484855719982003,0.6294973051635817,0.6252305112456549,0.62158001178343,0.5887135254858489,0.5406124289295016,0.4954386271528324,0.4725266132202055,0.4871875248656732,0.5074138647676802,0.5192048202497443,0.5162329089115456,0.49529572249684906,0.46986256617702127,0.420191304615261,0.35275235173719466,0.2662653590447013,0.1880376982183214,0.16659925591668623,0.2389320706521234,0.3294545491549581,0.4191561258248053,0.45821601407313306,0.46009547692845043,0.4026486970512422,0.33787698356855866,0.3221779574665371,0.3463235050578053,0.45336964082095843,0.5641811333683844,0.600213415771929,0.5556773907471064,0.5222187999934982,0.521663047429346,0.5123654991719029,0.4816515376087791,0.42850149868787524,0.3781981487719346,0.33811679968345665,0.3343944184325802,0.37374777205571297,0.4061197525668119,0.43178707186508847,0.45173409634076656,0.45539579928625207,0.4404643750392774,0.39075908820494076,0.31793184123596374,PM
0.7070119740776419,0.6594906428663354,0.6527127933354853,0.702443512387948,0.7494406369335158,0.7849097195787016,0.8173752065044162,0.8424189666025306,0.8548389407257491,0.8794552834554759,0.9432551884614655,0.9226723588981438,0.8288255717430937,0.7275575959283318,0.6259521676368827,0.5180997300896502,0.47274253204461236,0.5619303813699361,0.6615959909059679,0.7628104536773204,0.8558901549428353,0.9188798597326218,0.908123583420289,0.886850110487581,0.8281930525132795,0.7622705866010377,0.7484520156861303,0.8017172850966603,0.8587072247703447,0.895823937825259,0.9059525967351105,0.893777121627193,0.8911384311345081,0.8867993880489193,0.8837624225610312,0.8719281648075741,0.8653877680365365,0.8573593004238182,0.8380653466260577,0.802790470462188,0.7704277308202971,0.7221579952262338,0.6632002777755746,0.6459476439266749,0.6867252173184275,0.7378770493312266,0.7709489461241306,0.7948242166977859,0.8150019724642517,0.8224140216350888,0.8342057713839857,0.8778665223774069,0.8282566302641812,0.7332963749866865,0.6267323559531406,0.5272973841275015,0.4772520990666844,0.5619702820937935,0.6654818672620679,0.7610850153847439,0.8395413372731222,0.8521861837306692,0.8140444465589802,0.7684738787196521,0.7127529284962197,0.6550205758537444,0.666466112917133,0.7193824246598337,0.7667952874636581,0.7739249950848552,0.7620235883459074,0.7520015194699641,0.7364094850196639,0.717031244758153,0.6995611337226644,0.7210409888563893,0.7853209442583251,0.8678457535602353,0.8979062028450422,0.8765093815710279,0.8442349254747927,0.8029373355675558,0.7515236984635034,0.704642013621281,0.6968858997547309,0.7285485563907088,0.7434988165386482,0.7523534646135863,0.7581743426255552,0.7808547167455095,0.7907104593509213,0.8623774300059603,0.952023347655562,0.9734469358258806,0.8930258350401827,0.7951828711935931,0.6944191676337097,0.6165254762205541,0.6727656671177333,0.7727973808882467,0.8705187855463337,0.961219864805358,1.0000000000000002,0.9625228579184355,0.931522313163464,0.8727379384660898,0.7997192211857074,0.7599336268443639,0.7945180643798537,0.8442042525259599,0.854653142778685,0.8172040252110253,0.7981119990753964,0.7913057820226019,0.7847412064141566,0.7728980799503609,0.7608411875654391,0.759485723854221,0.7625467806535153,0.7727273854104093,0.746192979874402,0.7270091294844303,0.7199481762974107,0.7123638935947765,0.7159640612612252,0.721562334877526,0.7309736456938298,0.7372296031097918,0.7442546714844827,0.7562406159898638,0.7806689063265504,0.7833141737562979,0.7385288849104914,0.7078741448046093,0.732561815761015,0.8044353712892238,0.8719581194809429,0.9100821312947478,0.888601101885784,0.7979909709412574,0.7009395231521058,0.5952461277761574,0.4978238263433108,0.39059260915816485,0.2894144033267023,0.19909221694042212,0.19054262078447182,0.2745531568736974,0.3801988671229155,0.4895745389708088,0.5989217159082665,0.7024382867366941,0.7531933381244669,0.7180836304291829,0.7245913276280322,0.7122912343227907,0.6982335312208268,0.6923953528789266,0.683349021483729,0.6519754570067005,0.6356376020378052,0.6708478116679066,0.7179316662616213,0.7696013336212351,0.8086842489737232,0.8339055491663452,0.8077287060578937,0.728425818341446,0.6777900362978839,0.6490862838910478,0.6512771441469141,0.6782449010513336,0.695421739100518,0.7113203063088476,0.719309994925174,0.7295833471336495,0.7086941556606285,0.6494755716638101,0.5942596621045311,0.5907006707013538,0.640937724880515,0.7037728961209486,0.7577492909653658,0.7697343813064694,0.6951151990864857,0.5991312941541407,0.4960237851749747,0.3978310554086091,0.28990072485921936,0.1909854849977719,0.08691664157708834,0.0,0.01686211961275319,0.1148938928979868,0.21405501948917682,0.31817489561371093,0.4234730588168263,0.5218091746288216,0.6297695694436569,0.7211240281286522,0.7613866505784863,0.7681078318430428,0.7515111852728704,0.7288101013684416,0.6965217864899531,0.6459562241043939,0.6007964021302417,0.5842147949550676,0.6234153501582085,0.6871420934384973,0.7320565747403533,0.7657361559729836,0.800078072429782,0.8162665591672533,0.8234876950199406,0.8262276007548841,0.8452231637308125,0.8485721963138275,0.8485849534407117,0.8482761500297544,0.8340616501645941,0.7831837571309925,0.7260861204275055,0.6827226194803739,0.6982583880054107,0.7580764380156244,0.8299177787343075,0.8577717755142673,0.8324139466310998,0.7481511177027669,0.6454323276708769,0.5480678035610487,0.4423610690311939,0.3454781761739263,0.25635596395732807,0.1676250359549083,0.0764669076658222,0.06252811752082255,0.145467670206751,0.24639116081256485,0.3536671236879687,0.4511085366262526,0.558031594741917,0.6575389031244476,0.7574653953126858,0.8044015920733976,0.8050485298247099,0.7928909384342744,0.7666324405579734,0.734627973225795,0.6988302004741762,0.6449167045028454,0.5978429925444917,0.59236233453471,0.6357665761423521,PM
0.5387593666850035,0.5543769225464721,0.5820336954124294,0.602158504875606,0.5777948876257355,0.5757482604924853,0.6097119896776535,0.620136291743437,0.5773773772431348,0.5435289519564184,0.553512199369758,0.5839750185969161,0.6201192851464055,0.6166811825516327,0.5881901459059224,0.5917177525218462,0.607902004468468,0.6111106898271315,0.6367545390782161,0.6512610218408192,0.6622242539710284,0.6594824015816156,0.6720711589913995,0.6920449259442689,0.7140883077067919,0.7041475306568943,0.7135696580138986,0.7239366118891803,0.7462312913318239,0.7379154393251137,0.7045071913618002,0.6695622533971402,0.6312726772266801,0.5617931039909441,0.504992350929168,0.476027978456536,0.41825012942136475,0.3421162228790702,0.2990559818860752,0.3347813337543202,0.363005871786636,0.3849985829934779,0.374322716990636,0.3677782019378353,0.37315908102439455,0.4048485625079916,0.4628714540301777,0.5362497864187206,0.6110295218247566,0.6857871191368337,0.7573235433573191,0.8239548957275655,0.8516672459312247,0.7936462835300904,0.7217134886956078,0.6667565685106518,0.5997954923349971,0.542733625458431,0.48372506903926826,0.4216856199852148,0.3653228833728548,0.30483415301070327,0.2151044623475591,0.15628296720021817,0.19980803038643025,0.280642588527404,0.3358731330701987,0.32377333606786385,0.2825332249808943,0.32814111675475743,0.4249529325247208,0.5050414827136112,0.5830281671604358,0.6576739350988383,0.6928409088300729,0.6704043960691597,0.6745835366172841,0.664058678402947,0.659917144758785,0.6672746663249973,0.6740875876781454,0.6728205356384911,0.6933955053529015,0.6996882088239036,0.7033054324071308,0.7295232684372945,0.7344419730188259,0.7276535255026668,0.7281825323785687,0.7292158773984418,0.7144697269873257,0.691133231130654,0.6929181929414603,0.6746703716963656,0.7161345333605209,0.7519664977206229,0.7547186988153576,0.7708872533379139,0.8353388526045382,0.8758334220781245,0.8823453393821961,0.8418937251835628,0.8278085618888782,0.8137884988258786,0.7842245328221491,0.8050714479369048,0.9027490051836105,0.989795117101798,1.0,0.9667393905952628,0.9189934248714469,0.8784858014483983,0.8242415598726365,0.7620681428915241,0.7010516550958625,0.64939965560849,0.5648695245012494,0.4721785687289555,0.41586832676409013,0.47611523415639834,0.5587750243978364,0.6217085090371475,0.6408372127171598,0.6042930883696043,0.5594612508743517,0.580485982468145,0.5543924338099271,0.4792640825870973,0.3915618492734372,0.3055683547134569,0.21323009630632006,0.10870833301824501,0.056728490148344246,0.0624971707054387,0.13456764007761146,0.2378781906723737,0.3163376407441456,0.393481655593237,0.48015924145960165,0.5744493845237626,0.641031222142423,0.7000086315619578,0.7617815622884416,0.8146682206278006,0.8540919122458743,0.9063127947936365,0.907555176032925,0.8280307262372593,0.7355646397660727,0.6481186702794082,0.6244956346947337,0.6887725462204943,0.745760639219688,0.7647854098460836,0.7762276858349844,0.7968510724856985,0.7620255357985148,0.7090385536106854,0.6931021522753897,0.6966061062324269,0.6729031393236773,0.6249124297858111,0.6107680086489125,0.6256740300255803,0.6324114147811439,0.645220577046814,0.6619988117032873,0.6656406597457272,0.673883323025604,0.672908016576037,0.6528758161555821,0.6379945082900593,0.6364922257731327,0.621093926834213,0.6078399594049859,0.6095840698202211,0.6056143959728764,0.6097276263704279,0.601218835555565,0.6013662551118122,0.5964586466798925,0.5350699534432581,0.4557974547978194,0.37239398966844295,0.28352894151047137,0.22481434855993765,0.23157732106089313,0.2554538412906311,0.18205978451882876,0.08772128079908903,0.010072604297970411,0.0,0.06903577970175334,0.14184749637218363,0.22119072260610828,0.30501114407582497,0.3559828207726077,0.41495999775739145,0.4793659872147633,0.5394796430511843,0.5952689919004861,0.6604293859230936,0.7230980584737927,0.7326017520092938,0.6645972792477837,0.5904111394577338,0.5207560720042119,0.44852106530399594,0.37587937342425626,0.328237372163521,0.3058896568036418,0.3051405019613638,0.3121800725262647,0.3226226887391932,0.2971158180029234,0.2623174905204353,0.21252601625918421,0.2155304192412193,0.2933633345324851,0.3802598122330565,0.42460955298310665,0.4568150070398609,0.5270809404749128,0.5909723975492298,0.6266087332120227,0.6624348973791259,0.6702175676742672,0.6569992276664638,0.6522441870697464,0.6431838140611679,0.6527009544706681,0.6289754016800693,0.6160623739563031,0.6023957220460581,0.6002428343957535,0.5845556797509093,0.5631306972386003,0.5558231261349666,0.5482999353441134,0.5250806826339613,0.5226635440254341,0.5499068144323966,0.5540520957689345,0.5168454927308694,0.4970701902789414,0.4864904866467672,0.5064570238945736,0.548683092177428,0.5373066116722844,0.516325207354186,0.5201241895889788,0.5330690031769381,0.5127681482664861,0.4900944656819406,0.4742998637469187,PM
0.8659145144384364,0.9030842194937274,0.9150407840527057,0.9209735984048786,0.9139359253048167,0.9136606922346573,0.9037631330042264,0.8237631443578968,0.6936070989965253,0.5527089609127676,0.44181021661266584,0.502766019450672,0.6377135731177845,0.774371277141003,0.9065263824106147,0.9528655886239168,0.9328460006032242,0.8942983501060815,0.8210774612015102,0.7869122632878724,0.8366739073248635,0.8695119586014024,0.8699373155291634,0.8588170688879666,0.8540407225362614,0.8372076469289538,0.8551711978189949,0.901433634149472,0.9322028746104203,0.9365292129235643,0.9364961333824295,0.9291628176732223,0.8920193065628714,0.80279241594851,0.6739832887126762,0.532915709689525,0.43688723597563106,0.518724490546203,0.6560984308864324,0.7896412339418206,0.908078345617811,0.9448503969718036,0.9294656227396052,0.8812845611895446,0.8077785483154067,0.7912476114735885,0.8524801269991662,0.880272629457481,0.8900081205470838,0.8754503861874987,0.8561796738292182,0.837175477339569,0.8704406073009796,0.9045916073782796,0.9174663169106037,0.9226375590465259,0.9347726841910866,0.9249019397294118,0.8709417560838766,0.7957899459265607,0.6764501794449367,0.5278425080160862,0.45639826584449583,0.5724192285013672,0.7094459486990075,0.8404435249507931,0.9245280558636337,0.9509506764976092,0.9999999999999996,0.9773455919385272,0.8927742362109958,0.8864778202050729,0.9588279646663378,0.9794767260312156,0.9753916882401894,0.9695510945113197,0.9661862247940887,0.9291283191678894,0.9208064905427182,0.955459449679398,0.9778568112169599,0.9737723454706231,0.9723898826272319,0.9711877768455022,0.9610904817815444,0.8853949801717769,0.7979202046368106,0.6820621000156977,0.548047576948651,0.47461793154966747,0.5886170635071086,0.7256973491412908,0.8664825090742054,0.9487158206849013,0.9523428202404745,0.9155862824217333,0.8622873673293396,0.827374729660018,0.8908661315084587,0.918877916612852,0.9075663539575123,0.9032232258563284,0.8986577776735567,0.8863262111254611,0.8604905370302625,0.8994309774211584,0.9453463347994857,0.9526811650843001,0.955246644595193,0.9470649816809322,0.9412704938668046,0.8987603414832956,0.8273424545886732,0.7050708923227145,0.5717650165156036,0.49817257352841926,0.40403883509693994,0.2746247717180914,0.24909267947211777,0.3278150198472698,0.47785955418306036,0.6165691135793496,0.673501742142359,0.769566867883885,0.8364269437135681,0.8748254026288826,0.8717857476948847,0.8729975301466739,0.8833096067264314,0.8495683747130331,0.7982446628815931,0.775060730725873,0.8093174795226536,0.8314127996920995,0.8234303924830191,0.8300318993460061,0.8363024945546247,0.7781780023469747,0.7296542229192386,0.7768190013533798,0.8452652728164587,0.8890067073792611,0.8620476949607365,0.7454294762709281,0.6072184121350181,0.4723981525383216,0.3644598269023742,0.226799719292758,0.08828474372265571,0.07547898701221589,0.19692771688771993,0.31219610250955077,0.42506868762409233,0.5594621279577638,0.6921107160812685,0.7972917855694801,0.8856483518281992,0.9042207190569993,0.89533681535042,0.8987363400419293,0.8996332681022605,0.8634324136140181,0.8446262785175449,0.8727561312108811,0.8880774481821687,0.9017900221429125,0.9022693168365237,0.8549854142268241,0.7804120577416067,0.7984319915819573,0.8893821483222912,0.9267701496401393,0.8627580816067444,0.8333930801807194,0.7292253082147298,0.5939321050360498,0.4529249087985163,0.31546036796107124,0.17377145598464994,0.03900340917939005,0.0033127271527941815,0.11923660380791778,0.2576114059276913,0.3821410228285811,0.4924311048306085,0.6317344678193519,0.7518643268721306,0.8262534456717643,0.8647444965922002,0.8629557540797181,0.8583733628194397,0.8422669617949907,0.8014996872953022,0.770199190716689,0.7869105014552513,0.8107620782517464,0.8235656712619281,0.8164135193701969,0.7842005742329707,0.7136955335554358,0.6988929401220121,0.7627645234455578,0.8408099713670123,0.8749826223191892,0.8099075494466201,0.680832982095938,0.543123780110097,0.4221204372788194,0.3003243786806924,0.16448478140869227,0.03594570759220961,0.02777876909903032,0.14969315202866262,0.28578831174852715,0.42333841773741687,0.5698128682812711,0.7204218473008104,0.8175526509674444,0.8556809321862522,0.8669333156928247,0.8668114798760347,0.8580595698007358,0.8294752038966835,0.7878100658186966,0.7686654515008637,0.7806273554746133,0.7947917057227478,0.795282962473288,0.7949375019161642,0.7452495279715872,0.6697983025078105,0.6965887402413284,0.7760998099891743,0.8482653706530625,0.8752281571097651,0.8130181988477521,0.6873178781631157,0.5489790208987158,0.40993547298935384,0.25628954084658373,0.10695833661891374,0.0,0.03086054564072427,0.16649039243932773,0.30301208555680326,0.4399482365562042,0.5858015522475504,0.7207853807983713,0.8196899716849395,0.8563983391513617,0.8547839111969986,0.8405313771281655,0.8525576325450559,0.8320367106378312,0.7916065136873116,PM
0.3459646504304583,0.38363293358333905,0.501111502599592,0.6229568746658858,0.7481718810519489,0.8746813483870719,0.9928516283915121,1.0,0.8704244293483177,0.7253895059245261,0.6254342459533646,0.6332007991896704,0.5393784688423287,0.4260791101433492,0.3844901557541611,0.36439084934567667,0.28555724896055423,0.18754684793519427,0.12726728965873502,0.1818199213583256,0.2543293305439862,0.28985155470379187,0.3101646280636059,0.3234299032190151,0.3237738953677036,0.3421350681932731,0.3742940716922014,0.3727579532049372,0.388308789278053,0.3381971372183301,0.3239204747720077,0.3389516888733155,0.39573587141009625,0.44120882782384463,0.45897857748030724,0.43488246944713804,0.3482580508490152,0.27013406986264954,0.21799521188802107,0.2042201384989184,0.22215289010720252,0.27213597307359993,0.2943909280393333,0.32198064228200174,0.35346319223528244,0.38217067038963126,0.4501802988400776,0.5637899897526264,0.6900793039254509,0.8055151579284647,0.932075006906941,0.948342246727945,0.8324449479720348,0.7187974259022027,0.6930386850806896,0.5936508705733088,0.5038932633505766,0.47021841136899667,0.4183423476663286,0.34752948901376257,0.25250974097448875,0.15759662795846818,0.14322789486966148,0.21420764142596216,0.26986150483199633,0.29361471552044094,0.3202863811611927,0.35248820879253095,0.3537851393894611,0.3667885643013511,0.3832078156887393,0.3742772891353292,0.3394721512480299,0.3516002413073176,0.3321528634361055,0.3236731731272826,0.3236263715127565,0.32287465307311347,0.3104441459977414,0.27710767737346753,0.20560831247417433,0.1511684945206495,0.12127807291840575,0.14115771839204605,0.174995125695796,0.20658364892227432,0.21360739880027513,0.2063571273725584,0.2426446063871568,0.3116160072470766,0.40706597667834465,0.5394210733112956,0.6584781890951925,0.7870600377775157,0.8945100001921871,0.8587540851273952,0.7258212563860686,0.5812801294721153,0.48879615124496034,0.5205283379696191,0.4528632018453269,0.3623405983525787,0.3615148048651555,0.3542509457475518,0.28176471021070615,0.19038237296387006,0.16114579559550535,0.22203368468035123,0.2889536727589235,0.33643800936065915,0.37977826477951737,0.38602919489747656,0.4174582819836985,0.4717663140117523,0.49111802109266645,0.4625023613100696,0.4637413028257962,0.4551042104915428,0.46386934234617705,0.447725983491547,0.4779581899666425,0.491405300645563,0.43784044148308876,0.36992312918634696,0.28176457721014003,0.20723625828095127,0.25230963095899916,0.3216077580126555,0.36252864281698294,0.3584001580753666,0.3468338103808497,0.3599956657139449,0.36136896318324485,0.3506389792817748,0.36587106678579495,0.38875011353327604,0.32929110626295,0.2888219659558411,0.3005003703238742,0.27803526047707905,0.22199975243245884,0.16448275681950353,0.08795419890321998,0.045416035533372145,0.06985903121383163,0.1413562393406842,0.23210876097793776,0.25167251086902187,0.26845198612069154,0.3067072875992345,0.18764458527910755,0.04828375084647085,0.0516458112207836,0.18023702632251837,0.329097234693573,0.479638989715677,0.5664463889251694,0.48214569472803426,0.35176717748486475,0.2552674022428718,0.17944824160885453,0.1321264047373223,0.09940998435448112,0.09262402835602845,0.0984764742070734,0.06715901834406335,0.03126353070211341,0.014358255747565885,0.04613913810168491,0.08576254277069584,0.161887837487539,0.20612541523144579,0.2123538417462747,0.2173988537771958,0.2222379162639294,0.24014537593633456,0.2458728023136061,0.23932610325875725,0.2699094469940748,0.27566258303006386,0.2614758212189816,0.2558920451734199,0.2502482429559816,0.22112058448661465,0.2041577678852189,0.18554858528350326,0.12500976557026888,0.048781235135154866,0.0,0.03495099139610591,0.11830439141970928,0.21768887360469513,0.3096058991222952,0.3687361867864709,0.4001860843710885,0.42040141692763733,0.3381935420184847,0.19314888295598465,0.16085618141248403,0.2797073286698737,0.42666691816676927,0.57316935453487,0.6936652279419313,0.616758970448271,0.48160793192649454,0.38256270667617187,0.30895473996666034,0.2642177768450358,0.23645586566482102,0.18628943441295043,0.18107073677507124,0.15304568433099597,0.10412984635609224,0.08960196768622275,0.0956999120919857,0.10948227780722863,0.15958092293394532,0.2431912562808245,0.32107167192958563,0.3389993694183273,0.3040311190302907,0.2352749523703297,0.22601505404854905,0.214768135779015,0.2091847469743815,0.25833071829732646,0.2790183562024744,0.2432065165617736,0.22756631604977606,0.20606836358479974,0.21927772397206713,0.21424112549376062,0.1971591282909495,0.15126503879368958,0.08545027427474672,0.023356631104173076,0.03351890963567605,0.09694266414935004,0.19601633130498097,0.28658755701183924,0.2935696088806621,0.3066578840465919,0.3911945659721692,0.3875997362678927,0.2555514681006539,0.2163792494774981,0.3309309403650875,0.497553729416242,0.6586809210907987,0.6787055314396193,0.5602240635207867,0.43905639444774636,0.32045066194526317,0.23704537642498824,0.2100349611036103,PM
0.4274291756060644,0.4920426960582289,0.5018996685122192,0.49046254564328784,0.5024095281102174,0.48528475266958226,0.4830176304176801,0.4936551348199254,0.5199423063090785,0.5868792578498696,0.6476133669454884,0.6575094967432897,0.6054278858547861,0.5414422461506754,0.4787328223947478,0.4369222096139538,0.43380197729135705,0.43379889170008523,0.4337909602436296,0.4299582068732226,0.3965346113687098,0.35592557183403706,0.3392115150791071,0.33602220583025,0.29826764632381897,0.4002578839624604,0.5201843411043172,0.6456233613361282,0.7680021081758333,0.8763328435349504,0.8849815789149846,0.7878065789195481,0.6653785865143385,0.5478536083117374,0.4473779494682839,0.41118153818475145,0.4026364401282643,0.36725440983159885,0.31955378847615545,0.2976021539774578,0.3277661766740314,0.3887266737673234,0.40973143901946996,0.4146481654563794,0.42416805862726426,0.41075300369603296,0.42147078239677827,0.4258310381934498,0.4552228559787226,0.507138032865448,0.5253252020106838,0.4892812847903194,0.43013326720066347,0.36485591203090983,0.3162159410115204,0.31080649686770556,0.32493693344291197,0.3396367965820515,0.3572342527897967,0.3624378689745291,0.3553196782827719,0.3274631183202299,0.3319500375116622,0.3204403479587441,0.38612513113792435,0.5041788231658031,0.6300494311620253,0.7497546002349149,0.8773910475828903,0.9633861879832764,0.9301415467675844,0.8178710990497993,0.6974945018855885,0.5867842684201272,0.5136829337245667,0.4908195592970279,0.4598107078935154,0.4179458559430982,0.37253745922208337,0.3260948509556143,0.3384465304921651,0.3889293197865653,0.4097485423152394,0.4100300180058887,0.41003001800588734,0.41003001800588645,0.4106166766076953,0.4385381155723316,0.49998116005714577,0.5271387493073685,0.5045447311377842,0.446604496407796,0.3927302908013779,0.34781146926725137,0.3395091077013519,0.3553033843701705,0.3647598610890812,0.3891142991206289,0.39809719589927894,0.3663986146967715,0.3221584180040207,0.304777783427284,0.2663707204336281,0.27656043886003934,0.4016429379339965,0.5318602379918294,0.6485980456122307,0.7809165654049024,0.9005721890421552,1.0000000000000004,0.9884004026240993,0.8859184357960985,0.763205385395366,0.6482459238590317,0.5471319935124783,0.5205515273606927,0.5041367106399663,0.4741352188762833,0.4142329919047065,0.3699044820261501,0.3715575930542001,0.4184727589657711,0.47848144698438766,0.5042662753675238,0.49425597838902924,0.47216402893070164,0.45682760712275394,0.4449964572838385,0.4668684218288468,0.5110924936829719,0.5039725342405195,0.4475566483791855,0.39802936818830226,0.3616620781152706,0.36536099622812124,0.36488678984690237,0.39705739789380345,0.4135312793893262,0.421388376528089,0.37244517975898983,0.3182124050709163,0.2737559138238086,0.27928289861177413,0.30521766511774207,0.35983642563509965,0.41598979608785136,0.429709156237867,0.45276248396378227,0.5164663403046146,0.5467477610412632,0.4474124392105887,0.315885357676434,0.20266933452553992,0.09481664386927857,0.0,0.02210292204445352,0.1244292251412018,0.19170300830173792,0.24234912896309035,0.28911521894662817,0.3197885550815607,0.2963541612170735,0.2896768666440668,0.275974724049322,0.2667512131725429,0.2636124338753989,0.28645250079103146,0.32658623377664675,0.38525498389058743,0.43802467887819496,0.42542699446163024,0.37605178179935805,0.3413691753625989,0.3314553734655745,0.32924277680202163,0.3339836928415947,0.34207216534847396,0.35187250108498747,0.3272039480580369,0.2709566268549777,0.2433320844442437,0.26359460434758475,0.30688891008230046,0.3563890281109976,0.3980028598102723,0.42320571732506274,0.43910968819991947,0.5083303661094996,0.5592911794991937,0.45642634210737976,0.3334610521761454,0.23116754503734382,0.15620274813159574,0.18807376747913818,0.2197247484075433,0.24984404075671884,0.2774151374404492,0.27268857122088797,0.27882523703263384,0.26090147655376184,0.25200764362800276,0.235886814885641,0.25315620397965466,0.29480432512703336,0.3581022444387072,0.4221086973873276,0.4411299565142399,0.39903904725366246,0.3501187225847926,0.3393691213905501,0.33531215568817707,0.34831756014249615,0.35297344149830456,0.3525305260297156,0.3273707436677249,0.2620552227172541,0.22334319014727333,0.199303808986111,0.22449848622000346,0.2769677471303864,0.3208968403251986,0.3390135600628774,0.34971691645708436,0.3934075797038816,0.47601736029096475,0.48101390279402123,0.3728301584719276,0.25331362380173017,0.16665152776280756,0.14060383498170648,0.21942580654635346,0.24439255843325958,0.2764498927862249,0.3121119444445113,0.360389135463973,0.3765184834801416,0.3681637644014675,0.3452808855942511,0.3430277484765787,0.3535859189495407,0.39351835002672386,0.4510890502366931,0.5130475810533324,0.5706269425171269,0.5400376026317049,0.4738979794987972,0.42711270852456273,0.40167837802511297,0.4098730912161104,0.41787176487596644,0.42424397896489596,0.4245076217319128,0.43015907526698616,0.3823641455499267,0.3283680118340766,PM
0.8399685679754092,0.7436289060886989,0.6313728288337899,0.5865831891920683,0.6793851739084502,0.7916534858914979,0.893783437803847,0.932325770544224,0.8977120899818072,0.8335444610405753,0.7832108318457296,0.8073574724400823,0.8500164063624309,0.8613425273213915,0.8573991353060029,0.8686895713654117,0.8548801808752584,0.8284372732638796,0.7894174163372423,0.7203329597872865,0.6359631126584593,0.5708498382829563,0.6104492148842531,0.6984818254057843,0.7822509455605919,0.8548500845193723,0.915650111790264,0.9491519183432708,0.9741922392805038,0.9643198906654602,0.9029854376390207,0.8072352412666288,0.6969975518796718,0.5963913696756826,0.5149113382713346,0.5139605029680405,0.6212225057464513,0.7334348367294079,0.8455519565862675,0.9578653072647398,1.0,0.9690152175398938,0.9146233063434503,0.8802565659094248,0.9096334571663354,0.9574201528045418,0.9756159312958537,0.9682386493071906,0.9553842499128065,0.9369813303840044,0.9079193294475845,0.8559404361376548,0.7806301603546753,0.6906999505857576,0.6293995426266572,0.677382685973384,0.759954629780732,0.8455521788080316,0.9065071081353797,0.9512214261498046,0.976077396384115,0.9778838230398437,0.9313203817607896,0.8457974368516554,0.7374687738623877,0.6193763859568975,0.5148531231336784,0.518246136680915,0.6308313402968238,0.7428778451180356,0.855098155968268,0.9517594920969565,0.9683521427290329,0.9264479251553825,0.8679902299768529,0.8427802917839147,0.8851843249203584,0.9195285195478147,0.9165313256077519,0.9051456435078817,0.8848564958415146,0.8803488931136405,0.860151695114796,0.809504179961904,0.7348620217779742,0.6446822544422748,0.585556187885794,0.6346363421022545,0.7188787438632511,0.8035699895591564,0.8684818153509011,0.9078480737455261,0.9238582240361612,0.9248151190522131,0.8761901736068944,0.795638947091029,0.6890561398796815,0.5769698175206672,0.457916760899312,0.39123302872749477,0.47864290695928613,0.5923258890819629,0.7032966079379279,0.8109170290409682,0.9008947920875214,0.9084099369990928,0.8573028879755333,0.8053603757502534,0.807273814778962,0.8533661650444642,0.8903021705663057,0.9024243255531204,0.8941684161932923,0.8976934297370454,0.9078566719015155,0.891812611242154,0.8632024357888604,0.8444332232374361,0.8393601654982858,0.8406188463637414,0.8399920551695619,0.8220391199070027,0.7734292980801158,0.7292940897849274,0.7495174234214033,0.8061829006737145,0.856065687882599,0.8185925515672379,0.710557535847911,0.5891831412223008,0.47935541322824804,0.38931017527348843,0.3068650724538229,0.2100462168107058,0.09302200892676948,0.0,0.016852683045851302,0.12154811617188366,0.24040456855452752,0.3533202064746681,0.47532353231081403,0.5905557263097978,0.7068448678694934,0.8101165245818622,0.8641340572004657,0.8670569832229429,0.8423658756973169,0.7883668027462916,0.7106827618020439,0.6301609269519441,0.5498113456682652,0.5242373964341009,0.5901708523220859,0.6798393521413897,0.757672554411327,0.8122305448541414,0.831153135677404,0.836502082022589,0.852716385346111,0.8618716727797295,0.8611434457169058,0.8165101998430431,0.797503705631327,0.8363955342759755,0.894075433474955,0.912991212593464,0.8284490267166822,0.7066322141727048,0.5926019035496077,0.47739917124323794,0.3648212353879059,0.24675638756468543,0.13420633328865716,0.047994242771836504,0.09219798997629791,0.20579138900069127,0.3180893209257254,0.43827529677864874,0.5509247882495405,0.6711171740248361,0.7919504874462047,0.8868867561754601,0.9324313034596532,0.9227559920581765,0.89556498955836,0.8442568165791573,0.7699610169638178,0.6848481577234069,0.6037699722029677,0.5641097644308029,0.6219440299806092,0.7116154346609895,0.789229350660928,0.8515982743591639,0.8881076908055685,0.9058397345214586,0.9137428789388884,0.9235543551205434,0.9091134882925056,0.8594044773814074,0.8180346701937355,0.8386725910872257,0.8994034707978154,0.9358361709452687,0.8650150937273864,0.7564403222366249,0.64297550841887,0.5305123575413995,0.41057287958927047,0.28751436403781616,0.1715926678327404,0.10588137451132162,0.1685185502430251,0.28042058244013734,0.39710245072921,0.512026200704931,0.6327739856457759,0.7445145727435403,0.8487435309678468,0.9175177327127417,0.9176754647656931,0.8855658845655032,0.8367546680198128,0.765110069481298,0.6814863170332766,0.59741888731019,0.5171433317493994,0.5002230627405297,0.5650737166057649,0.6514129044569628,0.7314262081210168,0.7770909702914666,0.7967363115947599,0.8117116866558605,0.801964231993693,0.8053183066241143,0.8063217217905252,0.7657872433383308,0.7243499078838416,0.7451220769957052,0.8064908828083555,0.8692605127849964,0.8644161517040292,0.7677485934816066,0.6562963717082506,0.5431428807274612,0.42821024480479375,0.3159148861657304,0.1964646060198163,0.0893101934755931,0.05844190749795075,0.15103867536497528,0.26746857476425157,0.380245234085665,0.4931670236463255,PM
0.8014893741019915,0.8029953204542426,0.8363968939320838,0.8804480310250551,0.9115194681944561,0.9158114486155167,0.9170845466719999,0.9223880608794637,0.9464553156271001,0.9902052354585498,0.9757714446117627,0.9046011453029512,0.8206175559245541,0.729135099070821,0.6420773663638504,0.5465562250501661,0.4702992745062722,0.516308259517249,0.6057515864285636,0.6917616322837878,0.7724562996990583,0.84728865451199,0.897428849772899,0.8705274905648401,0.8269962424072406,0.7686154087687462,0.7217753379760119,0.7607727890374141,0.8103445901911128,0.8485149766646736,0.8587617285576237,0.8492171034876967,0.8426546431680209,0.839396722165026,0.8448491678667109,0.8507605682682089,0.8430890369066113,0.8262612417374846,0.8341281364972504,0.8762437231132585,0.9172197562440891,0.9418140644559532,0.9451491567093424,0.9309130909096155,0.9349948265995185,0.9556169381174768,0.9999999999999998,0.9712032629608214,0.8946541215278063,0.81194447117676,0.7252711645853724,0.6370196255140421,0.5456224134492298,0.45647157049074716,0.4632646941437184,0.5476746905395635,0.6434932783873637,0.7320556933453848,0.8104887718108957,0.8828465713865563,0.9063202127908523,0.8649450763367692,0.8292498374482709,0.7712717238859861,0.7510443656524111,0.7939986799785494,0.8254944545367919,0.8254575380994911,0.8255048602764015,0.8197553905777479,0.8179374301050164,0.8237898480342383,0.8196422878330412,0.8176630439614836,0.812910898440508,0.8132816296823882,0.849568838270838,0.8955374208490967,0.9208015237880407,0.9231841439533153,0.9293736626301128,0.9309488113402893,0.9463238304092194,0.9663154170863326,0.9172735526364704,0.8356867755232507,0.7510076592638752,0.6592826059707235,0.5733721622865353,0.49246493848511896,0.4377856425606088,0.5037786025356943,0.5908650091720924,0.6784168109587554,0.7618609390072846,0.8359108625503142,0.8853849558891176,0.8649919450801311,0.8252604329445601,0.7659051116097924,0.7335115569719928,0.7768433847511085,0.8169999165019821,0.8280023778465615,0.8176530767835086,0.8104650402576203,0.8072939040465597,0.8055043449722856,0.8146043508686314,0.8129242110429729,0.8071724537352891,0.8168334973922244,0.855573578129772,0.8931313673890522,0.9194142385036985,0.918534801151732,0.9090400636466585,0.8900110730462043,0.8782943975246813,0.8773902671195442,0.8597107323538784,0.8201333953380445,0.7821307788138105,0.761949662222343,0.7681562276246685,0.7782704841313162,0.7731074069601303,0.7647740816674038,0.7682642033563691,0.7747755905258564,0.7857286489769779,0.7851287319164151,0.7419253626314191,0.6931831360945397,0.6793974181039595,0.7316906377954842,0.7893061394253877,0.8111085829032703,0.7524152520956877,0.6713474589034585,0.5860273206558504,0.4997342212975404,0.40875866008821893,0.3206174887661548,0.22616144173218533,0.13951819235845897,0.05187770165541039,0.04128198598236654,0.11992655771031635,0.208622539561935,0.30272762290530286,0.3894894442440424,0.4844117035954676,0.5732208142592568,0.6637158913358998,0.7505544644451521,0.8372587418297928,0.8934929691296916,0.8918468241058843,0.8906291479486639,0.8855595995125374,0.8817493479520879,0.8485129588546443,0.8047469204296374,0.7701399308247454,0.7693718171778572,0.7816736334805141,0.7789791916476843,0.7807653099143945,0.7840338477950588,0.7764616474444688,0.7801035876899662,0.7861048797810628,0.7868354481589235,0.7775091652876525,0.7378183639565477,0.6923514063516107,0.7068497570672017,0.7637330292718152,0.8093560023757875,0.7964246727586441,0.723149724184154,0.6401561576893184,0.5543722777074782,0.46197784543125087,0.3749361365537589,0.27979528680852694,0.191750156469364,0.09995230390195586,0.031198922212270386,0.06607947599143493,0.15354546039971662,0.23909270325327125,0.3101966242814298,0.40364987434359656,0.4995013965302979,0.5869485688575946,0.6797563366364006,0.7685493530719689,0.8525233372906136,0.9097147827844105,0.8972887039479398,0.895274020562552,0.8946205602985546,0.9033731731781034,0.893327893969486,0.8663825215858816,0.8186124662459411,0.7897522525240304,0.7818272699910025,0.7966404990028233,0.8001262385927947,0.8027049028693296,0.7948983425948086,0.7976525595618174,0.8015729138147913,0.8046454221741202,0.7960080410949086,0.752579059325696,0.6972206234878378,0.6628738894076798,0.696584231274864,0.7667804732459118,0.8170166440574482,0.8026092533722544,0.7274258215372471,0.6434397142262156,0.5562846106605284,0.4660730062816334,0.37893938125239,0.28557778872284323,0.19401418370990786,0.10538004009403634,0.01538156808099611,0.0,0.07671418889874304,0.1508647086563344,0.23556317220465917,0.32851632702607914,0.41590975978337585,0.5116585661051087,0.6033531609310312,0.6919093612826546,0.7861454877457079,0.8710482919271658,0.9257374508909673,0.901743350572844,0.88627792116642,0.870338879242192,0.8718838237082112,0.8652614797538696,0.8355481970254071,0.7914339448819827,0.7632462643587627,0.7653338447726388,PM
0.45164884961413687,0.49680200584639067,0.5198648157820993,0.5305004679076548,0.5281903903428993,0.5068738592620736,0.46714420600452344,0.44093199700755425,0.3990837812784198,0.40601560041581886,0.44167343219916466,0.502105031723945,0.5513157656404051,0.5766352055692581,0.582681977781339,0.5990635396292157,0.6422785579656036,0.7141120522903934,0.7497476413837543,0.6736501137434048,0.5641068352988117,0.4982019951649077,0.4970237876240624,0.535276768990276,0.5267525808540552,0.5219689563189447,0.4576677007859429,0.3679939194875166,0.301089958172319,0.3528010646140691,0.4309304100904181,0.4885927405387438,0.5345263490932801,0.5616760706879287,0.5815780715209038,0.5809022538048527,0.5632335182130856,0.5432895113674037,0.5513899883802305,0.5869379287823899,0.6372777983768332,0.6826378325261007,0.697156314658554,0.6995645783410054,0.7189492277077218,0.7528919558387992,0.81877552907513,0.8587003411536132,0.7977013728861149,0.6859084658219898,0.6255002690916598,0.6271044071835714,0.6952207535848602,0.711909942251908,0.6715968516167714,0.6198699857318095,0.5423479689162556,0.45571738127278705,0.4227397447803436,0.49478821064864587,0.5787465346579088,0.6397075351826764,0.6714421217661393,0.688224549056998,0.7021824690247378,0.6775793523962328,0.6537231845381641,0.6204391765899375,0.6215111742510722,0.6483683412608623,0.67365137902675,0.6758452239397497,0.6708569250912464,0.6437363703567089,0.6275832304285078,0.6711187793190443,0.7599842102372185,0.8144325590658434,0.7620038881892333,0.6588297154449823,0.578467868188433,0.5501661745600996,0.5995365927235237,0.6372862972386497,0.616645869942495,0.5885493830866886,0.5215784229227909,0.4293047559374332,0.4040561203516857,0.4740317851462956,0.5421856576841959,0.6089296100110562,0.649642353588709,0.6810045327268992,0.6973076015476911,0.6733550681550136,0.649552803118381,0.6104248556913103,0.5566706113752682,0.5263057883104385,0.5667834203947746,0.6226977332611079,0.6554102465903995,0.6496331783282341,0.6439312478872088,0.6486147178107173,0.6928076783635162,0.7837223743593436,0.883616016926386,0.9726733467123099,1.0,0.926330742625908,0.8110569756651009,0.6988325197849656,0.5818844103267566,0.5217284343447219,0.5842746732509294,0.6137746464897536,0.5765119321188594,0.517201212384446,0.43480996254071913,0.37356292121940715,0.3269369089569989,0.2513035061295512,0.15685572977563345,0.04091555196507457,0.0,0.035238019830334366,0.14989553349170315,0.26210183404797327,0.35283350572500005,0.44211816800817116,0.5145245841225035,0.5221161997626171,0.44166554144628956,0.39981399053002287,0.44230131018205787,0.531021902893233,0.6448676276393468,0.7564579385595707,0.8349420159744807,0.7764417408386706,0.6809812863102405,0.6088136160414601,0.5756346713845062,0.5796977155977587,0.5827456801728528,0.5850784438870695,0.5621011633642001,0.5083902046158273,0.458837721241395,0.44996395497765995,0.4989028136183391,0.548361860863757,0.5867033521096778,0.6141045467696973,0.6282012792560985,0.5941380042061093,0.5550236133855706,0.4991010469757362,0.42652936452560697,0.34704889346865997,0.2840152072454716,0.304906425432077,0.38276250451300786,0.4737649604077627,0.5319331889200289,0.5600224421924369,0.5159774569078879,0.43037542438996645,0.4038305218421634,0.3812179745293687,0.458130053596999,0.5723966881518341,0.6470142804988153,0.604870020105543,0.5573586756162761,0.5629328286377344,0.5909874873688135,0.6086439568290563,0.5956416427624238,0.5781323450306264,0.5423812894576301,0.5500455506708328,0.5858066650564115,0.6039050229955403,0.631254044468402,0.6238569895012582,0.5967238990146693,0.5517287117398655,0.4810058076478696,0.3981745765571616,0.3249008945321452,0.32970909773812407,0.40634807570429343,0.5027450686919996,0.5786632694056162,0.623519522936876,0.6231624700253251,0.5385567687915125,0.4871715346101153,0.44987945446290656,0.5021380410986049,0.6108410651200993,0.7139737293704642,0.717416029832513,0.6678954744780077,0.6484855719982003,0.6294973051635817,0.6252305112456549,0.62158001178343,0.5887135254858489,0.5406124289295016,0.4954386271528324,0.4725266132202055,0.4871875248656732,0.5074138647676802,0.5192048202497443,0.5162329089115456,0.49529572249684906,0.46986256617702127,0.420191304615261,0.35275235173719466,0.2662653590447013,0.1880376982183214,0.16659925591668623,0.2389320706521234,0.3294545491549581,0.4191561258248053,0.45821601407313306,0.46009547692845043,0.4026486970512422,0.33787698356855866,0.3221779574665371,0.3463235050578053,0.45336964082095843,0.5641811333683844,0.600213415771929,0.5556773907471064,0.5222187999934982,0.521663047429346,0.5123654991719029,0.4816515376087791,0.42850149868787524,0.3781981487719346,0.33811679968345665,0.3343944184325802,0.37374777205571297,0.4061197525668119,0.43178707186508847,0.45173409634076656,0.45539579928625207,0.4404643750392774,0.39075908820494076,0.31793184123596374,PM
0.6562348693343871,0.6719879836335698,0.702063291551136,0.7122067851877318,0.6324465069403908,0.5820835950249585,0.6733357190769862,0.7901941634413783,0.8867969024565636,0.9529400203720182,0.9206100605389937,0.8164371711653726,0.7465986676662246,0.7383148514390974,0.6952472228340856,0.6549061479383389,0.6293571938522629,0.6524578768342981,0.7030495541793207,0.7589316774248469,0.7914585375671295,0.8012714652933193,0.7892258003728188,0.7748643839263525,0.7857053207478559,0.7756947203525613,0.7718683017373071,0.7705785968164576,0.7535628001402883,0.7378607995447286,0.7503961754156472,0.7519496046168728,0.7559842116495386,0.7877329556360779,0.8048852478268942,0.7660831694567554,0.7240666964510405,0.7286002550814836,0.7320188462454573,0.7319149377335519,0.7232967368405987,0.7123850545989887,0.7146592900674271,0.730016595627637,0.7447883301719411,0.7785340245753583,0.7619510571490755,0.684701425215279,0.6093747868096475,0.6789082427119459,0.7829335292752155,0.8929416413351334,0.9781842633115043,0.9941546523668485,0.9181116287563214,0.8296496920840553,0.7790209947526892,0.7468889744612346,0.6931265636136739,0.6368228431537055,0.60258707405904,0.6332499712266344,0.6885196895018058,0.7276056048400683,0.7319882766245338,0.7288859957845841,0.7306563960259389,0.7292593476055544,0.7271086732699819,0.7300590903151241,0.7043315009762243,0.7022844021279093,0.7119206128291511,0.7121136828360721,0.712165773542345,0.7207210605610141,0.7525042294173065,0.7690685488360813,0.7455180617211692,0.6953470901745553,0.6910851016814461,0.7105205146682434,0.708696279460133,0.7037619589635349,0.6912254538843956,0.6748589929012141,0.6729639290948577,0.6863978136971114,0.6992906676743686,0.7490699062039532,0.7537192933814261,0.6771789820532699,0.5730732368684248,0.5386923796048677,0.6310123724331045,0.7431300323152015,0.8593877441301334,0.9568745268538037,1.0,0.9405703426374465,0.8446638898512111,0.7786573260108791,0.7593651637672214,0.7120012964613034,0.6430045281480408,0.5993852568521745,0.6181154764514152,0.6690625061568438,0.6999774246369306,0.7118281958697978,0.7150998238996475,0.7209288192222476,0.7173714050084357,0.7222912813605569,0.7224208596789436,0.7169234162551907,0.7005532398738876,0.6568189208624688,0.6462481889814544,0.6573525871725092,0.6586157385476135,0.6499787127495575,0.6516188090630486,0.6550542213620001,0.6549305429453502,0.6317798683090179,0.5972973535675123,0.5510158395269875,0.5143908379434703,0.5258714907064794,0.5855236572547033,0.6506471624900168,0.7084548715043506,0.7268803063516143,0.7743077732399164,0.8317743907333854,0.7630075667038514,0.6463254641881808,0.5355166158356632,0.4284125280561124,0.3100395049126905,0.1914035022770988,0.08234568570966161,0.04199201167014355,0.11609007038597063,0.22618835092106426,0.3440680937451983,0.44932554284055604,0.5615001639383066,0.6438950544942252,0.6268119598461137,0.6168045373479663,0.6118740869043973,0.6142939870668829,0.6123471635255844,0.6325803758785802,0.6374655468950121,0.6511681892524361,0.6572782482029758,0.6306245535987198,0.6291950068210634,0.6692559713865127,0.699527519762142,0.6807264774492965,0.6573481439602271,0.6509626248535079,0.6436723686048187,0.6387024860086474,0.6514230381901389,0.6454142103187492,0.6521286515563269,0.6413970299776981,0.6471510721270857,0.6639365671542188,0.6603830770897821,0.6565687154490618,0.6603885964611584,0.6512929046983333,0.6162751718479882,0.5664020698810877,0.5224759829363705,0.5214304864519073,0.57639149347485,0.6355755745808866,0.682368849011521,0.7216051494941067,0.7564529673142606,0.8320830331972959,0.8204229452356366,0.7118952124753126,0.607139515571065,0.4898550838914679,0.38433735661705404,0.2719375238619355,0.16387978908743372,0.08546288263091473,0.13096930918286542,0.23983397677498797,0.34482370266995366,0.4620324333560246,0.567204953328849,0.6629820388984728,0.6873329470779224,0.674850916605966,0.6635852507899855,0.6491891285514293,0.6380020958271952,0.6494768874019634,0.6650105910385764,0.6765136353950156,0.6659127892652914,0.6654321847214639,0.6887077311803877,0.7315906563001118,0.7159576244119199,0.6932135443053697,0.686538787917581,0.6863736658197692,0.6774945438785878,0.6827511338981918,0.702542944552083,0.7058144186381354,0.7207784061531242,0.7185496076292255,0.696482512676071,0.7197072867289385,0.7265057509740998,0.7291846757052989,0.7095462049381283,0.6560827779178258,0.5978438193863114,0.5698887108370756,0.5725142239052938,0.6049220761314831,0.6461260377547329,0.6733461678437553,0.6943682805011457,0.7355574178195949,0.6452929054591303,0.5282786300149822,0.42452864021309367,0.3094809030955017,0.20144070952611237,0.09228071647663061,0.0,0.0033600351570135523,0.09586280590318452,0.20627417377321633,0.324877633107135,0.44355494787051786,0.555822179057075,0.6041538535005788,0.579793669142207,0.5890472375808065,0.5544119921137214,PM
0.8951804052686558,0.8951780215469496,0.8933353862374953,0.8680144227043316,0.8148545164900192,0.7544210445179225,0.7481286226530726,0.8007247060110969,0.8570525122812609,0.8928295099512651,0.9137500139665575,0.925677202358361,0.9240788421482571,0.9250948829574672,0.9102233267394935,0.864815462561701,0.7902919855770829,0.6767068546062909,0.5535496559417266,0.44429501038459573,0.40987782991929844,0.5177291413913983,0.6311346785555645,0.7422729026721515,0.8441265475247732,0.9402732203154409,0.9694195729702781,0.9279462130964782,0.8954510955037098,0.8342095674476782,0.7620289393062087,0.7539743170313429,0.8048948804706222,0.8501386797527157,0.8761307891904009,0.8871786602618581,0.8718581926348881,0.8657239410954474,0.8705250699512495,0.8692251535382858,0.8593537199683015,0.8584102785612613,0.8598048149455262,0.8732802669258777,0.8777399584890073,0.8902303714497952,0.8819999547007953,0.8544585354925496,0.8030354162907152,0.7553729974059542,0.7755851017894266,0.8271263101677917,0.8807977701853407,0.9160721927369733,0.9445352365856956,0.9515147915378521,0.9635575144367756,0.9489650057718726,0.9026260187941588,0.8204570953433095,0.7126155397032008,0.6030589876744124,0.5685807308850324,0.6743425905758471,0.77916747706624,0.8791929108638068,0.9734632860301113,0.9744370248255225,0.9277160532730853,0.8798639387299838,0.8149110462366473,0.7609182564866175,0.7936895557659862,0.8476224540324617,0.8885280239004762,0.8951490282252874,0.8951802525043648,0.8946055594130065,0.8795350451627657,0.859983478768529,0.8584121428309199,0.8601350673686929,0.8765495796823277,0.8932163788636371,0.8910002188426578,0.8755486116425835,0.8493339337738375,0.802593748593964,0.7549460231746172,0.7624502131339135,0.8122912274692999,0.8711533304963028,0.9103121890900128,0.9360772359838498,0.9496459054516313,0.9583884938568756,0.9560710634758447,0.9188801360733532,0.8516071840623725,0.7726051409945116,0.6676226209764606,0.5543341449822914,0.4445037312333082,0.4461123226142214,0.5618188484864923,0.6716858018587475,0.7818516505688855,0.8879729693448835,0.9845406711674141,1.0,0.9513419617360155,0.9088661046546354,0.8431596343030585,0.7946704810464293,0.8056368215995007,0.7554503088027653,0.6770341175130192,0.5610536131596904,0.44039022449020937,0.377788886687779,0.4003145498317058,0.5052277804416945,0.6275194077083257,0.7156842033736424,0.7784979658104136,0.8522079235293845,0.8783762815240777,0.875962144256111,0.8059831827817989,0.7067942040655306,0.5902512946932301,0.47717587144494544,0.35715998348320177,0.24641855025771253,0.12538887885624428,0.042232173623006464,0.07914052526304394,0.19106436010082728,0.3012856395315664,0.42235047212259236,0.5336443279317122,0.650866438439492,0.7599094443726631,0.856607332571552,0.900137948256476,0.8903554287096793,0.892686008696864,0.8735864300209353,0.8497158248752092,0.8011700759078781,0.7414608911990843,0.6986788014793062,0.6958767003650386,0.7391431393991938,0.7887332077492846,0.8077754450770267,0.825675578501468,0.8306370792401006,0.8154026222487407,0.8061501799708748,0.800038571043483,0.805258552892651,0.8078117691546667,0.8224393127834908,0.8403226663337904,0.8357301483093282,0.8486156641150249,0.8379256812396809,0.80288789220007,0.7475980836006415,0.7076166324391893,0.7173411502151472,0.7788781128163116,0.8480320069220317,0.8845265427833624,0.848957492298632,0.7501678032292025,0.6313620051458346,0.5089851489924406,0.39857824648855766,0.27794140222365904,0.16732746216053007,0.09592055374246256,0.14801835543506536,0.2564110761374012,0.3783865437442864,0.48896342490868205,0.607788572096708,0.7164361170095765,0.8198039766904213,0.8889661188811644,0.8991947604271031,0.8898842632952633,0.8906183479450269,0.854678008227181,0.8197429354788901,0.7620628571327726,0.7160175848222461,0.6912174448624007,0.7130829327196642,0.7742137758914538,0.8200017448093826,0.8376222064793155,0.8303968943103159,0.8230628144596417,0.8080415748682386,0.8013920288161147,0.796059823989872,0.7987377044590724,0.8056413073594033,0.8035299799759548,0.8061145935762499,0.8024685909906979,0.8010887651726675,0.8053631965796106,0.8211944234595729,0.7943194620994469,0.7438716331596837,0.688256763852356,0.6777013678505543,0.7326725036190562,0.799938930097873,0.839529704168581,0.8593469972610155,0.800633278504125,0.6968945754002225,0.5833577168168467,0.4716661807677478,0.3508416213240064,0.24046442699184833,0.11933724269304324,0.016515095832212,0.0,0.10215050013056226,0.21332569089290088,0.3360152735171771,0.4484523803342735,0.5649504546336419,0.6750452334079289,0.7777851788068477,0.8440763736033516,0.8606733870886063,0.8677695448836875,0.8663729983284321,0.844614578723152,0.8045696934084874,0.7516234000634001,0.6910628922976345,0.6796610280074145,0.7147350109168293,0.7750387027895207,0.8243757861573204,0.8430297718300483,0.8470094931175693,0.8439774358220729,PM
0.4139327852664314,0.3756343549188519,0.38806266074384776,0.4179404413913561,0.42239376559674335,0.43575789547132615,0.4338074592164016,0.40281450121492846,0.45741121745182944,0.5632236342363282,0.6397617181185842,0.6133801513829704,0.5345164845010695,0.4908280643015779,0.5749529864069527,0.6858643758092273,0.7915614078244331,0.8816554120005411,0.8818854285415774,0.798874021996641,0.7299113229284386,0.6914953365450596,0.6495795898468768,0.5796885430405889,0.5656608069924407,0.6076392626911709,0.6196815993949394,0.5775369355652327,0.501660963283038,0.406001255207062,0.30060508407912767,0.18903909207049452,0.15037069719991214,0.2105200402827272,0.27633245487885194,0.3594153209689561,0.4620326141059832,0.5206146949739399,0.526869338705807,0.5284776551378649,0.5354039843051881,0.5451269194644595,0.6068447390218732,0.6775894896575934,0.7223360689543554,0.7152533620524175,0.6940910188659233,0.6734334699795612,0.6707292084739027,0.6985384815392677,0.7231317842806857,0.7625307118939193,0.809817363747201,0.8304089614738293,0.7997029385771746,0.7435770278674982,0.6644640539252262,0.6146419919905579,0.7024754649603921,0.8145787231446326,0.920015642773846,1.0,0.9789116997043217,0.8868551029271208,0.8066377916656298,0.7592541076014387,0.691648818800696,0.6079135971075393,0.5207044517298502,0.5220892273138289,0.5506037690166918,0.5067814510255753,0.49191301204613724,0.5052413009465715,0.5084573116512723,0.5007672999346693,0.4743031091532295,0.46668436395808977,0.4539637026237089,0.43519638056382703,0.4035122748647084,0.335616655715425,0.3264523084030291,0.3368052615990904,0.31503051401309534,0.2967916035410241,0.3159148027692158,0.3434770490645529,0.36587080057837307,0.39275966037981114,0.4084483663967964,0.42146874826851066,0.3946067199648158,0.32593308767684803,0.23950063114454423,0.197213840742835,0.29172504149084677,0.4112535392731318,0.5177103341968459,0.6111830755030332,0.6332361953754675,0.5554670846550178,0.46860769499544874,0.4237943356752325,0.37275706388974994,0.3071794165274446,0.2896402396293576,0.3427895470695277,0.39833537821015597,0.41321392102337073,0.4086692365486848,0.4304042710336482,0.4510423826158356,0.4690998015780292,0.48123376421350095,0.47760115722071506,0.4898348724066999,0.5038550040723639,0.5521968561630675,0.614001554575911,0.6710884418358023,0.7285569390901796,0.7871695181049154,0.8467181158838044,0.815122958256544,0.7123237213156313,0.6361988291055587,0.6028728657054843,0.6455773614023066,0.7238375942174331,0.7091212570469874,0.654761000847154,0.5966876159111996,0.5346080690226049,0.4793933674247315,0.44592866337821446,0.4318028843803554,0.41643793990741074,0.4175265050334964,0.4106811052813888,0.3975354328468206,0.3877129233460912,0.3623430195884012,0.3543393748435033,0.33885499271194375,0.28291690567816197,0.22875308501591007,0.21477524075058607,0.2644601913158202,0.3321343224876103,0.38182767740836043,0.4232199166506998,0.4135563813282035,0.3072590317033912,0.19740485839375665,0.0874357157550607,0.0,0.010456103434089759,0.1021386911389266,0.19688655891127338,0.2854020737590659,0.35262237569347743,0.3593155374788166,0.3370773527218476,0.3153715519958742,0.288820295629836,0.26445734154700196,0.2360109698245001,0.2485341651060753,0.2677887573628053,0.26933360206046597,0.23874905782009925,0.27242037111034056,0.34564008542699254,0.387330451209595,0.4050544331919763,0.4115337313918057,0.43074013652747745,0.4533490525256343,0.4554100471256213,0.4565196652378205,0.4442143316653153,0.43085660373425316,0.4546127491622709,0.43978476949949297,0.44192072917106273,0.5103296856909911,0.6015327005775282,0.6812544380751673,0.7392369186870607,0.7835381687399448,0.7470832720843723,0.6369874893622862,0.5302546770599124,0.4172780888554617,0.3516070212703406,0.40653894054085304,0.504799756764513,0.6010814627283967,0.6884840021544885,0.7526511889019565,0.763767912632825,0.7206820474098894,0.6792367903366143,0.6531100435288941,0.6248808104178827,0.5981553758050207,0.6214986336108455,0.6484642038553718,0.667461985916288,0.6505540596452355,0.5888435921805311,0.5149156620305835,0.4842494852860293,0.4826057967105726,0.4733632828812726,0.4747033486107006,0.4322855499672942,0.3341925296242225,0.2526632450000186,0.1825730218064452,0.11713664557038417,0.07157702374215758,0.05798967019060619,0.12594610433277875,0.23969815636267944,0.3459005377972897,0.4485621715427448,0.5282208798094676,0.5443504403266464,0.5016851542407537,0.49711800882715673,0.5517556333482831,0.6194537049037656,0.6398310661524449,0.6652810597181227,0.6426680287932749,0.5317142878595811,0.42125234179359783,0.3094802825325442,0.21557540674775044,0.22827939443527612,0.31977039114823524,0.4219914366224615,0.4939731231297735,0.44357078241756476,0.36917891253224777,0.32769075662383296,0.36179338703642205,0.3812411123549113,0.368903527589592,0.35588704362582346,0.33030487940359565,0.3107321592982033,0.3353987048125848,PM
0.9076357787746065,0.895707841614177,0.8645779569615981,0.8411711620422284,0.8655663480928595,0.8919103624031817,0.9035484199153381,0.9136233705399035,0.91700024463875,0.9121696449336709,0.8822921962089241,0.8276674172473812,0.7646686878361084,0.6923358489604221,0.6169301701304004,0.5361508771833754,0.4551805062169416,0.3758959337305372,0.35181347508163374,0.42187382681039454,0.4989661089632378,0.5741433532209947,0.6547196807470386,0.7303571696234943,0.8068765554177764,0.8830966261221522,0.9552002451235582,0.9934695721336186,0.9747274889857807,0.9624814802148172,0.9489362813506295,0.9214956854152279,0.9233216396057982,0.9445147863672168,0.9449102693250209,0.9425960271246481,0.9330780726790313,0.9255673586449911,0.9145661498419198,0.9064812944228728,0.9069522907525598,0.9180785066568509,0.9178836086706574,0.8960834577306889,0.8695635274683582,0.8651695352472175,0.8952648765875042,0.9176221474680539,0.9245060074149267,0.931218576436162,0.9332778168063691,0.9144020385714171,0.8704133973555566,0.8126246331556268,0.7439103832357741,0.6798892117619324,0.6208801485781064,0.5494159797543801,0.4693015864761161,0.40613416697207305,0.4393897711132344,0.5170923319686263,0.5969330471721408,0.6705762602422867,0.7500063756178743,0.8270690012234834,0.9017510670009876,0.9722920681393836,1.0,0.9744531998153938,0.9732000349120609,0.9556607524693863,0.9316316350261207,0.9362611057615231,0.9522169128987876,0.948884853379198,0.9394946114665161,0.9366634502236961,0.9376733893966409,0.9273502307407382,0.914373996514779,0.9110227460636311,0.9081780424552357,0.8988446231444016,0.8810657954219692,0.8540036413600143,0.8352832158673613,0.8621634230540243,0.8904780412001292,0.908748352866233,0.9086404082739996,0.9147651892135056,0.9179751399493357,0.8962364704677217,0.848843503701757,0.7829476472539105,0.7140881871493261,0.6411483103921887,0.5656716958435211,0.4895156981041797,0.41529655069959204,0.3916201115550302,0.4618062997045058,0.5398540872193891,0.6142369192122574,0.6938117291581121,0.7674662734174402,0.8450322557242003,0.9177748915061248,0.9713590112026169,0.9629332847701839,0.9529801488368492,0.9372471111225316,0.9118712591254765,0.9072529940319649,0.9155912691246433,0.8864191110847455,0.8609598229358011,0.8742620184344025,0.9007898627071518,0.9183392328646556,0.913011808732004,0.855442540159653,0.7752627819814675,0.7004013151233723,0.6229182388886005,0.5421989087572159,0.46685129010717286,0.3899090017365874,0.30907282870133024,0.2322009334649583,0.15680172653709334,0.0777635707699369,0.012062994127474913,0.013986551015636617,0.08604249257800034,0.16062794120563628,0.23838273781796104,0.31931699348620235,0.3989046723876015,0.4725365339227312,0.5523088614960356,0.6330834831371526,0.7081080927748207,0.7768887390767811,0.8364260920553535,0.8756512770828038,0.88327015352618,0.8801315942596935,0.8734490609269718,0.8474323340814396,0.8213548318922439,0.7992843064544903,0.813271701047426,0.8395850875394071,0.8615637333644284,0.8701768218998958,0.8694713686464244,0.8779781297393208,0.8829927696797346,0.8944384422545577,0.8977389424334048,0.902506799562121,0.9119103829071329,0.9187361719263816,0.9125082371570221,0.8916021935579113,0.8939225127144803,0.9190179632779432,0.9357314090386049,0.9285473995399252,0.894452648441689,0.8330246773647341,0.7627063657220428,0.6855932137115,0.6069344752313399,0.5329824967705274,0.4528581879460061,0.3775111483254283,0.3005688599548426,0.21973268691958803,0.14286079168321375,0.06765772521392377,0.0,0.009191453340415157,0.08479179765386957,0.1657493743278705,0.24667484411790475,0.32405842584466993,0.39900744924827847,0.4794257367469428,0.5543847619319344,0.631428634397682,0.7059752595042517,0.7777545214460255,0.8378347011784091,0.8845764991781047,0.8992648671395576,0.89011603836744,0.8870710255435288,0.8713430369583695,0.846262980406064,0.826839633510845,0.843263409530991,0.8697696496229628,0.8813729491418762,0.8787715967910785,0.871999426608858,0.8737999276412192,0.8803157431642277,0.8940509447222835,0.900631166314517,0.9079158772619911,0.9109758795881817,0.9110033626424447,0.8914464624030674,0.8771808819087432,0.8968168440000897,0.9249245021600756,0.9344220462574191,0.9126178559622704,0.8451644602044657,0.7695623800637819,0.6906653068987421,0.6168828304674867,0.5370213349940625,0.4621609370387163,0.3846785251294049,0.3044391643287483,0.23052374052460922,0.151727042328053,0.07221436687639826,0.00984244152647673,0.02511689494933156,0.0854303269022828,0.16258162244884977,0.2394056195290386,0.314843822624838,0.3955219438800348,0.4718840904898971,0.5477138314001226,0.6246361977830999,0.6993052386460434,0.7705178211898849,0.832097289934401,0.8738351945362635,0.8834114773422117,0.8737905300901538,0.8626138373339789,0.8504634887964555,0.8246352779686734,0.804589199952447,0.8219661090451675,0.8558191296638591,0.8715370287727384,PM
0.8513550260437821,0.8492084993290641,0.853498721663627,0.8626031405959294,0.8729789134068802,0.8697949444116344,0.8448274156968605,0.8314931127843677,0.8404327937911709,0.8823782593098628,0.9321956535725289,0.9795160857684082,1.0,0.986275893034295,0.9411080736372861,0.9011618009416404,0.8685202874409732,0.8494586350633413,0.8500590978150309,0.8428095084288063,0.7973149129745412,0.7285070405158522,0.6470330442398633,0.5647031498420596,0.47805476836165495,0.3886911800694277,0.3084702112959685,0.28833956684111395,0.3674012526036998,0.45173808709417007,0.5364578313681565,0.6252101596557265,0.7069554027399043,0.7911738088916866,0.8615610050266314,0.8612963546291907,0.8385404421326792,0.8189688430338553,0.7929348123088817,0.7856387375133349,0.7834750207619887,0.7823916908233459,0.7906546508499519,0.7953951559513659,0.7832183580443839,0.7699814000637599,0.7623568582245106,0.7644182020752248,0.7993964747910889,0.8509758793408886,0.8995240257470059,0.9269824277201684,0.9204116970291789,0.8791461188096428,0.8330921732950742,0.7971110558903907,0.7750385383916272,0.7729741940997128,0.7679661216469178,0.719700003677473,0.6484195686689926,0.5659605699437469,0.484322552166236,0.39663655193764913,0.35330569003906787,0.41558608980732825,0.5037793042361018,0.5867631347044919,0.6710908931916935,0.7514388745127907,0.817551507300259,0.8092293381375948,0.7844390319507404,0.7923519400689167,0.7877545743216283,0.7877952653850171,0.7738938869781318,0.7863234509921504,0.8098608698281713,0.8197346300450876,0.8368120856737056,0.833253024004105,0.8263906540342609,0.8101381056999759,0.8255693260090005,0.8604345008732308,0.9082247899427551,0.9510162799675348,0.9645939305989906,0.9418250464485023,0.9067831789479381,0.8669626038455138,0.8414659098485866,0.8330643870574099,0.8350382883408802,0.8056835635274866,0.7437173723663324,0.6644414900094795,0.5831196521706974,0.4943871964763049,0.40712409621090195,0.38586119770968486,0.46104244310033327,0.5488942184159025,0.630667173958873,0.7155100253370215,0.7978627389958108,0.8702511619822264,0.8762526240138249,0.8405292353782348,0.830503636709039,0.7987676954970839,0.7467820116261765,0.7132465013851073,0.675763570625288,0.6068493622888049,0.5313130954905589,0.5208421888439054,0.5815793043657635,0.6660250508180157,0.6965190415642319,0.632592184237857,0.5486293825367954,0.5156748720713418,0.5493898638482813,0.6336223130866787,0.7036488234915113,0.7402521721697934,0.7852902478063142,0.7944022473102956,0.7955531090895303,0.7337904079105528,0.6517982103923652,0.5655767321628855,0.48302156040819,0.39372502779919905,0.3098665115327255,0.2372604579996318,0.17476413004493963,0.10142310176182812,0.043676459394407674,0.07982409081577746,0.16152501800449803,0.24652999361056982,0.3361704482793373,0.4198859174381211,0.5052279592693336,0.5908626714876299,0.6719433008598279,0.7469767922673192,0.7914806867915267,0.7910724955241688,0.7977821889570127,0.8224281365703219,0.8587195026354166,0.8973189838005715,0.9233433196767915,0.8964835884574549,0.8464766479261623,0.8082551293904718,0.7762583683857276,0.7737437450513671,0.7913453895482037,0.7969966980379681,0.795565794351045,0.7796111397229772,0.7600944616859524,0.7321543629985914,0.7317135375169102,0.7482277581398524,0.7457557588568795,0.750146211703776,0.7502237179188873,0.7412037252653516,0.7384236715875956,0.6645519119479162,0.5755484882886965,0.49357051116459316,0.40588762937636713,0.3193364198404296,0.23661789289133117,0.14775599962938957,0.06637023673167364,0.0,0.01601435727377032,0.09275118651016356,0.17872510956873455,0.26593366459986,0.348153074680966,0.4361756359244886,0.517903685706735,0.6061501704352958,0.6873811979838249,0.7324401688419908,0.7276615080012574,0.7291670540784811,0.7557415293520056,0.7873818319470416,0.8328143837362152,0.8756396995658775,0.8864210456322501,0.8470643328107443,0.7972032299336076,0.7463775617571582,0.7191300812727659,0.7172988254169597,0.7215383512527349,0.743155123366392,0.7484651654889671,0.7519478423678587,0.7455236510230685,0.7401396949166577,0.7411270416510234,0.7422972349130283,0.7746330040761589,0.7918976773432922,0.7944767636495287,0.7610726512730248,0.6773417247224531,0.5946221618716725,0.5080937174053897,0.418171352362952,0.3282279421787906,0.2406808503034208,0.15898231589576017,0.0786151928497345,0.038308388328319065,0.09347061647560895,0.17645523343571767,0.26365869632676064,0.34577382475898766,0.4347916986891427,0.518621890010345,0.6036641892018175,0.687146299813723,0.7666019241405542,0.8042786715292298,0.8045829801687348,0.8218954220582975,0.8427711069606574,0.8796490497594174,0.9227049372551184,0.9542028853332976,0.9343510584943209,0.8883094941879746,0.8386143229753473,0.7976319055033925,0.7853957613411056,0.801155085671315,0.8233900287493989,0.8301110853056548,0.8229548722839839,0.8155250747090248,0.8090466548861937,0.8147440311510432,PM
0.8579835034856813,0.8433946395454412,0.8382023451772957,0.8290482443947143,0.8461204774223419,0.8454592352776726,0.822804457772434,0.7773462346586435,0.704786000375188,0.6287821938112492,0.55237138625714,0.4868781612137758,0.507140968244574,0.5781579166494957,0.6410664133936648,0.7020840850535477,0.7364093665245466,0.7623845861022651,0.8156876038884129,0.8920350613532675,0.9722714599082043,0.9878896013330134,0.9354279894956472,0.8594831689369771,0.7593867794898561,0.6530335531363556,0.5539730150361599,0.4528187333821281,0.39374378043831815,0.47198769641805227,0.574294402729608,0.6725304234008658,0.7713330819842297,0.8655173274469916,0.9325039917312832,0.919365901642925,0.8851763991050767,0.8410746812583858,0.7833413307679347,0.7378291686223404,0.7672865602003427,0.8461645471212067,0.9184854284936701,0.9497062030536207,0.9550655875751033,0.991254954247071,0.9999999999999998,0.9707887739013599,0.9443457063292426,0.9158370673112393,0.9052304456593767,0.930753703161719,0.9476754533273521,0.9546480453915278,0.9631343535574135,0.9308748325003535,0.8505668060286353,0.7762386232393059,0.7110517568762724,0.7292970638022134,0.7988317591171288,0.859777349442836,0.9183711710786395,0.9485939054023926,0.9625209388471478,0.9657996333556411,0.9580708105760862,0.9023763137131675,0.829080409480899,0.7345887983534409,0.6356229407541516,0.549372952056109,0.5903271408177515,0.6930401387464962,0.7899290194022395,0.8872309885981828,0.9558245084201829,0.946202805289518,0.9543165001792435,0.9545529107943762,0.9036343304298378,0.9076844138630451,0.9497823820746751,0.9693645974532672,0.9720490836606472,0.9617057340277155,0.9479903567186418,0.9264911751186304,0.9075914973636781,0.8972014638958179,0.8853412960749523,0.8934400731879559,0.9256190862819065,0.9456945831329964,0.9379727421263395,0.8948975693629115,0.83686668544331,0.7620137135093248,0.6904839885616334,0.6531219125289107,0.708496042850485,0.7805961576535247,0.84469815195867,0.9005842786850018,0.9374827500593745,0.9421978174622632,0.936770834036029,0.9107259831685168,0.8465360551379464,0.7659373615039515,0.7816132233582611,0.8585333748040986,0.939358541367391,0.9580455735003277,0.9269481205550962,0.9022601234636578,0.8420733662993067,0.7457079241083691,0.6487996929661677,0.5442323655261128,0.4438379300205384,0.34340955793883055,0.23808739503325005,0.14105973777481617,0.049878227863531244,0.051825015713775624,0.144323902520886,0.24933047037891676,0.34643477702737613,0.4511823582880279,0.5512658823546994,0.6511995573827833,0.7481403295911846,0.8372588906505574,0.8896473363213142,0.9019578572849964,0.8971965210858184,0.8588312702102099,0.7967894278914887,0.7278413176794472,0.6547216544655443,0.59839001468708,0.6009585122198395,0.6629280998524467,0.7387127983587292,0.8140069387960358,0.865024899734095,0.893881222643748,0.8756806355677507,0.85243096005333,0.8346710941026385,0.8457914791792527,0.8624773476289855,0.8749749047041233,0.8959088781759033,0.9127444434613905,0.9216785845414595,0.9079574305366396,0.8737576992449323,0.8341562842530712,0.8566781669431724,0.897766167754446,0.898080450277426,0.8781650125246963,0.7985999537890172,0.6999204257485594,0.6005392767211353,0.4999423877745708,0.3999494359932645,0.29355046522075545,0.19343531584279638,0.09285749792693587,0.0,0.0014282449392106766,0.09079006407683043,0.19341543435999653,0.29111800036571966,0.39460724561543303,0.49196546998796564,0.5969463691579946,0.6945101021076054,0.7862889866641176,0.8534988137210477,0.9001530622389609,0.9067947425612182,0.9121087239745373,0.8964756548121551,0.8478268635376975,0.7845268836303185,0.7171164164167847,0.6478523966589844,0.6312643263461832,0.6907148732975767,0.7653760438233779,0.845850637563393,0.9008112261683829,0.9066510254448616,0.8989847360364125,0.8707321308193643,0.8551773137189731,0.865650130150746,0.8953618174230391,0.9227084194776822,0.9520736493626989,0.938654384774696,0.901590749340184,0.9018694362702171,0.8714785561731382,0.7901493677754405,0.7148653300428973,0.686028753470965,0.7075072881180662,0.769626108813539,0.8243753019713826,0.8613355437642534,0.8762010548343684,0.805315044526324,0.7100843895213209,0.6064428222274287,0.507612723323988,0.4055180283881936,0.3002816891349691,0.20316392740594713,0.10345620243516795,0.05852426563972757,0.13448410554318913,0.23458036924848735,0.33492416196842156,0.44077431880904583,0.538477602812728,0.6411662750716989,0.7384311397796515,0.8347495490669516,0.9006067025791922,0.873048911548042,0.7927960234365445,0.7331352152256854,0.706142636684264,0.6806024439853782,0.6227765868099533,0.5556218845428378,0.4812344437794116,0.4240694115090611,0.42503865552070375,0.4916856624254027,0.567142065781685,0.6494501670009347,0.7224310609656845,0.7761873816362608,0.800106148824206,0.7935804622827332,0.7751486920473971,0.7820823532733738,0.8003713985775522,0.8059806135158774,PM
0.6954123451063081,0.7554879157100327,0.7612599819608059,0.7479905030171974,0.7476375277730041,0.7476365736739643,0.7460827152295657,0.7277186943446496,0.7070370611306718,0.7078630023290828,0.7229095074031098,0.7293257556212636,0.7351295044881652,0.7118406301360269,0.6801928554790182,0.6167312518249588,0.5568013070338718,0.5177273440441335,0.5523627219132803,0.5986764832637941,0.632275454564442,0.6455287390582436,0.6288654539628946,0.6425024372130008,0.6903376256697156,0.7797431159285724,0.8061643017548796,0.7312286880231387,0.6141556705526168,0.47893857875719137,0.43570436138741897,0.5558823801729775,0.6857799022835747,0.8175737343763476,0.8839472337196703,0.8256926998100633,0.7531792845001801,0.7287475409676594,0.6742505018816733,0.6159954425146639,0.6450258171919137,0.7103728289978308,0.7234039364261267,0.7234869351645634,0.7234869351645585,0.7235002655033944,0.7284068838108242,0.760702593308956,0.7810757758600255,0.8048257210402516,0.8098230194538418,0.78041633839198,0.7331812398205586,0.6777440578630878,0.6065629435518809,0.5967375462311444,0.6581615406844308,0.7136263622341246,0.7517950350174956,0.7704259097899362,0.7646666644802398,0.7843859767134891,0.8237054515767861,0.910949201440399,0.9478531784001314,0.8686138533283563,0.7466854152299423,0.624747924496392,0.5770197060887625,0.6825663505483206,0.8236190499842468,0.9589956693249517,1.0,0.9310878674965943,0.8914199691139348,0.8630110288505026,0.801398603332486,0.7584772617459654,0.8119923150391548,0.8479551991077647,0.8555127490811252,0.8360360674129259,0.826815758056882,0.8308515658130187,0.8242275430122525,0.8375208495806756,0.8487398130169854,0.8742248077324808,0.8821988130350569,0.861817707339263,0.8283464734818535,0.7741539135838753,0.7021518454885571,0.6705026797880325,0.7103357673658004,0.7515852756004953,0.7712748469502708,0.7836082606482542,0.7823404098470883,0.792274898522912,0.836194223824581,0.8797311055350763,0.8164669835714289,0.7035617972803174,0.5850776945747795,0.5008053772138377,0.5758590805239598,0.7123030675963231,0.8406660084731321,0.9229954579981161,0.8689798130568285,0.8152290579498036,0.7697919194174219,0.7158752148698433,0.647667881319828,0.618109819215662,0.5818960793997419,0.48728266391455,0.34740656029411277,0.20064315595452165,0.09892901484461047,0.09621954168095259,0.18634476384400767,0.33218145098526497,0.47236587154850174,0.5655656550123269,0.6383733042941309,0.697581304742974,0.711665933662951,0.6928389687284895,0.600629593140408,0.469701034056925,0.3291606884783147,0.18847855991062978,0.0882285146808881,0.1283011758118513,0.2482870497645262,0.36977501599493,0.48469905808371516,0.6076139501372966,0.7341007760114389,0.7499029044252548,0.7070014685806427,0.7020710038861089,0.7038110492054819,0.69254017825034,0.6855301396182987,0.6446461391722007,0.6026810885345997,0.5844111797538698,0.626786534360043,0.6983042828905002,0.7554192837589837,0.7921575010438602,0.8080312860021444,0.7775482063303985,0.7677476474270888,0.7512515515211606,0.7413489428711597,0.7594436817475758,0.7570352839937065,0.7514015103803406,0.7677012907550127,0.7477085573107289,0.6942511610364135,0.6549230960623738,0.688507429900997,0.7515428116843168,0.8051384682152705,0.8127541898411756,0.8238543926641837,0.7579385655348991,0.6194193687822525,0.4881055084716701,0.3469399161958959,0.21039922442730452,0.09865722661292953,0.1259467106400356,0.24985078026712193,0.35714000035196536,0.464809295693553,0.5806522242774403,0.7023396999397549,0.8108197419689072,0.7826101154424956,0.7190622301865286,0.6857602948482788,0.6850068535751257,0.6973330204937058,0.669764652458888,0.6291862541840914,0.5727839755753914,0.5129586824823584,0.5096159600767542,0.5689496914183136,0.6371748917967994,0.6877793246881772,0.726745608512481,0.7156211033089765,0.6993553384981683,0.6797442711542692,0.6448680555926858,0.6414248126349347,0.6452584626044895,0.6430795302959242,0.6533769614353822,0.6592010792491938,0.6055096129279116,0.5415385453776769,0.5330452372845795,0.58948062494891,0.647152291751607,0.6721791872667646,0.6873332246145458,0.6740087489778754,0.547980881918873,0.412675767672245,0.27720823295798347,0.14109699961066235,0.013964635546029225,0.0,0.12224314091039412,0.26096737579028506,0.3831047262289391,0.4928425846614273,0.5898083026013925,0.6793987483306405,0.6285348587705295,0.5770201145182496,0.5646133051327578,0.5428668653238806,0.5468273427951886,0.548923365502886,0.5180071805654607,0.4611497920824128,0.4175961874475247,0.432272560243935,0.48664308999125483,0.56455473318983,0.6213730510254418,0.6504388218151469,0.6533777524652451,0.6499541745754525,0.646990012427501,0.6393073281075012,0.6264721766291959,0.6417017873155766,0.6611623961514859,0.6763427630956746,0.6766229467068299,0.6740821384600832,0.678734293078596,0.6888171749821232,0.6591587334338396,0.5957585095263576,PM
0.5387593666850035,0.5543769225464721,0.5820336954124294,0.602158504875606,0.5777948876257355,0.5757482604924853,0.6097119896776535,0.620136291743437,0.5773773772431348,0.5435289519564184,0.553512199369758,0.5839750185969161,0.6201192851464055,0.6166811825516327,0.5881901459059224,0.5917177525218462,0.607902004468468,0.6111106898271315,0.6367545390782161,0.6512610218408192,0.6622242539710284,0.6594824015816156,0.6720711589913995,0.6920449259442689,0.7140883077067919,0.7041475306568943,0.7135696580138986,0.7239366118891803,0.7462312913318239,0.7379154393251137,0.7045071913618002,0.6695622533971402,0.6312726772266801,0.5617931039909441,0.504992350929168,0.476027978456536,0.41825012942136475,0.3421162228790702,0.2990559818860752,0.3347813337543202,0.363005871786636,0.3849985829934779,0.374322716990636,0.3677782019378353,0.37315908102439455,0.4048485625079916,0.4628714540301777,0.5362497864187206,0.6110295218247566,0.6857871191368337,0.7573235433573191,0.8239548957275655,0.8516672459312247,0.7936462835300904,0.7217134886956078,0.6667565685106518,0.5997954923349971,0.542733625458431,0.48372506903926826,0.4216856199852148,0.3653228833728548,0.30483415301070327,0.2151044623475591,0.15628296720021817,0.19980803038643025,0.280642588527404,0.3358731330701987,0.32377333606786385,0.2825332249808943,0.32814111675475743,0.4249529325247208,0.5050414827136112,0.5830281671604358,0.6576739350988383,0.6928409088300729,0.6704043960691597,0.6745835366172841,0.664058678402947,0.659917144758785,0.6672746663249973,0.6740875876781454,0.6728205356384911,0.6933955053529015,0.6996882088239036,0.7033054324071308,0.7295232684372945,0.7344419730188259,0.7276535255026668,0.7281825323785687,0.7292158773984418,0.7144697269873257,0.691133231130654,0.6929181929414603,0.6746703716963656,0.7161345333605209,0.7519664977206229,0.7547186988153576,0.7708872533379139,0.8353388526045382,0.8758334220781245,0.8823453393821961,0.8418937251835628,0.8278085618888782,0.8137884988258786,0.7842245328221491,0.8050714479369048,0.9027490051836105,0.989795117101798,1.0,0.9667393905952628,0.9189934248714469,0.8784858014483983,0.8242415598726365,0.7620681428915241,0.7010516550958625,0.64939965560849,0.5648695245012494,0.4721785687289555,0.41586832676409013,0.47611523415639834,0.5587750243978364,0.6217085090371475,0.6408372127171598,0.6042930883696043,0.5594612508743517,0.580485982468145,0.5543924338099271,0.4792640825870973,0.3915618492734372,0.3055683547134569,0.21323009630632006,0.10870833301824501,0.056728490148344246,0.0624971707054387,0.13456764007761146,0.2378781906723737,0.3163376407441456,0.393481655593237,0.48015924145960165,0.5744493845237626,0.641031222142423,0.7000086315619578,0.7617815622884416,0.8146682206278006,0.8540919122458743,0.9063127947936365,0.907555176032925,0.8280307262372593,0.7355646397660727,0.6481186702794082,0.6244956346947337,0.6887725462204943,0.745760639219688,0.7647854098460836,0.7762276858349844,0.7968510724856985,0.7620255357985148,0.7090385536106854,0.6931021522753897,0.6966061062324269,0.6729031393236773,0.6249124297858111,0.6107680086489125,0.6256740300255803,0.6324114147811439,0.645220577046814,0.6619988117032873,0.6656406597457272,0.673883323025604,0.672908016576037,0.6528758161555821,0.6379945082900593,0.6364922257731327,0.621093926834213,0.6078399594049859,0.6095840698202211,0.6056143959728764,0.6097276263704279,0.601218835555565,0.6013662551118122,0.5964586466798925,0.5350699534432581,0.4557974547978194,0.37239398966844295,0.28352894151047137,0.22481434855993765,0.23157732106089313,0.2554538412906311,0.18205978451882876,0.08772128079908903,0.010072604297970411,0.0,0.06903577970175334,0.14184749637218363,0.22119072260610828,0.30501114407582497,0.3559828207726077,0.41495999775739145,0.4793659872147633,0.5394796430511843,0.5952689919004861,0.6604293859230936,0.7230980584737927,0.7326017520092938,0.6645972792477837,0.5904111394577338,0.5207560720042119,0.44852106530399594,0.37587937342425626,0.328237372163521,0.3058896568036418,0.3051405019613638,0.3121800725262647,0.3226226887391932,0.2971158180029234,0.2623174905204353,0.21252601625918421,0.2155304192412193,0.2933633345324851,0.3802598122330565,0.42460955298310665,0.4568150070398609,0.5270809404749128,0.5909723975492298,0.6266087332120227,0.6624348973791259,0.6702175676742672,0.6569992276664638,0.6522441870697464,0.6431838140611679,0.6527009544706681,0.6289754016800693,0.6160623739563031,0.6023957220460581,0.6002428343957535,0.5845556797509093,0.5631306972386003,0.5558231261349666,0.5482999353441134,0.5250806826339613,0.5226635440254341,0.5499068144323966,0.5540520957689345,0.5168454927308694,0.4970701902789414,0.4864904866467672,0.5064570238945736,0.548683092177428,0.5373066116722844,0.516325207354186,0.5201241895889788,0.5330690031769381,0.5127681482664861,0.4900944656819406,0.4742998637469187,PM
0.808512380705426,0.8081961142496847,0.8040020145902089,0.7983704469947754,0.7845661111717546,0.7791965913849863,0.7510605768319298,0.6990103135709569,0.6404592924928425,0.63898340276899,0.689010997151499,0.7370244924359757,0.7747191491274992,0.7950235084025647,0.807131230212841,0.8204162248909526,0.830996620047521,0.837267818663227,0.8574455798743974,0.8053298776400644,0.7129511063653384,0.6996296428463464,0.7903767316322579,0.8860984060941501,0.9683921627263559,0.9678320433476293,0.8968259817197588,0.8643359960268462,0.8418915224500714,0.8072152845330025,0.7565252194771748,0.7340806515075011,0.7638325731056972,0.8111394620050694,0.8299013531137127,0.8282521171841373,0.8350537258578841,0.836869564474102,0.8380709984107255,0.8496101098511419,0.8455354633560528,0.8277549776161048,0.8044709237162879,0.7689919497329953,0.7241609603750503,0.6676451740781728,0.642516611945082,0.6849463281143231,0.7346105284521556,0.776319320996594,0.7989649739644966,0.8205443361238156,0.8291320553438937,0.8359162410822683,0.8468414569850504,0.8685325697162491,0.9182630502340585,0.8757208014667996,0.8035434066743214,0.7174317969911181,0.6217078820183686,0.6411421192393403,0.7442392370357724,0.850597953121295,0.9438662324749407,0.9621843501699046,0.9015305563877096,0.8687460613076714,0.8492381877886321,0.8158155562008396,0.7623742364435999,0.7435601484942047,0.7779788295056991,0.8254361733746205,0.8431169432759604,0.8381954522536457,0.8336604579784412,0.8454298416244173,0.8352248351119769,0.8338076873428284,0.8443768771230122,0.8352658894762854,0.8155224727757246,0.7997530181873544,0.7769145755680238,0.7389604734109982,0.6939226448787117,0.6460517904626772,0.6760505638623739,0.725218332000398,0.778947960973601,0.8105071301429951,0.8220091073573663,0.8350127415898274,0.8382767458895379,0.8457608528894884,0.8286417948182303,0.7830786800371763,0.7213164701962362,0.6295600182051342,0.5379209916305598,0.5477833190501398,0.6498593923323435,0.7476963148625624,0.8448078928048901,0.936730432411802,1.0000000000000002,0.9646370674208329,0.9025143542136467,0.897194284491232,0.8695828124255154,0.8172509253220179,0.7647592118017343,0.7450665566509145,0.7748837593340714,0.8146640988822933,0.8023233312903832,0.7640183315278082,0.7187228726050316,0.6924414093171027,0.6676886157212965,0.6952635050257092,0.7519168421716491,0.8054632375483026,0.8381949304360694,0.8351401399211238,0.8530576975557163,0.7853444252689392,0.6852831697829911,0.5884331066299848,0.4824672760143527,0.3839494521591871,0.2849634000467527,0.1786568744078092,0.07845650927577896,0.0,0.020897806360780313,0.11820665727791213,0.2142723001711404,0.31583538960687263,0.41695704526876365,0.5132686590882998,0.6108924555944795,0.6942856052667443,0.7568039868671457,0.7952871781478212,0.7873732878316388,0.7824677678892489,0.7712608900550004,0.7486264660067457,0.7049783303125678,0.6525775039912796,0.6064325953425722,0.6019369642283989,0.6506609269623362,0.697648313755894,0.7333164116565956,0.7552215913578635,0.7693855756352217,0.782266292615996,0.7738730804288416,0.7698640483544981,0.7726895674769259,0.7764109096253204,0.7794401708150758,0.782656786878231,0.7695802845191764,0.7199298853052845,0.6879525100629464,0.6866811052493349,0.7342764969206643,0.7888021745783005,0.8172131090423116,0.8218172221614319,0.8193299467160677,0.7508096636563557,0.6523797254287718,0.5489125620307271,0.4541171088958278,0.34886216529857506,0.24709861455196047,0.1510873584728316,0.04789063254825021,0.010266931462676432,0.08729020848926416,0.1903321325532954,0.28517570874643927,0.3904660163100735,0.4951884880240536,0.5897714161326453,0.6927396011195877,0.7690232249186588,0.7933286217918185,0.7914484177694983,0.7764975911891725,0.7606649644328825,0.7384831743838884,0.7066252140840652,0.6550469828902921,0.6093060428491823,0.5823659235599175,0.6080843361293866,0.6648195874973049,0.7147340007484091,0.7522644274129162,0.7749468051764248,0.7877526388907581,0.7909370447320436,0.7898686423575689,0.7780716129585528,0.7811703895268709,0.7726658418842385,0.776063752839151,0.7477454612046495,0.7032600079571016,0.6730420375825601,0.677356453176351,0.736385492815433,0.780142762078557,0.8067002714607237,0.8212716576562842,0.8069396966996456,0.7127757482582135,0.6180497761231771,0.5143320052821003,0.41030005032568906,0.31563160377330823,0.21062072422185207,0.104864053879411,0.01837412998640353,0.02067195310248815,0.10694198086503981,0.20909327227573793,0.31559994654190615,0.42213549005784956,0.5277142891420834,0.6228546239076616,0.7212479795270561,0.7686402573903457,0.7811008611027093,0.7710016747088775,0.7561626199092311,0.7464034085822753,0.7168712986560284,0.6765475047453566,0.6238421884155818,0.5837078014808872,0.5895251712654896,0.6413566370401826,0.7003947278121927,0.7291891630408289,0.7425441203643535,0.7551201962432168,0.7523309972545136,0.7510343845920604,PM
0.6954123451063081,0.7554879157100327,0.7612599819608059,0.7479905030171974,0.7476375277730041,0.7476365736739643,0.7460827152295657,0.7277186943446496,0.7070370611306718,0.7078630023290828,0.7229095074031098,0.7293257556212636,0.7351295044881652,0.7118406301360269,0.6801928554790182,0.6167312518249588,0.5568013070338718,0.5177273440441335,0.5523627219132803,0.5986764832637941,0.632275454564442,0.6455287390582436,0.6288654539628946,0.6425024372130008,0.6903376256697156,0.7797431159285724,0.8061643017548796,0.7312286880231387,0.6141556705526168,0.47893857875719137,0.43570436138741897,0.5558823801729775,0.6857799022835747,0.8175737343763476,0.8839472337196703,0.8256926998100633,0.7531792845001801,0.7287475409676594,0.6742505018816733,0.6159954425146639,0.6450258171919137,0.7103728289978308,0.7234039364261267,0.7234869351645634,0.7234869351645585,0.7235002655033944,0.7284068838108242,0.760702593308956,0.7810757758600255,0.8048257210402516,0.8098230194538418,0.78041633839198,0.7331812398205586,0.6777440578630878,0.6065629435518809,0.5967375462311444,0.6581615406844308,0.7136263622341246,0.7517950350174956,0.7704259097899362,0.7646666644802398,0.7843859767134891,0.8237054515767861,0.910949201440399,0.9478531784001314,0.8686138533283563,0.7466854152299423,0.624747924496392,0.5770197060887625,0.6825663505483206,0.8236190499842468,0.9589956693249517,1.0,0.9310878674965943,0.8914199691139348,0.8630110288505026,0.801398603332486,0.7584772617459654,0.8119923150391548,0.8479551991077647,0.8555127490811252,0.8360360674129259,0.826815758056882,0.8308515658130187,0.8242275430122525,0.8375208495806756,0.8487398130169854,0.8742248077324808,0.8821988130350569,0.861817707339263,0.8283464734818535,0.7741539135838753,0.7021518454885571,0.6705026797880325,0.7103357673658004,0.7515852756004953,0.7712748469502708,0.7836082606482542,0.7823404098470883,0.792274898522912,0.836194223824581,0.8797311055350763,0.8164669835714289,0.7035617972803174,0.5850776945747795,0.5008053772138377,0.5758590805239598,0.7123030675963231,0.8406660084731321,0.9229954579981161,0.8689798130568285,0.8152290579498036,0.7697919194174219,0.7158752148698433,0.647667881319828,0.618109819215662,0.5818960793997419,0.48728266391455,0.34740656029411277,0.20064315595452165,0.09892901484461047,0.09621954168095259,0.18634476384400767,0.33218145098526497,0.47236587154850174,0.5655656550123269,0.6383733042941309,0.697581304742974,0.711665933662951,0.6928389687284895,0.600629593140408,0.469701034056925,0.3291606884783147,0.18847855991062978,0.0882285146808881,0.1283011758118513,0.2482870497645262,0.36977501599493,0.48469905808371516,0.6076139501372966,0.7341007760114389,0.7499029044252548,0.7070014685806427,0.7020710038861089,0.7038110492054819,0.69254017825034,0.6855301396182987,0.6446461391722007,0.6026810885345997,0.5844111797538698,0.626786534360043,0.6983042828905002,0.7554192837589837,0.7921575010438602,0.8080312860021444,0.7775482063303985,0.7677476474270888,0.7512515515211606,0.7413489428711597,0.7594436817475758,0.7570352839937065,0.7514015103803406,0.7677012907550127,0.7477085573107289,0.6942511610364135,0.6549230960623738,0.688507429900997,0.7515428116843168,0.8051384682152705,0.8127541898411756,0.8238543926641837,0.7579385655348991,0.6194193687822525,0.4881055084716701,0.3469399161958959,0.21039922442730452,0.09865722661292953,0.1259467106400356,0.24985078026712193,0.35714000035196536,0.464809295693553,0.5806522242774403,0.7023396999397549,0.8108197419689072,0.7826101154424956,0.7190622301865286,0.6857602948482788,0.6850068535751257,0.6973330204937058,0.669764652458888,0.6291862541840914,0.5727839755753914,0.5129586824823584,0.5096159600767542,0.5689496914183136,0.6371748917967994,0.6877793246881772,0.726745608512481,0.7156211033089765,0.6993553384981683,0.6797442711542692,0.6448680555926858,0.6414248126349347,0.6452584626044895,0.6430795302959242,0.6533769614353822,0.6592010792491938,0.6055096129279116,0.5415385453776769,0.5330452372845795,0.58948062494891,0.647152291751607,0.6721791872667646,0.6873332246145458,0.6740087489778754,0.547980881918873,0.412675767672245,0.27720823295798347,0.14109699961066235,0.013964635546029225,0.0,0.12224314091039412,0.26096737579028506,0.3831047262289391,0.4928425846614273,0.5898083026013925,0.6793987483306405,0.6285348587705295,0.5770201145182496,0.5646133051327578,0.5428668653238806,0.5468273427951886,0.548923365502886,0.5180071805654607,0.4611497920824128,0.4175961874475247,0.432272560243935,0.48664308999125483,0.56455473318983,0.6213730510254418,0.6504388218151469,0.6533777524652451,0.6499541745754525,0.646990012427501,0.6393073281075012,0.6264721766291959,0.6417017873155766,0.6611623961514859,0.6763427630956746,0.6766229467068299,0.6740821384600832,0.678734293078596,0.6888171749821232,0.6591587334338396,0.5957585095263576,PM
0.9146853943514468,0.8841477579289521,0.8324573460449298,0.8190186801374719,0.863040966894951,0.8994458641152328,0.8994917267486251,0.9073878735334466,0.9005943276159725,0.8487213022808662,0.7798697315593319,0.691585750620161,0.6030870396331112,0.5154986136417479,0.42931639159160984,0.3952012001770089,0.46924015160885624,0.5549741825124561,0.6419022424677852,0.7290152451509098,0.8147960904175977,0.8992538057349391,0.9390295426787432,0.9068339142988773,0.9046960226432055,0.9178685128903601,0.9000503116557648,0.9064628902859302,0.8979839535876879,0.858330383662731,0.8068840700967519,0.8135868721031836,0.8649293011913264,0.9017383903596603,0.9163665564401788,0.9222716602450856,0.8966335809119179,0.8430250166391116,0.7676332170815212,0.6829338174935808,0.5943636495268325,0.5079853208426888,0.45422086079285373,0.5144799688372381,0.6037994738394128,0.690181591106924,0.7781863757215237,0.8648787455540456,0.9473844386453163,0.9926289833485458,0.9693776177287909,0.9790817557876039,0.9705559565103536,0.9713978627437716,0.9802572584007088,0.9630453542455255,0.9211713170266815,0.8681154208809208,0.8474147322340151,0.8946928888707495,0.9473629893540825,0.9663805667342766,0.9544801758325021,0.9544540513679105,0.9326741577044708,0.8683775437883692,0.7915650031679538,0.706379436472018,0.6196604736364992,0.5313283169840408,0.4456452367399759,0.41625113587258467,0.49106386309364836,0.5724880530436918,0.6465531372880646,0.7204826299097911,0.8061807435260488,0.8918436448575526,0.9725119503836555,1.0,0.9631051120653278,0.9482377693589024,0.949547107196935,0.9309079130603246,0.9118252612953528,0.9004869223838923,0.8860730037966782,0.8859336290405162,0.8598459044916493,0.810043781463176,0.8137611868117616,0.873233017263626,0.9109699866537178,0.8822360125413227,0.8430982277911196,0.8587897800615458,0.8652768509035076,0.8254949506528293,0.7616787791488144,0.688377811796784,0.6048907446194389,0.5183966098758646,0.43192791222665017,0.3434005264947054,0.2752014880835708,0.3162019680927567,0.40606174656731664,0.4920248571179606,0.581998254276239,0.6671423181637313,0.7518913650856471,0.8353524122926599,0.8849682988873668,0.8671630227277312,0.8756394445837352,0.8598534038970691,0.8514751060291355,0.856551327935418,0.8318625126000025,0.8215172206148451,0.8417972963347677,0.8402595497804457,0.828391511574764,0.7612694090664538,0.6755673871051808,0.5877098969454193,0.5011257635505018,0.4111557569763806,0.32490582415724745,0.2352400196753588,0.14903711837003175,0.062034387679144376,0.0,0.040408586505507826,0.12522987642412975,0.21477337051588719,0.3073385011736781,0.39953198208426155,0.4860989721061517,0.5718336746935422,0.6543592040051533,0.726384265643361,0.7939413953990275,0.8344608607675388,0.8142504031211413,0.8112437526870624,0.8536537314525314,0.8665739721430179,0.8142959665497562,0.763135980836201,0.7786356364289333,0.8324205019419739,0.8567379506944208,0.8593786863529571,0.8733277385349132,0.8868244376567551,0.9059904218940611,0.9219801825582306,0.9223100158807462,0.9295154066752251,0.9255706834231492,0.8526230030732365,0.761242273926759,0.670646345411614,0.5844974718316294,0.4933521516711896,0.407270212574681,0.31774075717438266,0.2319098271634732,0.14711463590655283,0.1224872784953216,0.1938395571222361,0.28236147738729456,0.36965657078227077,0.4607701562452482,0.5466877031226232,0.6380694468630892,0.7292457326236033,0.8108395851759838,0.8791295955788665,0.9168654579019602,0.9286599147179393,0.9330528449336337,0.8943827816284928,0.8348915946113857,0.8058725486877376,0.8397074459253238,0.8943486724879233,0.9373488502687117,0.9477914771052105,0.9328768799355727,0.9471384692135434,0.9401129729334612,0.9155869764758637,0.8476552198073917,0.7600478209581192,0.6741708676813174,0.5879305583031396,0.4985996251811111,0.41129117955954886,0.32232577336407486,0.2323318655591219,0.14725954511424422,0.09709380643434273,0.1408242261493683,0.22505151665075562,0.31219255436689297,0.40126238014942195,0.49380702190922676,0.5863823682097911,0.6762207012751464,0.7607627154401084,0.8314828991784577,0.8795591239790583,0.8871766608980165,0.8790404092736221,0.8481643569688708,0.7941387720041682,0.7607777198578387,0.7892071710539337,0.8431709366181241,0.8775447828272323,0.8750188675821275,0.8746366100968641,0.8824323712082929,0.86640896755418,0.8591442703939107,0.7925033440329823,0.7071519324823026,0.620842411663606,0.5329769638937301,0.44648547034191854,0.35662525853814864,0.26677776620606564,0.18035343766248935,0.09467456699649945,0.053918206292205895,0.11810594983912459,0.21016697221933411,0.3020287548396797,0.3881115487342228,0.4787365180885863,0.563559442316812,0.6264825919996959,0.6910311057508531,0.7701783208799375,0.8377501716521429,0.8764790886149074,0.8717006269875056,0.8707319894582057,0.8323354269804515,0.7858325773896808,0.7897656523617664,0.841492177150168,0.878578127982202,PM
