0,1,2,3,4,5,6,7,8,9,10,11,12,13,14,15,16,17,18,19,20,21,22,23,24,25,26,27,28,29,30,31,32,33,34,35,36,37,38,39,40,41,42,43,44,45,46,47,48,49,50,51,52,53,54,55,56,57,58,59,60,61,62,63,64,65,66,67,68,69,70,71,72,73,74,75,76,77,78,79,80,81,82,83,84,85,86,87,88,89,90,91,92,93,94,95,96,97,98,99,100,101,102,103,104,105,106,107,108,109,110,111,112,113,114,115,116,117,118,119,120,121,122,123,124,125,126,127,128,129,130,131,132,133,134,135,136,137,138,139,140,141,142,143,144,145,146,147,148,149,150,151,152,153,154,155,156,157,158,159,160,161,162,163,164,165,166,167,168,169,170,171,172,173,174,175,176,177,178,179,180,181,182,183,184,185,186,187,188,189,190,191,192,193,194,195,196,197,198,199,200,201,202,203,204,205,206,207,208,209,210,211,212,213,214,215,216,217,218,219,220,221,222,223,224,225,226,227,228,229,230,231,232,233,234,235,236,237,238,239,240,241,242,243,244,245,246,247,248,249,250,251,252,253,254,Target
0.5991816333198509,0.581928681716199,0.5748029280249797,0.5487169938910115,0.5190678101144882,0.49219285509120847,0.478036659501756,0.46375463989667753,0.445927302011383,0.43181664674084264,0.40509249688789084,0.38332966639066945,0.3865896815133859,0.41261355509568043,0.4045775398167277,0.38220879890364257,0.3613256677541654,0.34155798741835464,0.32184837378025877,0.29439246658264895,0.2722675114797942,0.2498272216011218,0.22533090569572833,0.20192542824866577,0.18445926783226363,0.19761482522952423,0.1974237068291066,0.16706465481322108,0.1426525444384984,0.14774909115691182,0.17994799903231218,0.2159838260728867,0.2539023110923575,0.28953284214872665,0.32821794057129505,0.36606441819014823,0.40117684514480945,0.41818107554791584,0.41074537117521304,0.42778314197318223,0.42248466999034007,0.4194666459932358,0.41440606622715326,0.40980112543141356,0.3926614059237511,0.3702285600522033,0.35029943936519514,0.33633979347401255,0.31121709171136036,0.2812387388715495,0.25923933332743043,0.23723315251953658,0.22176364576602825,0.20911192329262152,0.19100600542531498,0.18000271449886618,0.1788631140039908,0.20790894460436082,0.22194706049875224,0.21986946896838933,0.21144057982194064,0.17940585083502436,0.14616449699047462,0.12807831437664152,0.14761574712761893,0.1793996783245827,0.21735495805588867,0.25639911446081987,0.2954467654843741,0.33376995427949596,0.3547739050295545,0.330798492587954,0.2954165292513945,0.2653647857968703,0.23947079354544953,0.2267625437616635,0.2217171546140787,0.22681005286383105,0.25217901584326496,0.28632996222005525,0.32487592193326165,0.3637031441675982,0.3995521571775992,0.43686837614538276,0.46955178214730997,0.49927735440446597,0.5310246374781135,0.5686087703974776,0.6042158958947573,0.6417921441194473,0.6774789752127738,0.715088322551705,0.7244196260756194,0.6905540739593613,0.6515357539398355,0.6134669532233358,0.5778495283434286,0.53917556754903,0.5017630388674159,0.46570789070383434,0.42902802813583396,0.4003178239015349,0.374293728075739,0.34067295383209084,0.3088755905303454,0.27911800004638276,0.2631377497735905,0.2435295482439238,0.24589150066419707,0.27247604234632594,0.2996127005230599,0.32128897203712814,0.3403172809118381,0.3684792448268098,0.4043098039210392,0.40709947306611594,0.37855336402875484,0.3492881853558253,0.3339443122326162,0.32239542618170414,0.2976577404495183,0.2729406651126529,0.24566193861288788,0.22140446331581143,0.19195404910143687,0.15701531784565448,0.12173767675628666,0.08687155225238824,0.05343056256333939,0.019999352591160924,0.0,0.01613896102179252,0.04920220249481083,0.08437314219782288,0.12052479289596518,0.1574680351430533,0.19611405229025702,0.23086837473255284,0.24121849308102095,0.21039005223395413,0.1727907092557862,0.13761186672676462,0.11134528999248394,0.09253973851843089,0.08445141613279389,0.10752481949457438,0.14319193543781128,0.1820826090552604,0.22106614740591068,0.25770616121944345,0.2945071091658964,0.3335048287595185,0.3725284171382778,0.4088731308518915,0.4378341618991459,0.4690646495330272,0.5047547960982558,0.5407219366837641,0.5781120032522311,0.6143653149888567,0.6515560848508678,0.6898320452066852,0.7248472668697691,0.7592496939456105,0.78957079029989,0.808059384750971,0.8327845981168726,0.8607693081760682,0.8897664953230221,0.9266120953487985,0.9652371676983144,0.9872016992089964,0.968120901212406,0.9543291483715729,0.9562892341979611,0.9518680372035416,0.934416482959206,0.9294318580967128,0.9344001626815021,0.9298115628097446,0.9051605219249302,0.8780607312966143,0.8542416229074606,0.8241555681452438,0.7965970316089702,0.765387896486483,0.7304409582974941,0.6964974197308934,0.6657803105263159,0.6419996421181647,0.6573192878774946,0.6926901519279504,0.7309709830928516,0.7657642444263962,0.7787213445669422,0.7463451117824279,0.7120080612426151,0.6807178089873026,0.650106129678344,0.6211979314346897,0.5909205100502232,0.56227004806937,0.5367415531568145,0.5063062633770397,0.48250649152659364,0.4750395736546874,0.5044765861814496,0.5266245764041448,0.504939344844568,0.5095479807422719,0.546403992839099,0.5822927194630728,0.6199422082545306,0.6579435121237703,0.6783321707845201,0.6564943766892991,0.6181170075093919,0.5811215513268433,0.5448796051443463,0.5201515052869883,0.5412551710096876,0.5695554258068731,0.5976248364384055,0.628451118716956,0.6572590359477616,0.6867844377059417,0.7189846945728454,0.7536542412902884,0.7908433815109525,0.8263701657287509,0.8616061814871728,0.8858632855113208,0.8806162555446618,0.8467769051857198,0.8078595812441752,0.7705075002531959,0.7364932101760951,0.7081283715559649,0.7144121636871951,0.7479522167298606,0.7823536932873584,0.815416178329298,0.8450529762248015,0.8730048215976564,0.8988296106012658,0.927720048527419,0.948406120547527,0.9562863068718684,0.9537474737595238,0.9507307095748067,0.9590473049766958,0.9729893262571653,0.9754507675554099,0.9816624921999747,1.0,HB
0.0,0.05203499768657684,0.10841843949676644,0.16481234646769263,0.22120625343861877,0.277600160409545,0.33399406738047116,0.3903617682986008,0.44537979369840425,0.49957508931016636,0.5558413377562191,0.6122352002963971,0.6686283075027902,0.7246967650761316,0.7785003841962501,0.8340689694802842,0.8845648659640544,0.8761567341014417,0.8255269102543383,0.776740532519232,0.7251488682312888,0.6729925575167711,0.6246424220454418,0.5839190579321051,0.5450097331008418,0.5079305083584864,0.5077795328508978,0.5310684398405244,0.5586371430877021,0.5683694575798125,0.5944246505405327,0.6212234637271896,0.6132658320677595,0.5623182331282439,0.5084409329611493,0.45274950364742605,0.39901076173372935,0.3433995589252791,0.289342271440226,0.2341570064788489,0.17780500328603518,0.122764179445664,0.07448285365993879,0.07984080359899441,0.1318425586059966,0.18819153725136345,0.24443978948724837,0.29856844956449363,0.35366704214131506,0.41003884574600935,0.4664189784104905,0.5217303520515483,0.575699203668247,0.6318863292069881,0.6882799786619354,0.7445945190389676,0.799037888042741,0.8534299841767707,0.8877973751374943,0.8523299113503277,0.7991563207739814,0.7481095385706203,0.6996901484128357,0.6604998372857596,0.6844352939164627,0.7381144895022319,0.7923431710406271,0.8462332627133685,0.8998366297911609,0.9531500929419736,0.9970782721926897,0.9836234179511009,0.9308646362777128,0.8761049250659564,0.8217125018076946,0.7654067246488735,0.7090128176779477,0.6526189107070219,0.5962250037360954,0.5398322786156282,0.48511856570668654,0.4703237302291656,0.5187105503789001,0.5738711509570545,0.6274464359276105,0.6707563813489704,0.6580522055233362,0.6246654540629638,0.5944614639720769,0.5816870173525659,0.5671792466237253,0.535894362527168,0.5182107115667024,0.5394908527995321,0.5799135273260232,0.6176996966323772,0.6658291241454215,0.7181656116868469,0.7717898845586666,0.8252101261303675,0.8785782019774092,0.931671972999455,0.9750430372480526,0.9590397844455344,0.9046991152356073,0.8483522568895276,0.793583215974796,0.739165255100559,0.6828555193706936,0.6264616123997675,0.5701052989102303,0.5152642879497348,0.4609136759554863,0.4046146905755306,0.3493266191864318,0.32843250472757957,0.3743415904356706,0.43018231086196984,0.48391211016877544,0.5392168859859212,0.5925725422324406,0.6395874272903851,0.6404024553913034,0.6138748239726138,0.5859822569832666,0.5775332707781892,0.5516792917399039,0.5294251227810238,0.5282636533068992,0.5650420298084589,0.6036032059385497,0.6470815987123157,0.6970754890230124,0.7503265304053681,0.8038229985268002,0.8571240114135804,0.9101873208485444,0.9609893211692904,0.9725387353584273,0.9258880857075004,0.8722530519139826,0.8165471695818888,0.7601604783717264,0.704327209416368,0.6505982240331779,0.5947022944007512,0.5383104936214927,0.48191742435336227,0.42697848055766957,0.4098489774268336,0.45727597316593455,0.5117585763641745,0.566305183378411,0.6203674090585463,0.6630196037793944,0.6507336033973677,0.6212474355304962,0.5920388899142536,0.5793368842087742,0.5566269473940353,0.5323022104904301,0.5356571326197617,0.5721767411254998,0.6101114570595274,0.6524269407406607,0.7022605445229121,0.7551818981415779,0.8084638359601621,0.8618643818146523,0.9155501019118951,0.9687590728298259,1.0,0.9655793797796104,0.9120755395203066,0.857013804230038,0.8006437782655841,0.7442499014864432,0.6879787587718755,0.633760684842869,0.5787685965510392,0.5224026453496585,0.4660087510185146,0.4102704745487545,0.38255859351697535,0.4226961702122699,0.47742314010231857,0.532777916663291,0.5866312603995864,0.6395049354451883,0.6608236202680953,0.632913417170969,0.6046025721918532,0.5847589136528726,0.5762153413007897,0.546524505811965,0.5240307637059032,0.5308807429072919,0.5688149562871792,0.6082047982685053,0.6520333126996355,0.7027640036270516,0.7555450219078431,0.8086237230168787,0.8622834159157273,0.9158650322860438,0.9673744731575324,0.9810024539445988,0.9358867696123464,0.8819677719911457,0.8257481944391457,0.7693544443485839,0.713029921127651,0.658507775614742,0.6038478061094249,0.5475072184035825,0.4911133114326567,0.434741203065959,0.3842580319191885,0.3914760985166069,0.4448405080593373,0.5004954403462377,0.5542582616800357,0.6092575405445265,0.6522511506803312,0.6409764660281683,0.6107001909440699,0.5798170819473809,0.5678151305761812,0.5462218071901347,0.5281871992801521,0.5248860604116563,0.5564698830318114,0.595274272791962,0.6365425851812482,0.6854688863158042,0.7378724857478256,0.7912497187058869,0.8428646407924344,0.8920192047446218,0.9456817513486141,0.9786930316054799,0.9459379952887926,0.8922142023318728,0.8359393560343905,0.7796848897951346,0.7255318441219548,0.6704625026682527,0.6140974626812981,0.5607805334114426,0.5548739589019296,0.6045541044811258,0.6518364206696667,0.6505221051266833,0.6225307769062484,0.5934545014232604,HB
0.6565374415691935,0.6520440954613272,0.6776660604668215,0.7077315424011087,0.6794435428879698,0.613467224020711,0.5366692246701151,0.4560280987030685,0.3727148310824945,0.291523752881349,0.20629487663520152,0.12517699583604802,0.049405451321782534,0.049498339909599176,0.12780089676046724,0.21186096592921544,0.29299066034931665,0.3785990171299375,0.4645421349612757,0.5471530158087982,0.6295317867261109,0.7154506746266115,0.8007464580049818,0.8760381541033061,0.8777089238237609,0.8072119544496453,0.7418881977175976,0.6985161570620965,0.6639634601741463,0.6189772142992992,0.5806272898096986,0.5873294160223684,0.627165951345736,0.6669351211010909,0.6710775736615767,0.6652254081586911,0.6784455704585756,0.7098319263066383,0.7089519331874611,0.6423648206270914,0.5619804588126546,0.47998444260991413,0.39783785129490645,0.3144586241899374,0.2329316705780815,0.14946539702851225,0.07111497867826477,0.04471678277468971,0.10891069454634106,0.1938411458409427,0.2783297411073976,0.35922940457411334,0.44466358954630636,0.5307030133157175,0.616743704091994,0.7027843722418757,0.7883781465420111,0.8457833498735178,0.8023186893561635,0.7354159735257083,0.6914904277121888,0.6556904885369762,0.6092592713916599,0.5688050983907172,0.5678344043242479,0.6053366256978544,0.645049727145602,0.6539220473085497,0.6481361218812366,0.6658989786207675,0.7004673858642113,0.6979212352575407,0.6315818014335753,0.5520362716740231,0.47171385944490984,0.38765014467546266,0.30690555777885753,0.22835295328050942,0.15045458761943475,0.06523501980656976,0.0,0.027977251800333836,0.10960077190626238,0.19149892041415684,0.27458981260874515,0.3605700437784022,0.44618374122314663,0.5273260085950345,0.6114035732026032,0.697419349052096,0.7822936167479849,0.858478982642655,0.8660623034282905,0.7936276373075003,0.73019797295387,0.691026451686981,0.6542557695824694,0.6100363470917124,0.5837758851858149,0.6038487415075443,0.6450511163765872,0.6722914872593903,0.6731598251639822,0.6765681281149883,0.7018382527584902,0.723019533333577,0.6858000914946657,0.6094215117936491,0.5289359014911686,0.4460916471482286,0.36459154254150183,0.2815953931786672,0.1998475801596984,0.1161120697770136,0.037400241240843735,0.01167211131211543,0.07910543911232404,0.1613276284774161,0.24717678351469663,0.3301565935369605,0.41218401116988634,0.49805352713209283,0.5830183295467114,0.6637780589051429,0.748869207176266,0.8331519780838382,0.8781126908660285,0.8247711126928988,0.7529421816996743,0.7051560958311264,0.6723790797709913,0.6292972068048562,0.585910681376887,0.5811372988677835,0.6183605163882865,0.6594580418886625,0.6726214991770382,0.6701905138975707,0.6817563092604039,0.6932443718074331,0.6944633929103156,0.6736565168278447,0.6300021259715322,0.6048980577257429,0.6352882465267208,0.6807724924166164,0.7157154665386735,0.7562831175885519,0.8205605689237373,0.8876925110024559,0.9620884157999358,0.9848288285953085,0.9206962093947547,0.8381805615025885,0.7523251324705073,0.669746906908803,0.5873363612644552,0.5014190486852704,0.416809492472058,0.35119191235233693,0.3836161280789999,0.46810690896610374,0.553665464505919,0.6342458309886773,0.7084860434052177,0.747378156961256,0.7388817819456771,0.7081600830776943,0.6958859452569853,0.6984894388861288,0.6918532025527656,0.653765525881271,0.6164877640547824,0.6220574094147514,0.6639566198583736,0.7024022571145371,0.7407115128169236,0.8028531221118388,0.8772696741885232,0.9520352939195055,0.9939835990858205,0.94147937271611,0.8601849371991853,0.7783130526891328,0.6925336842239099,0.6095480238894667,0.527526148269937,0.44168250604613957,0.36495492937505014,0.37884196912664714,0.45658814762421296,0.5376510488528871,0.6210789907595832,0.6990875626684229,0.7356639846375598,0.7195250609207261,0.6851503915318501,0.6708730317497701,0.677474310881632,0.6636871903414806,0.6239011674853033,0.5878362974779118,0.6021219296631436,0.6487643114239942,0.6901317595101911,0.7272478233550018,0.7846105097671007,0.8585761095147874,0.935066490952369,0.9963513986014595,0.9735870188085373,0.9037707014510744,0.8264850140366392,0.7407548949733568,0.6579717011730334,0.5757595497601943,0.48990504423411607,0.41161024012513714,0.41529426072797526,0.4938856823531049,0.5744298066515282,0.6536272759479426,0.721445693199516,0.743946621932467,0.7207482900973031,0.6929652856202758,0.6899339462680726,0.6963822136879602,0.6843976298332913,0.6420287712291485,0.6043412293683649,0.6141997639504123,0.6613093313683579,0.7002833660741926,0.7355370611942512,0.7943350233104952,0.8696439514680682,0.9451717551910442,0.9999999999999999,0.9695096237410096,0.8878483246435226,0.8018372354154689,0.7158960663958004,0.6333101572374317,0.5509073682973994,0.4661842101334994,0.4273619137133139,0.49193796735784645,0.572234235582555,0.6518141044229281,0.7163827160196935,0.7336198375533954,0.7068501058330173,0.677436835696945,0.6763466223635793,HB
0.5523693034772839,0.5494976524782702,0.5642544876324035,0.5975552967012906,0.5800304156085275,0.5133770717330417,0.43366794599218905,0.34722200587986574,0.26325087096472277,0.17968421354702946,0.09531492702111477,0.03923006928257844,0.07258890840637766,0.1450950713050626,0.22884009674535744,0.31297281706951985,0.39636581933571646,0.4829004157259005,0.5693588968741051,0.6524098416998328,0.7363944804914616,0.7878040120958217,0.7337719425572921,0.6578004427852066,0.5943309639380879,0.5429687771135622,0.4864792538659035,0.4184452140596606,0.3674356303620643,0.3878775108092203,0.44526697355044287,0.509169351848445,0.5664672769297762,0.5825799791660143,0.5717705143390913,0.565429641100493,0.5913263684092548,0.5768569119029433,0.5103476317042442,0.42880330273287903,0.3536833816860998,0.27252600030535434,0.1860853549890037,0.11146547529824113,0.1204784557063967,0.1990431938739199,0.28140228026811087,0.3669465337082106,0.4527866676846788,0.5351676071989372,0.6209918274053957,0.7071269171326794,0.7873820220065436,0.8124484874763743,0.7432072158539641,0.6610246739803921,0.5911693333835161,0.540391747605936,0.4862281430582359,0.4225045844536721,0.37017608031394333,0.38974570126569474,0.4493105754675534,0.511313900356735,0.5581505460778619,0.5600022624595553,0.5488449756034033,0.5572145887953761,0.5940250649981823,0.5929620939426584,0.5301613594518231,0.44831655318445063,0.3656272885678906,0.29116509376470145,0.20977048279663224,0.13530184031031178,0.05268649472781656,0.0,0.04975622072100039,0.13156425837526486,0.21657051513509273,0.3029568858220061,0.38583836035236685,0.47062467630967075,0.5572822775187429,0.6435048834174278,0.7260293554039318,0.8017732625039798,0.7881361260981316,0.711148552405774,0.6363119224972021,0.5743637596430086,0.5228743296416609,0.46141907013189365,0.40082002621566737,0.3467387929300627,0.3544092516441488,0.413041002266744,0.4763650430440314,0.532218195636072,0.5507505667261734,0.5566522292060915,0.5523494886658956,0.5798445301548653,0.597597362594117,0.5505034504821261,0.4710397379566442,0.38720449832077364,0.30403052819854726,0.2198540929275079,0.13681698728317904,0.07055828371368555,0.09923472533053435,0.18045941116985587,0.2648373896019577,0.34792688915125347,0.434395008670198,0.5205422612910792,0.6030301168035667,0.6884523441360323,0.774270469536022,0.8200508645757164,0.7608770032372086,0.682652427789901,0.6119036339000786,0.5580798596650275,0.503372097127876,0.4389524801643232,0.3776722839856764,0.3709842970502706,0.42449822623241573,0.48638971975257594,0.5450768563527678,0.5749468680015944,0.5770186388911461,0.5944151476903184,0.5912177538395705,0.5515277306547013,0.49139673522461247,0.4289117373892435,0.39616432758805376,0.44473416471032934,0.5093084408557328,0.5639870031370279,0.6174055429955171,0.6843752237274155,0.763891227177815,0.8455576346266119,0.9184487884781064,0.9928032220045021,1.0,0.9246766867746149,0.8423313060412011,0.7568096180292735,0.6707710650563722,0.5883477698917295,0.5027663006660567,0.41970296031550147,0.4061569457895714,0.4819732396752041,0.5614711917546369,0.6172761097077709,0.6184327060619129,0.5880942823519527,0.5792034628565966,0.5770506554462079,0.5703580902228281,0.5296874264302388,0.4692164076140699,0.40466958935817454,0.3677008521410122,0.4123602594723661,0.4794387204145827,0.5390073622801375,0.5914808880458854,0.6527135516497143,0.7313053007204858,0.8131597467547634,0.8931790787079233,0.9662541368032546,0.9654714935573788,0.8895562593859166,0.8034606133437815,0.7205257603257055,0.6358076051372789,0.5491576908138278,0.4654588246887664,0.4420331750743477,0.5135965118461113,0.5891545337129779,0.6260598749752967,0.6103830031432734,0.5763458808359309,0.576213138331159,0.5883497118885287,0.5769422647147734,0.5254320217343993,0.46378118125407575,0.4047298377224877,0.4025275706944885,0.4642201489400828,0.525229320508581,0.5747856860187693,0.635001659786142,0.7105574589250522,0.7910092005949824,0.8712795262273131,0.9490573053499568,0.9589420722710974,0.8845697923549077,0.8004614452749358,0.7171894155685393,0.6307138769839261,0.5461652113984921,0.4630944201675784,0.3782177626443226,0.3448634570508706,0.41214787602502234,0.49456067299594075,0.5720232914268361,0.6144217676480267,0.6064349572607012,0.5880084208270379,0.5994069538886265,0.6055103809174981,0.5841856230743073,0.5266435502373278,0.46361074969183647,0.4081533571998539,0.4202638546561738,0.48572790362838447,0.5463099032145745,0.5966644669705706,0.6589424665017466,0.7347458698457175,0.8137348739676998,0.8943588444897589,0.9734337255071722,0.9991185464234805,0.9323372243464133,0.847874163479233,0.7630058873505637,0.680208155006332,0.5938378581471605,0.5071996161419983,0.4229006685508715,0.3530074734923001,0.379110106497486,0.45977395198301674,0.5418183599634485,0.6098752957259529,0.6220164748205023,0.5898121103721926,0.5726306052479074,0.5740008076705724,HB
0.2926741084901623,0.35235802310451514,0.4062874288850806,0.44838744086122384,0.45362482423599815,0.41173770917580566,0.38637655054777986,0.35153633765188164,0.3099533273248172,0.3212917579294361,0.3928782466161762,0.4389255392930238,0.4178581979953351,0.33623277533760776,0.2419559487343621,0.1515041947236122,0.06408528710963557,0.0,0.020441569927648895,0.10585392560478346,0.20076124553688546,0.29754124368547297,0.39285482182459996,0.48243801727856117,0.5670618688612439,0.657510921388391,0.7249589345455811,0.6746389993281503,0.5907054784497552,0.5265633742870237,0.49374117875497703,0.47554673137808545,0.4706070307782504,0.4772973826717919,0.4789942468275836,0.4390073908226706,0.3518702946109269,0.25615511131128166,0.1654269392970571,0.08078220480647147,0.0881164357684836,0.17335207264638264,0.2695966522742861,0.36535578230880916,0.45563400352944816,0.5509937047431099,0.6425306898942673,0.6502973426520082,0.5809021737751621,0.5340633398125778,0.5218780032963641,0.5095195416887426,0.4809497176220827,0.48245102993615485,0.49542105753698595,0.45419428123217487,0.3665091673707417,0.27252300366893745,0.18047901849244208,0.11408704339399756,0.15797642772954368,0.2467814120630516,0.3426805709957288,0.43493300632651777,0.5275285375375893,0.6202215982128101,0.6368899911436674,0.5721189924901331,0.5390145021975903,0.5201723048244307,0.510674518422193,0.5025881478236318,0.4927477513027325,0.4926370769194157,0.47209151292699403,0.3985510473970204,0.3178749787843509,0.2329604497222988,0.1389424921235538,0.059507590915503616,0.07454147868503469,0.16392024988209397,0.2546016722727633,0.34959144840616174,0.4320950897666396,0.5182207090469733,0.6141909794311651,0.6951869767395646,0.6675791644394875,0.5922909050106886,0.5435798743850095,0.5234928030549968,0.49641364193206194,0.4637283033429096,0.4750522618100268,0.505183151041849,0.5131747449807116,0.4908717926566426,0.4103237984351833,0.3190369595288174,0.22252302049501216,0.12580782910168953,0.04089445646515788,0.04989266916469193,0.1345812521764731,0.230439030895764,0.32175046831080567,0.41538928980433854,0.5116120001187487,0.6015326750444021,0.6535600564975741,0.5965539651555887,0.5458359142922755,0.5319501034658656,0.5190014311354987,0.5226011943176081,0.5223496407607693,0.5149003143209745,0.5127556127977522,0.4903031005851155,0.4152478176672898,0.32248652283057755,0.2298128573322724,0.13972121191243425,0.0915503879398556,0.15234134859730308,0.245394278166696,0.3361072815832664,0.43235289069226934,0.524788080873436,0.6039410625431783,0.6803927896245423,0.7147190948747548,0.6496457048418263,0.5775769122743255,0.537333129372314,0.5207757979522005,0.4845445881632042,0.4590606624995208,0.48205395971344944,0.48973453108797793,0.5094785446341079,0.5466775205017571,0.5614125227993427,0.5963816041675416,0.6684993722021837,0.7547820638567027,0.843665501606615,0.9095344341677196,0.869081440547075,0.7808954739126355,0.685711171730802,0.5951932386264218,0.5004463668572239,0.4051050862440806,0.36513033158634167,0.43919001770255317,0.5224611029585415,0.5459249418501346,0.5360981448933704,0.5434817179357201,0.5518281741766291,0.5459999553595221,0.5451832997696784,0.5590528812221776,0.5803080412647637,0.6476884630354514,0.734827532866563,0.827853238312473,0.8782345116229566,0.8226315994071032,0.7292631181680029,0.6384407583771217,0.544195158679295,0.4498922397009042,0.42076903774719043,0.4968892304105048,0.5605403881141273,0.5431251889372266,0.534575466095502,0.5198571580591191,0.49477861032678394,0.5166392871692405,0.5443796624150139,0.5636482061084567,0.6156480257484727,0.6958717112083488,0.7841600235951156,0.8711518659809532,0.9136099268213833,0.8503961816795464,0.754578228277216,0.6578145818220005,0.5638267330498581,0.4766515100875375,0.4591107151142284,0.5206845111394083,0.5205892382604449,0.5202757876859649,0.5184916287559271,0.5267355559436309,0.5347734470476155,0.5490773151103123,0.5678120043287669,0.6016727230808347,0.6840220809615032,0.7638360802155462,0.8348938833557253,0.8344635836676191,0.7524728146657933,0.6609356565183597,0.5660613561366665,0.5225708256445785,0.5635224701871595,0.5353690135428788,0.5142996748389157,0.5090610879917699,0.5384304481335047,0.5503908490520568,0.5560960181436867,0.6009263443682273,0.6791590508963348,0.764630219441979,0.8408447740040905,0.8280411961602205,0.7389332641980619,0.6421991615312344,0.5500925774520904,0.5304331346585975,0.5807588534491555,0.5429529773645274,0.5119953699577051,0.5084158560271161,0.5091726741817229,0.5159672612454655,0.5360247254055652,0.577751706161379,0.6580358567483804,0.7464891544999737,0.8352481745574285,0.9243232927222513,1.0,0.981707023488249,0.8950495668480352,0.8025043032207555,0.7105644071255439,0.6143674986230327,0.5234433612097089,0.4375108632319722,0.4417151026944788,0.48667593596678427,0.4905891508669118,0.5000179593782133,0.49188871527653455,0.5001963820239808,HB
0.39416631541480773,0.40859882446135465,0.37486410706487827,0.2984847142284367,0.21576922496635442,0.13126974599064434,0.11507147687856267,0.18664167499854079,0.26337263053660853,0.3312487680644426,0.40525322979088185,0.49179532851783503,0.5846027805393067,0.6783021020428163,0.7419224343984069,0.6869841848236006,0.604178645510499,0.5237102401290609,0.4552065034064331,0.413403023619476,0.37586425846292315,0.3441575919844456,0.31424298180401455,0.33423994082922615,0.38164937983075176,0.39478938051251233,0.38217977454676044,0.40442539999850335,0.41924320053277275,0.40801465569667716,0.33838865200231416,0.25044845023126017,0.16150010290427053,0.09365859628503592,0.1298930102957473,0.21622202537303947,0.30953223929105367,0.3997679258532255,0.4897365395800456,0.5836239842922907,0.6741379748729127,0.7075983614354343,0.6377473339412351,0.5531868233752503,0.4813014647108481,0.43064325752242383,0.39079232406589337,0.3561433594318283,0.3232907734110838,0.3189927786641106,0.3610522041017382,0.38093010079279066,0.35284231594094095,0.3678633350197845,0.3934333812124641,0.39603091493824916,0.33484427874093614,0.2458541831356028,0.1562258608524708,0.0629454225057362,0.0,0.04554612008915815,0.13369098377972322,0.22698223435333464,0.3154554940844084,0.4075137081889836,0.5015367744233022,0.5954469706255862,0.6793336002299942,0.6758606289968013,0.5943482510532062,0.5115076965877917,0.44430159597951013,0.4010735646643143,0.3599560711942168,0.3185932781953241,0.2878830323458831,0.3040354381210363,0.35551325773484954,0.38674204409582613,0.3737953387766165,0.3890532708885267,0.40109186374248684,0.3958028058109021,0.33775984487683675,0.251628422877502,0.1625400746022868,0.11339417762820181,0.1707652288437801,0.2623532316378906,0.3535882189648544,0.44264075758994104,0.5363021427350044,0.6192040342315671,0.6069043566296278,0.5304363712443515,0.4586443830693713,0.4154677745313896,0.38672524872126346,0.3591624352140551,0.33384713789959564,0.35378105286763184,0.39759349382039055,0.39758095714368424,0.37978807848244844,0.4005837012341399,0.41794456066081,0.3970246797914442,0.32153167256217097,0.22975727169618654,0.14082729945841244,0.05156114120804223,0.0027783280448662184,0.06205968963304054,0.15343031130221785,0.2415880112569061,0.3344429953205491,0.42614216286168294,0.5080330492825661,0.5841431953054234,0.656024993977777,0.6324875431823259,0.550399788667797,0.4740967982189993,0.41798327071169206,0.3876909084421928,0.3611640824528416,0.3307269265368701,0.32791769600722354,0.3717685374262031,0.41735565963948107,0.4000925609341949,0.3900991994666735,0.41647049027983785,0.4486155672204176,0.47541215346203713,0.5293516884458561,0.6098849550076971,0.6947267811804286,0.7814890858280085,0.8689599444572625,0.9294023412816753,0.8833056098407995,0.7964815101866715,0.703457058831337,0.6094202481646301,0.5153802290184414,0.4213402098722546,0.32773071442120283,0.2671076704972496,0.3257906593962875,0.40923908506018203,0.45861327068585045,0.4732181617193293,0.4584117926784247,0.4374963111423028,0.45803563782504153,0.46755032707122723,0.43099825975694805,0.3983162619601551,0.41324631129859835,0.44978928840575516,0.4783315985073874,0.526185145439252,0.60013621613636,0.6874644104367066,0.7763118944175736,0.867244591586848,0.9488078788663724,0.9567332689324769,0.8787849005661129,0.7862238915707113,0.6978824537262206,0.6055895084168709,0.5116231875228013,0.42800652539338235,0.42953537186122126,0.45726558444079657,0.4575768472070302,0.44956767745628123,0.43694653001533335,0.4439739562765027,0.40948096873755946,0.36090196867378277,0.3616558445864543,0.3996157369672352,0.4424651300108994,0.4804696367767419,0.5368380984313367,0.6179190590776046,0.7052061599689757,0.7972204494928125,0.8815339387764453,0.9088449828293369,0.8377158549605915,0.7485192099085788,0.658026070879331,0.5640721212155749,0.4706676655898544,0.3851994876828918,0.3645343045585291,0.431740531004155,0.4607935784139262,0.44888312651858875,0.4253278031512925,0.4320555985298965,0.4480789526983894,0.4112778390230184,0.3788135093923707,0.40178583983512783,0.4407311537406643,0.4793438112139664,0.5218551775188492,0.5927335190894588,0.6787169984989764,0.763485508659869,0.8504244670815354,0.9364765962710878,0.9844601019098173,0.9276843884071683,0.8357998068488169,0.7457024384328367,0.6556059388632504,0.5616841978365915,0.46764649518949,0.3768867506154009,0.35854310962206226,0.43127941975023665,0.47133397732114835,0.4700097650322831,0.45086952807600744,0.4510973617996691,0.45545932502992337,0.41340312738488205,0.3768204737211386,0.3964163825673336,0.4341281524371182,0.46989001729765356,0.5151303428469051,0.5900525259972701,0.6719721851782378,0.7606696829178964,0.8495569727299229,0.9387816496271179,1.0,0.9553073409110372,0.8657446523649527,0.7747569676677687,0.6855422171531823,0.591802009765053,0.5007511085873185,0.43012767017542874,0.4481729648005658,0.46328660238156727,0.4493504678750623,HB
0.22084519244749057,0.25813017603386657,0.24125198664329095,0.30279746387984274,0.40528055637297267,0.5134475906109064,0.6142641263496968,0.6113555312340995,0.5144444234018999,0.41385137939960037,0.3246883243137437,0.25898950336717697,0.19789741790580728,0.11713528098906356,0.04887016852938997,0.0624975389222342,0.13952400680320953,0.20928065285989272,0.22154272094836913,0.25120368557177075,0.25468548381561074,0.1915472668803211,0.23327158171785256,0.3388854955500964,0.4445884589138276,0.5500828775072355,0.6570675201806762,0.700685766778061,0.6172553560782656,0.5141043022655931,0.4135966088520333,0.3226126997249308,0.2608858670742853,0.19627994410550564,0.11500157313226222,0.039514560661285336,0.044072872910230876,0.12531944483984403,0.20296437688411406,0.24149513264082922,0.25504719836406475,0.27098430973190624,0.2059444802029804,0.19913844554834248,0.2936239644118479,0.4009606596212585,0.505055951626578,0.6122972150750874,0.6696478912132942,0.5953786484841357,0.49530337531829627,0.40462842966525536,0.319980404180358,0.25711508144401174,0.18903687579995165,0.10468987305871402,0.02264251684440166,0.0,0.0728123252378452,0.1590310857447068,0.21564609739213592,0.2351628507678205,0.2707754081838849,0.25363533628869517,0.23162664048096904,0.31710279190639756,0.4210908951062269,0.5295547789791444,0.622221822541033,0.5920611140980185,0.49237636216864655,0.3949103508084657,0.30939834905289154,0.24731642305716672,0.18080411843631206,0.10152814166578283,0.041685295929736355,0.07811109931192506,0.16164443015335817,0.20847052886091166,0.21608391643605485,0.2546374592295808,0.24702218144529042,0.25137081565881325,0.3454998333990027,0.4542215863498742,0.5632339739088958,0.6659500596894736,0.6729597826152975,0.5781321979153369,0.47568656501052575,0.3776490663869845,0.2966327102986204,0.23871134411735206,0.16761993615502258,0.08788637592978954,0.04714370140375845,0.1020674062361725,0.18376526940194915,0.21095632561245514,0.2157095951084469,0.26573587138443533,0.2578568981717426,0.2995794536572616,0.3985502306628186,0.5049070222218626,0.6097895146872909,0.6330318515148419,0.541948370074173,0.4374118341540256,0.34333776790373327,0.2761711602459558,0.21671759568566396,0.13931599830411634,0.062007277416883166,0.0551320673212371,0.08930155281738728,0.16192532831365058,0.23816328289222422,0.29687359949011793,0.3687848000625955,0.46321575901042467,0.5645475856072955,0.6687809688413426,0.7727088387389922,0.8809437559207882,0.9810625811129252,0.9876686406559436,0.8913240769303481,0.7871269119273951,0.6799634125402707,0.5710660754481145,0.46537794456789383,0.36351018390269774,0.3052478283755884,0.2606146654286112,0.24019115358110543,0.22419463998555877,0.15229714929919624,0.08532716374387816,0.11793080554226743,0.19646603126885442,0.26402428964372326,0.3239798297319918,0.41187873841691847,0.5117980483680062,0.6095548375483533,0.7049576820866401,0.8094241899390258,0.9113490120909171,0.9558010942980941,0.877899409273917,0.772104132887945,0.664393015386328,0.5603894096993696,0.4521843394831693,0.34909749314945326,0.30153415657720517,0.26385759979728607,0.2445471057033768,0.23607779506932758,0.16826311364712443,0.09203295916766074,0.10294036700356979,0.18128637364526545,0.2522606997779395,0.3102439094600935,0.3916012664537789,0.49048373077323815,0.5920842034518567,0.6949266725267944,0.7839196902260805,0.8762539462062338,0.9163633472296804,0.8358075761748809,0.7359682653008504,0.647692004451943,0.5604735943801509,0.47360120226323166,0.38202186312620867,0.3172625796824382,0.3185354932000599,0.28314154741757736,0.27354543414817956,0.23894045577762424,0.16031437533282644,0.07571211028523128,0.06517752066280136,0.14484810112866087,0.22649502700724988,0.2931593799326977,0.34761246044014693,0.43236229640749113,0.5379747912112613,0.6413694748090781,0.7440312303530452,0.845921414861184,0.9273323136026872,0.891095086542814,0.7904815391869398,0.6831588886615398,0.5743954586952265,0.4695475687325872,0.3664375105762778,0.32165028117527195,0.3123550601555305,0.284353555844604,0.26434388568472533,0.20473312047277625,0.1209857074557068,0.06706632077769359,0.12131958255774689,0.2051133639493321,0.2706674765603716,0.33202662779549486,0.4186807151258467,0.5183288514172795,0.62305847130561,0.7308643491851026,0.8347083787367364,0.9368862876883906,0.9805712660252017,0.9094077513591234,0.8072340650879248,0.6988291900898325,0.5908951906550404,0.4869200234569768,0.37910758076744666,0.2970228542383244,0.30689507759441104,0.2778978683416553,0.25289283480408753,0.22062170961840621,0.14747097447433677,0.08310441932374568,0.1181622649446985,0.1967273292269498,0.2625592716772296,0.32536429731822025,0.41310843971359823,0.5136250388757737,0.6163966282609383,0.7208836432319399,0.8251548677705771,0.9286268488758145,1.0,0.9439602361255488,0.8376930281321902,0.7314115917783481,0.6264580701153792,0.5177168190248924,0.4116362013661272,0.32243071907078,0.2930363729797658,0.24962558107231603,HB
0.7859204443555808,0.7944916089304661,0.7821293982959495,0.7667509371627866,0.7838239368859051,0.8116964006695181,0.7957612777045061,0.7350987184630348,0.6685624488824601,0.6019679676438019,0.5356018339384075,0.4723182235210442,0.407412064654143,0.3409476733858542,0.2771185850847172,0.21288720559069596,0.1523291856150925,0.14883763965638996,0.20546745923264287,0.2700798690772166,0.33663963015484843,0.4032342325349652,0.4698246766834722,0.5355676645453992,0.598391731443129,0.6643636698392696,0.7309562785706967,0.7971295508620978,0.838928558323831,0.8190649283574161,0.8035263669212661,0.7966982927509543,0.802952303172548,0.7802368922783341,0.7878152196110545,0.796342242439388,0.7779894267564075,0.7610960254327132,0.7769317520318446,0.8035105227353522,0.794236715415168,0.7387332607096038,0.6745371154975236,0.6188791828003939,0.5553034680542375,0.4888827511816363,0.4253035583835275,0.3607542228432482,0.2941994707530895,0.2276099082515069,0.16325189076384672,0.14125428052299982,0.19186610353504097,0.2554611152593784,0.3219369257333074,0.38853152811342356,0.4551261304935404,0.5217202614537135,0.5879736942445617,0.6510147191019603,0.7162663701438521,0.7828481622026621,0.8486842453371967,0.8817600501420926,0.8414004780963095,0.8015121451429615,0.7810661678756798,0.7772256792018821,0.7718498044046203,0.7427153612551236,0.7558130557766092,0.7642344821813819,0.7430333125028195,0.7314806667579007,0.7599948179264212,0.7951377577507601,0.7791770491708898,0.7202616796014716,0.6544122259513475,0.5914149276400796,0.5260955143875877,0.4595142444573794,0.3935442632229256,0.3307207964929738,0.26497525621510726,0.19849733890253535,0.13470884360669466,0.07054159562246222,0.017358796086007225,0.03955921352559692,0.10175530286541705,0.16578611464303966,0.23229984961688532,0.2988944519970009,0.3654890543771177,0.4320836567572344,0.49867792376039116,0.5649761114926846,0.628088749378808,0.6932269152809551,0.7598057027929662,0.8263234622910508,0.8809574547796846,0.8638000058142552,0.8270141049603683,0.8083306229261512,0.8099236343933028,0.8041711238403931,0.7906776237963159,0.811447362835109,0.8087913829715238,0.7812157779936887,0.77099726222364,0.8010915105290782,0.8285541096309875,0.7983210510029783,0.7369242463301008,0.6718251221618309,0.6061940411900538,0.5433481300041351,0.47730219739242635,0.4107174030806523,0.3452464522146955,0.28295307917523016,0.2251752348856948,0.17168096605809974,0.11460418530522624,0.05264850054405691,0.0,0.020556651425972877,0.08490576239817448,0.15149148016907132,0.2171531251351107,0.2799963974017297,0.34603116452792543,0.41262419502282716,0.4792187974029439,0.5458133997830609,0.6123941204811014,0.677589939469372,0.7406666675030616,0.8068446675735736,0.8604539562709682,0.8496128060544049,0.8249794216077287,0.8072396878390892,0.7927356636298322,0.7828088736167718,0.7929375236889533,0.7827048435492702,0.7642427118246626,0.762238086202495,0.792711651719714,0.8224572537912669,0.8469805767582443,0.8364492271711546,0.8088224923466357,0.7859810313763839,0.7963387670301346,0.8112805631114727,0.8056210591139424,0.8088134171732839,0.8214357545004486,0.8356554748948181,0.8586413545337063,0.9009534063379329,0.9545432813073024,0.9640660566317619,0.9088335180411132,0.8426108320363029,0.7777624857527148,0.7144335737850182,0.6480526960464373,0.5814581915950431,0.5148635892149274,0.4485884980616828,0.4058362250335535,0.4479311134828819,0.5141797188297856,0.5799167568568944,0.6427396769256799,0.7087050768696366,0.773911077064832,0.834202917769326,0.8590555584200719,0.8439518105553524,0.8121331573997342,0.7991058537187202,0.8214540942439281,0.8338459184410101,0.8167772744068246,0.829753326410932,0.8323103077130853,0.8244694763465936,0.8392006263061128,0.8786674427814928,0.9348258917445204,0.9859979173655437,1.0,0.9490547903091874,0.8837806586087308,0.8171956708923354,0.7506035192472342,0.6864949868331689,0.6731950913779449,0.7313994796776595,0.7926021804497482,0.8255076885393542,0.8114344645345305,0.7728961973016522,0.7554167335150971,0.7754611495634833,0.7882218101398106,0.7722530842820369,0.7788191671234994,0.8002652754411906,0.7956726560888226,0.8109794175860795,0.841702005221584,0.8969478734351982,0.953846339371066,0.9587797315221261,0.9036544337547697,0.8381694644906071,0.7736201863696875,0.7166256888980218,0.7258364462193818,0.7885846704250141,0.829831649992306,0.8231971192970962,0.795927647756436,0.7848870693857137,0.8044240355733948,0.8145378485876502,0.8034366724324152,0.8183184059608026,0.8194916331769039,0.8223403238773365,0.8435473080126497,0.8912364233724062,0.9410761648042624,0.9246052928317194,0.8642099242225619,0.7979827447195398,0.7317003229314282,0.6871694262365148,0.7234602025825757,0.7867560984650142,0.8350704965796482,0.8352352005851589,0.8116622460354851,0.7904425219780342,0.8018822177060465,0.8120240798143126,0.803830711443535,HB
0.0,0.06988213143836308,0.1543322342789457,0.20688481337180287,0.21761981315262258,0.1381520336081139,0.12676983507745643,0.22831579204116803,0.34261238582450293,0.4563832446763745,0.5517917918658788,0.5236607350851803,0.42898088922633404,0.3508021953519198,0.3053175677642508,0.24995302080808557,0.1864657126421143,0.15779206918120492,0.12301822198448509,0.06592585701197118,0.01695225496297792,0.06719662680261429,0.14141573304570265,0.10565720599816197,0.09568325210874296,0.1505116224988705,0.21654972118492433,0.2656677248219905,0.28724446899846123,0.2933813262886269,0.28395948348983024,0.2742904838234499,0.32819718775009843,0.3775950843700606,0.3487079731793403,0.24429986714990548,0.16026095454246247,0.20136811647796815,0.31032935786611704,0.42354032274208375,0.5371670140062914,0.6199020497819467,0.581042020152386,0.49202055200495165,0.4099942832880674,0.36675974222487984,0.32122901707843043,0.2617447531867576,0.1950170904895323,0.1718625641967857,0.21895445467401053,0.27284630470989546,0.31870399917846015,0.3434541307084422,0.34748412058997324,0.3407809369003072,0.3107819013183035,0.3412373194660465,0.38425972046358403,0.3454462385011352,0.24328609383324906,0.1796516740696994,0.2540378275695945,0.36948292329102417,0.4820372333615097,0.597920706281541,0.7096481568441138,0.7728528818940461,0.6923975059345615,0.6005405148701808,0.5061211159268044,0.4242603743209479,0.36732448502496196,0.3226109154624761,0.2597481291058812,0.1868714265209941,0.13460463594177918,0.15144436830824493,0.21360002747466744,0.2739979145252791,0.31280864455830626,0.3318771693122686,0.34026306348146784,0.33622580116879774,0.29332984872255574,0.29948771955980247,0.3497155141281336,0.3374849126415822,0.24022406472155566,0.14678908911998167,0.16311606390686828,0.26635008434463536,0.3820605575875442,0.492967453031147,0.6038376682633468,0.608909156456447,0.5175268845252794,0.4249623565066054,0.3638688947109623,0.3198051462935423,0.26549244530664007,0.20500327189698364,0.15332652134844516,0.16721607065413302,0.22742264875127693,0.2878609622922892,0.32532174897680344,0.33864856249052044,0.3408988712102534,0.3349011078756763,0.30208741025069985,0.3303809093050858,0.387094077580838,0.3854339834804832,0.2998821424764313,0.20434733549406792,0.19627888486902823,0.29317805731713653,0.40619009279821583,0.520330887773131,0.6307312579605986,0.6886975447141039,0.6170722446889485,0.5237877312705459,0.44653933187264006,0.40180771079993827,0.36421280295788705,0.30107127434645164,0.23378849993651762,0.20175761047804652,0.24259148511225304,0.2971384085528057,0.34668920155441185,0.3816167008371907,0.41118192940919673,0.3837135298602994,0.3379987224790466,0.282353567468268,0.2626913669401958,0.3193539437180606,0.38552472049833053,0.4292457633446194,0.46993850998264186,0.5453417110691312,0.6390698380129582,0.7276192778073622,0.8422444398325775,0.9507345944100956,0.9564715135614272,0.8593347840327472,0.7470139254558141,0.635466556141024,0.5193488297142967,0.44546671207853183,0.44332721263737973,0.39914785397444064,0.36137323205581273,0.3844372621721206,0.3829135690050429,0.38509200605542704,0.3653140413033138,0.32784692444866037,0.2717235884107678,0.2150155705546215,0.23688498703341265,0.29586771826010816,0.35039308409264835,0.3944844096399782,0.4593154586204147,0.5553695156499954,0.6498060134278272,0.7408565626252153,0.8477208959818627,0.8729997669343068,0.7829686293377729,0.6724603559905638,0.561529289782638,0.45144601972022347,0.3740737013070454,0.407710829804103,0.4029792918395101,0.358844725682411,0.35167570034153517,0.3850992171572729,0.3820551960621925,0.3719458289353299,0.34584451042723874,0.3048063107513146,0.24015840220256024,0.1873882310073105,0.21941752776354617,0.2951502974540441,0.3537085471710828,0.4024534943724296,0.4536921362136841,0.538473542796877,0.6413646841486171,0.7338368296856093,0.8430411237881996,0.9502102365231129,1.0,0.9212497467511573,0.8017106133533587,0.6877109615632486,0.5728735778260994,0.46242090860167373,0.4324718038942268,0.4224602694363071,0.3787650213048388,0.37523509512862807,0.39659722109826356,0.3816204374622374,0.3849754473173874,0.3610140167320903,0.3161587985078489,0.26379994880575763,0.22511260805825595,0.2723975598074575,0.3382184288772945,0.3857259112586102,0.4281689767864294,0.4966101359195769,0.5903969814127277,0.6857731259842126,0.7910373030806985,0.894314292393318,0.8984178589991352,0.8041193057306262,0.6908437120462061,0.5790729009278408,0.47056266437463545,0.4336410001425244,0.40174766842077547,0.34806611588305447,0.32784254750628516,0.34336964074162823,0.3325188968905177,0.31937750328127157,0.28750754005779244,0.23272543324059036,0.17091215731269838,0.16732849403625627,0.2281490849689254,0.28825062885992025,0.3383825386171213,0.3859752495414548,0.4698846960273384,0.5657482401541265,0.6547975180396151,0.7551012488950777,0.8385100197388238,0.7901442766519868,0.6849584329062992,0.5732813660916674,0.46741212859225323,HB
0.8958739295247449,0.8908983521574709,0.8820297938410149,0.8902349087918877,0.9006756402770217,0.8571642040694554,0.7857070168273403,0.7121105112620354,0.6343082613135724,0.5596281115747437,0.48396897336401573,0.40560791794126744,0.3290457434830351,0.2550976680224942,0.17750283666031974,0.10681641646576956,0.09182775096023249,0.15888787877159155,0.2323810387902458,0.30992906799890235,0.38836430973718034,0.4665240658798922,0.5406998565955905,0.6169517879580113,0.6953485710335174,0.772176437825765,0.8432095731994302,0.8976220146761751,0.8951871516036811,0.8603522196926203,0.8264702451555488,0.7842784574829811,0.7471054580487142,0.7532104140997988,0.7957272224731555,0.8356570800884353,0.8446963609547404,0.838494758342627,0.8369451391002307,0.8421813700102185,0.8646923264211213,0.8481988652147223,0.7821545332132165,0.7071527152652357,0.633546190329701,0.5565228557380242,0.480253620632113,0.40609761752497026,0.3279454334280076,0.24966238443831607,0.17494855232094242,0.09934150235468514,0.024478104983742976,0.0,0.06193260404533496,0.1401346515736545,0.21573813161442157,0.2904684554165498,0.36875483136897175,0.44717831847426054,0.5238220748798283,0.5923831873500836,0.6559051967888623,0.7257736824374281,0.7913567066546445,0.8459690743515524,0.8473307093395548,0.8156861723518232,0.7798836703802761,0.7374302836576407,0.7043198693733008,0.715634117761144,0.7584030019747972,0.7947772425649933,0.8097509119870689,0.8202259932048155,0.8268958935000261,0.8406479817736454,0.8724567268484047,0.8686907517528939,0.8051835022488376,0.73840592915314,0.6759503718466024,0.6074175664591752,0.5314285575167952,0.45371689342225613,0.380124509999941,0.30289777664472234,0.2249313170567358,0.15265824565329722,0.12041075671980311,0.1758488447199742,0.24016209058503196,0.3165582065309414,0.3947711553055409,0.46917819830634316,0.545150210885831,0.6235429670320962,0.700946283368334,0.7745003566008144,0.8519871115898947,0.9171473185570946,0.9114386710442892,0.8829604538870592,0.8476350893776774,0.8071908171355888,0.7896783565986103,0.8198106524901574,0.8617383460073824,0.885844970621593,0.8793804832932033,0.8718570443262252,0.8615451837247414,0.8756376541557127,0.8613632621190883,0.7976380536417536,0.7240842172972723,0.6465217387248421,0.5728557206289631,0.4958105908831237,0.4175493639196824,0.3429014985413252,0.2672061322960841,0.18933395380965207,0.11586012081566754,0.05814718923915718,0.08913918517464203,0.1656385892516824,0.24407467976685965,0.3225070747997993,0.39976720416632167,0.4733501258086568,0.5510733458140991,0.6295019015063055,0.7066184422741204,0.7802531779815607,0.8565373408989694,0.896163282002405,0.8681529543301731,0.8347728322881884,0.7945117744666055,0.7541269454251374,0.7438160828270455,0.778584974629372,0.8193545192303588,0.8380536532134037,0.8507948462517121,0.8535629402611846,0.8259591194924332,0.7816903068546406,0.7664140419890604,0.8019664119568812,0.8420750981101015,0.8759385889613149,0.9171571194692156,0.9719278900805182,0.9751306195039426,0.912642842736733,0.8518122335209932,0.7796987061081164,0.7055495953365218,0.6273919072715171,0.549700905477114,0.4798219813959253,0.47295193354277526,0.544725641028893,0.6223975145342076,0.6959599980401407,0.7718336667562791,0.8432338538151842,0.8956437623506013,0.8983896691419941,0.882293863032307,0.8901109454462774,0.8969195241303505,0.9049819617441246,0.8900502119024378,0.8494852097178076,0.8132232647463804,0.8306804779952903,0.8717732662889202,0.9034123170061896,0.9368717636455763,0.9898613788210009,1.0,0.9386755771843445,0.8625450243375676,0.7841345075358308,0.7056959849550484,0.6272862688731358,0.5567831408542843,0.5671777710556807,0.6390718316054378,0.7138879730770502,0.7900342538379639,0.8619114524608802,0.9088150479255344,0.8978184155308884,0.8679382071663648,0.8470929644504759,0.8449644321224599,0.8302468055376566,0.820819121180322,0.7950798384735243,0.7521509092100136,0.7245398518648822,0.7524991937732353,0.7938721872757468,0.8297807356275022,0.8640185996317196,0.9154597770524031,0.9365546235382158,0.8770686467509321,0.7989742229141181,0.7207484256828729,0.6463191881065304,0.570373485771392,0.49290187177655603,0.4559170507881098,0.5123887268391891,0.5881922696764004,0.6646975037305456,0.7385923134980295,0.8134571777275545,0.8740791860050527,0.887598915956102,0.8661949420571016,0.8596424583549405,0.8582004169474848,0.862878436928012,0.8596042377056716,0.8284550602153005,0.7824860512698077,0.7738991474893699,0.814049617646194,0.8522565341623132,0.8851014274592113,0.930174378897733,0.9815508283123946,0.9664369541565454,0.8970706773560879,0.8191131618967287,0.7406754640614279,0.6625559412175472,0.599755873872488,0.6229772165588643,0.6952033350942228,0.7705179420170887,0.8384012796014089,0.8967820180605848,0.9230369756834909,0.9101115128118764,0.9027922861352682,0.9098504571721371,0.9133792561730971,HB
0.5410451297925167,0.5701309608444054,0.5013315121998636,0.4082887022883781,0.3142321567735268,0.21808027083296555,0.13407531380061644,0.12947787529860288,0.215717973333021,0.30759892949049517,0.4033654496718382,0.4964811835445444,0.5756422688910123,0.6708727077237326,0.7685519792002427,0.8549729033654807,0.8976655763601749,0.8658129744046861,0.8302858158105768,0.7989713762454982,0.7755616693828422,0.735653751494084,0.6650589081313969,0.5817969850740656,0.4959352794118679,0.4237250172924576,0.3498018192180081,0.2777416082797355,0.25561601367354836,0.21375852328412726,0.14557186843404746,0.12961630168179472,0.1907270907062837,0.26542482399591527,0.3431505614189083,0.4274189676909852,0.5099659245176804,0.5970964892987063,0.6752771726572353,0.6582028128177742,0.5721822128184826,0.48029818736571706,0.38767605738351807,0.2911166579534361,0.19953470171314946,0.1032144419718598,0.0213508994474495,0.034558591702967045,0.1259848683130117,0.2195520879288272,0.31339220264633183,0.4111987740096783,0.5052960206103767,0.5984749248433519,0.6907131687250379,0.7645112814729706,0.83329192888553,0.8955410209462278,0.9064283815182248,0.9078214197834258,0.9557163982205141,0.963925242572593,0.9371559583669196,0.9111650090815859,0.8734961819847376,0.8472365423757349,0.865490877707102,0.8658773639626365,0.7942661151094497,0.7039170820208513,0.6095358263920947,0.5154682037384235,0.4221605033499316,0.32431763827803883,0.22648411451548078,0.1463745052257106,0.17050526251081677,0.2596361374693672,0.35696566628115,0.4493691666635087,0.5445502941251694,0.6416658295726878,0.7330924492745989,0.8163263746963962,0.8423778097251955,0.8137586210577643,0.7798544881856733,0.7999869822115451,0.8274881526309599,0.8081283374898265,0.7917767766577473,0.7657834124631424,0.7481610321355792,0.7719994910477053,0.7858750507610064,0.7203706433215085,0.629839395007507,0.5385378373855807,0.44204937350537654,0.35007953019561255,0.25430239270927724,0.1569069847456469,0.0655388844390552,0.0,0.04662295633614477,0.1365320053678759,0.23316626134651608,0.3291391785226745,0.42100230970587327,0.5183724471317324,0.6163875739277407,0.7136861013825697,0.7884254083056783,0.7977049992790708,0.7663681786557914,0.7435943822500903,0.7793801273681233,0.7993040386539356,0.7934620054127004,0.7812411635132681,0.757756916068018,0.7776838701208728,0.8006325881911631,0.7484490485833986,0.6591684003679403,0.5666234523967724,0.47481088160392204,0.37913864344370696,0.2843970624462667,0.19166365801817586,0.09694243099035438,0.05763611664530399,0.12708195890408291,0.2234106018640788,0.31763816900905106,0.4108563012447273,0.50810777870014,0.600056654063855,0.6941722211326165,0.7766170763467293,0.8096167921090822,0.7867233888216052,0.7519368269067532,0.777350418839073,0.8211302959969689,0.8171010217807924,0.8061945907319366,0.8178936989579342,0.8352376234945929,0.8480395988818883,0.8414698121760251,0.7927937727227081,0.8022252676893038,0.8334813933779341,0.8354961069699729,0.7922334024691222,0.7056959916199042,0.6095901676612123,0.5494650390702585,0.6036244611458146,0.6957840254753391,0.7843597830128177,0.8385458369959782,0.8258003174039477,0.79458488229261,0.8003221276555958,0.8186750394925586,0.825636302963842,0.8308814765116135,0.7917625238458581,0.7839112423806887,0.8163816794581837,0.8320401335960663,0.800140231146981,0.7162526203802855,0.623371507476087,0.5273696049726733,0.485526981861357,0.5606541634369149,0.6517715985039654,0.742117511507906,0.8130352620913588,0.8157198803172436,0.7878633466704641,0.7879572177830472,0.810949664142117,0.8278965050652689,0.8530976756320297,0.8577408224469032,0.8167822464356522,0.8324207985295708,0.8662475819343458,0.8821988053965306,0.8428511007292558,0.7565236876251737,0.6639938772969896,0.5805489659585474,0.605689585073609,0.6964510878491759,0.7879517412107269,0.8761015047125942,0.9041883095492291,0.8885805590891398,0.8937053473247307,0.9280034330877407,0.9545190015897598,0.9827057033895017,1.0,0.9585380813058484,0.9345588343574822,0.9376006745044203,0.8972032767623579,0.8296831519977592,0.7659635772018492,0.6849298090144242,0.5896963346960529,0.4917061904658935,0.39529095192624,0.3569088865402623,0.43640115429196324,0.5287987902923348,0.6192374773990137,0.7059702706065465,0.75408878356065,0.7040909362247367,0.6223993606975211,0.5373388648233677,0.45554160155497825,0.37080970887525644,0.29098932897707264,0.21342358228741876,0.18099653787982617,0.23752180779790366,0.29829765819360776,0.3241901341894733,0.39137913838284977,0.47053547723347133,0.5558396216618349,0.6404680802616309,0.7149006424104909,0.7899456502566053,0.8315935627969606,0.8488724594213124,0.8398935798673002,0.8639172211445438,0.9025759619252027,0.9433240008522104,0.9154897428186579,0.8420783529500049,0.752693727814044,0.6684026422772054,0.6844088838928355,0.7734009555392476,0.8590033427762407,0.9008535097771482,HB
0.679786346289075,0.7036005079493556,0.6772726706549302,0.6342591274341685,0.6005566733776178,0.5994761971256947,0.5849242274181402,0.5169002350054571,0.4459242871862231,0.37151735854745915,0.3001213302250456,0.22400969609919472,0.1446957077161776,0.06784812098402743,0.003653190325515754,0.02964554455544957,0.10764116565631163,0.18641369212471745,0.2638109322830252,0.3438968773988569,0.4241957456618314,0.5044586904990294,0.583014126062047,0.6605889565996498,0.740725472398635,0.8183884476287844,0.8392919922286024,0.775780947875987,0.7054115548742343,0.6466108582245834,0.6037590218249256,0.5525671334794966,0.4912442316393155,0.4424679162390003,0.4648945820954873,0.52524357152426,0.5804958019245289,0.6105769833109005,0.6142372238224701,0.6111309779649953,0.6254745544885439,0.5914181215201285,0.5173738069077314,0.4392351910929174,0.36178677232046297,0.2834726661784187,0.20634270115698986,0.1275152217475349,0.05158460725880984,0.016538976247852027,0.07642420654417811,0.15330953503769365,0.23251291569267893,0.3128013817892683,0.39300334114815594,0.4709137732654419,0.5490985646118268,0.6293332519834015,0.7094673142992748,0.7869235097831958,0.8504609265980067,0.8238216275283105,0.7533074383772704,0.6886203259636887,0.6410802522104877,0.5948186003030692,0.5395780204302179,0.4780986577625145,0.4509729277251534,0.4953256271593931,0.5577553014812112,0.6069937023671075,0.6244754809714291,0.6204820159896683,0.6187071150048393,0.6219259339692528,0.5650972406923553,0.48911016015304176,0.4123530498659922,0.3334741975614933,0.25648090427067793,0.1769830465011298,0.09669679073858631,0.01980766402033432,0.0,0.05852531154094637,0.13612718779128438,0.21603453027553768,0.29315031692638116,0.37235041529948965,0.45263880573120074,0.532937610663798,0.6130038362349912,0.6903502523985525,0.7691922816192254,0.8479202128598692,0.8796375601708789,0.8200497211673531,0.7458093906328063,0.6869970099450171,0.6433909982997895,0.5955873795369423,0.5339343750839048,0.47231084830234993,0.44757904850661345,0.4934941206832354,0.5577800294161019,0.6079947271663183,0.6239325925059567,0.6164344204274455,0.6215671075549437,0.6181333273332451,0.5553398086550552,0.479119893088665,0.4003028639349755,0.3200264677876635,0.23979827224484115,0.1616791192862516,0.08404093445790972,0.019119652763739975,0.038710613972812585,0.11516445478514667,0.1926156286026285,0.27130861811446416,0.35157905853975735,0.43187779935136683,0.5119226387733075,0.5892236618469867,0.6681304289012155,0.7484100477378263,0.828003640063646,0.8733857295203219,0.820463657681275,0.7464409057254455,0.6847895799064198,0.6407896852965708,0.5912435911940644,0.5301774057724944,0.47303324400258084,0.4673621914608955,0.522617692079505,0.5487376564459677,0.5013229299340215,0.49571026474676827,0.5527447751217797,0.610971815757069,0.6581382269274066,0.7054730775153147,0.7718359319475513,0.8446833623169724,0.9188941487055168,0.9864765994772159,0.9948958568199789,0.9276656708743999,0.8497514324246734,0.7696588711713588,0.6921227004261988,0.61991160471568,0.551437300998392,0.4793067134435276,0.40791343513375034,0.4130179989196284,0.48664692412044097,0.56298938259108,0.6308989675754809,0.6436382951648971,0.6320600504518673,0.6372746031210524,0.6361196468150422,0.6029194849646092,0.5453143443590677,0.4895173790603615,0.48088091002139566,0.5371673798855724,0.5978451721422474,0.6475980371080676,0.6930633943296781,0.7554182149293335,0.8277360296641846,0.9024325543431272,0.9776515242482539,0.9999999999999999,0.937397764926562,0.8581344098147315,0.7805709163042706,0.7020063373368299,0.6217424008054652,0.5414433437610079,0.4612785956022267,0.3973950220781409,0.42803384372579634,0.5034910351103913,0.582140440207589,0.6383862182588145,0.6365193623221944,0.6367633862350709,0.6418099986171033,0.6306360883431027,0.5914507380620373,0.533301576588294,0.481043592761497,0.500950061979687,0.5623935211453501,0.6196823185796292,0.6649152764110158,0.7162335518904798,0.7851302781073807,0.8610662853304311,0.9348119994327825,0.9852477006906247,0.9456708602250549,0.8677819192620099,0.7908021117221875,0.7111837612458735,0.6308910994445978,0.5512419630475067,0.4779317909205524,0.4673493468382116,0.5350644011878005,0.6028765505204597,0.6446520285924487,0.6319664829559822,0.6292616005562358,0.6296697910177863,0.6113587151118389,0.5669044336955567,0.50668014112613,0.46281087262096454,0.4994675268335793,0.5614084171805224,0.6130036168276478,0.6551506326878372,0.7149392028267613,0.7870922274667385,0.8605566043509704,0.9329293769459251,0.9595884549215549,0.8967238510136984,0.8166388894287854,0.7368865688943674,0.6598844933452752,0.5803988098817766,0.5001048770364321,0.41989803460326613,0.3535785382124096,0.3783215486065501,0.45450901334807703,0.530701142883477,0.5999084396053217,0.6211522649492969,0.6214151619762968,0.6542435719179776,0.6992090569371855,0.7301558073810911,0.7086291500537564,HB
0.9973254011129218,0.9758660262924899,0.9529095313421976,0.9299625548119526,0.9090436040338075,0.8898258817956624,0.8669476145312491,0.8439907042290948,0.8210337898766393,0.7980768755241838,0.7752504097915145,0.7562565608867207,0.7350643097841818,0.7121149627635364,0.6891580484110806,0.6662011340586254,0.6432442197061696,0.6202911606404458,0.5990967264481699,0.5801078799242885,0.557282289045804,0.5343253925930673,0.5113684782406114,0.4884115638881559,0.46545464953570037,0.4424977351832453,0.4195408208307896,0.3965839064783341,0.3736269921258786,0.35067380514428503,0.32943924565861504,0.310480790694891,0.28766505911372486,0.26473067581213106,0.2444327912051909,0.22471460726769665,0.20558856288709637,0.18565205806150697,0.16972630860970372,0.16103438000715276,0.15582182434287595,0.15080409337271627,0.14194396467592074,0.13292866450111385,0.12102380186402817,0.10860188349528321,0.09378205380865501,0.08418778460753373,0.06954044507172563,0.05956853256905681,0.051276914541618646,0.05423351481960337,0.06134070208525977,0.07504510183589497,0.08775414230695411,0.10615728831437299,0.1234000945956839,0.13899803497092622,0.15426168125309125,0.16741800394248907,0.17562911409049675,0.17171333948822032,0.15968362732125774,0.14674913456058625,0.13993354421589377,0.133777252813299,0.14380368743720495,0.15674583834018352,0.16608910966488288,0.1674388046114077,0.17038606855339167,0.1693766306757013,0.166376277045852,0.1584556980936448,0.1388006677258008,0.11605009886522799,0.09751700909276773,0.07580491858253335,0.05300326846868586,0.034192307646851994,0.017595936507860732,0.020570231643540993,0.03734062473740907,0.058857849953955044,0.08181194655950763,0.10476886091196302,0.12772577526441875,0.15067103583615393,0.17136943950138284,0.19080100958189317,0.2136876880250662,0.23664460237752205,0.25960151672997744,0.2825584310824327,0.30551534543488823,0.32847225978734373,0.35142917413979946,0.37438608849225496,0.3973429339441563,0.41996367266982726,0.43832105011044264,0.46034919873212754,0.48330491560535793,0.5062618299578134,0.5292187443102689,0.5521756586627244,0.5751325730151797,0.5980894873676355,0.6210464017200912,0.6440033160725462,0.666960230425002,0.6899171447774572,0.712874059129913,0.7358309734823687,0.758787887834824,0.7817448021872793,0.8047017165397345,0.8276586308921903,0.8506155452446462,0.8735691507752084,0.8952760428913655,0.9138137402551492,0.9365774762969765,0.959534372357749,0.9824775273378015,1.0000000000000002,0.9862676345670094,0.9633758600299531,0.9404189456774972,0.9174621186025014,0.8948312460335144,0.8764164073488598,0.8544558896644421,0.8315001185643944,0.8085432042119387,0.7855865057013443,0.7632156651231419,0.744904664269024,0.7225807057738967,0.6996243770988364,0.6766674627463807,0.6537106262642336,0.6310607269642137,0.6126382903895196,0.5907043659351539,0.5677486356332779,0.5447917212808222,0.5218348069283669,0.4988778925759114,0.47592097822345547,0.4529837008470081,0.43254385825807873,0.412858991586478,0.389959065462808,0.3670021511103527,0.3440452367578979,0.3210883224054417,0.298163139035581,0.27832070295419165,0.25805334754457987,0.2351264096447947,0.21229550718608836,0.1932694051420314,0.17212946775221505,0.15151421325971837,0.13232360163751966,0.11397863575563894,0.09503741797915721,0.09115610628893323,0.09110897739886792,0.08801950379461199,0.08176860292202981,0.0726319985314905,0.06056491998776459,0.04665598005005667,0.02997686064121896,0.016962809671602685,0.007840725809777682,0.0033366574138888883,0.007614705252255161,0.019085470592762666,0.032695367557295185,0.04795720428053929,0.06345559294569414,0.0798598527784824,0.09393165724809582,0.111734057627901,0.126373606884725,0.13622563395106102,0.13347845721654705,0.12233198194917128,0.11161094679163197,0.10909734019770478,0.11621106704830886,0.12972945453142404,0.1430424030864934,0.15049373436336433,0.15837962469884592,0.16453108911866954,0.16630446962972678,0.16151585116153833,0.1535021459962186,0.13664259886853647,0.11609323116742509,0.09315238621458954,0.07022289210970767,0.05016751905533401,0.030107942792877207,0.007808953915755645,0.0,0.013698091709090532,0.03514199557676667,0.058095935840701385,0.08105285019315744,0.10399763759712366,0.12463885892750559,0.14412111251257353,0.16701476295380469,0.18997167730625997,0.21292859165871525,0.23588550601117142,0.2588424203636266,0.2817993347160819,0.30475593084582386,0.327254222737958,0.3455154152018174,0.36776166324786486,0.3907181618291853,0.41367507618164057,0.43663199053409674,0.4595889048865518,0.4825458192390071,0.5055027335914624,0.5284596479439183,0.551416544396655,0.5742421352751395,0.5932309817990213,0.614425415991297,0.6373784750570208,0.660335389409477,0.6832923037619323,0.7062492181143878,0.7292061324668433,0.7521630468192988,0.7751199611717543,0.7980768755242102,0.8210334535214308,0.8435199262002084,0.8617844955040859,0.8840391472044951,0.9069957026373132,0.929952616989768,0.9529095313422242,0.9758660262925163,0.9973254011129475,HB
0.911272437846536,0.8993410580249861,0.882656097876692,0.901308387838371,0.9120006124235944,0.8957802139184274,0.873340428198973,0.8451181599260114,0.8479533601038742,0.8616710464847863,0.8553020052792504,0.7897406027881928,0.7036797198549616,0.604192954139922,0.5109682732521832,0.42288510189975526,0.3350110392235204,0.24309677716889122,0.14761465885654457,0.05666253574969349,0.0,0.052615688583906195,0.1489502354580312,0.24623324081169784,0.339063926001856,0.4387953396328579,0.5386776808408804,0.6315690504903662,0.7171162037910559,0.8045111053057232,0.8918397356245116,0.9360654217224404,0.920809583618976,0.9058225178011883,0.8891612070997965,0.8818683511126229,0.8694084041253631,0.8719315048401117,0.8916888753340679,0.8979471248467432,0.8833134998442331,0.8533024880479123,0.844683483965055,0.8648015330410332,0.8526920337837216,0.7843231085421134,0.6912146028543487,0.596358898894132,0.4982272230551652,0.4116009047779563,0.32126656349221605,0.22896028651450528,0.13740236585402066,0.05778679198447967,0.06604619871619799,0.14996420155494627,0.2448360404772023,0.3449957821117786,0.445031399677166,0.533193355598576,0.6141253829267372,0.7124317129220816,0.8051151717025513,0.895017614115778,0.9199824932764706,0.8895486900822513,0.8670548675502951,0.8592194100913788,0.856999599569223,0.8552214283524417,0.8774369184045734,0.9149259902382365,0.9310709828916843,0.9140804704534602,0.8821969123716291,0.8649951787887091,0.8728615581997157,0.8802034603437017,0.8291185548399271,0.7394573562206157,0.6450502090393198,0.5456289263985827,0.45543735068348323,0.37474541372679115,0.2967293862478506,0.2015367313438443,0.10951681783651224,0.026084153374667407,0.027000809923550584,0.1089794327088136,0.20787461785726902,0.30816908187854253,0.4080047753107965,0.5011318871586032,0.5980472377584665,0.6969967233540828,0.7888744008932671,0.8801288503571263,0.940870900515894,0.9251575477090097,0.910037348301757,0.894995565581713,0.8791011618315483,0.85996266149533,0.8694698631065638,0.8926234131893627,0.9076042955922905,0.8934396186302966,0.8644940107032608,0.8597815639355384,0.8847723771306277,0.8980989616954322,0.8401617863144435,0.7496431850409826,0.6576617291936673,0.5599984613096514,0.46853249253411566,0.3816445587467956,0.29054589349964544,0.1957730121979513,0.11014870608494887,0.09777949354189452,0.175864402005123,0.26982819710816774,0.3699078366937625,0.47020586265794373,0.5701229147441562,0.663481188744889,0.75996773780034,0.8547027551414581,0.9337935135154207,0.9405100537784528,0.9125729606934412,0.8840354943270898,0.8612663759826504,0.8757737482029444,0.9088197250350485,0.9388105698818172,0.9640488649750969,1.0,0.9797811237133793,0.8938118238113097,0.801657723580071,0.7095913917593437,0.6118626977657984,0.5117437924064971,0.417593413727289,0.36197867034058695,0.4222598207692647,0.5081628296850282,0.5968315965625111,0.6890342417718973,0.7809897002819752,0.8709199165752672,0.9292086925039711,0.9254560040289797,0.9013564612632587,0.9047819097002536,0.9307798468993469,0.942349303588301,0.9402106103139976,0.9182020700866513,0.9007350316834764,0.9155539039621079,0.9297239315341639,0.9428653221781129,0.9611324284116758,0.9940825227201378,0.9868547775493184,0.9152844362267969,0.8318483821471228,0.7407237474499788,0.642888277936474,0.5463050909905027,0.452923176816741,0.3532835255901807,0.27570429299846744,0.31704579741044614,0.40590560298753275,0.49212295949134055,0.583064412766185,0.6747560789484814,0.768477818658484,0.8560012328138191,0.9097897993810751,0.9099980657950151,0.9066132947990206,0.9178812746859215,0.9486747391473473,0.9674023746489329,0.9578756280261957,0.9277419327770124,0.8939472810522575,0.8883045368174738,0.8915035500732904,0.9000321117858969,0.9180270194708704,0.9529179675343613,0.9815125633101072,0.9268045464620114,0.834487200785593,0.7391602618756896,0.641167842196424,0.5488104615058933,0.44943869144898874,0.35239144876514716,0.2677961599582521,0.2798424478735497,0.36845718232406144,0.45422652766424365,0.5420063534738739,0.6338968050658504,0.7299769416480848,0.8202327289217273,0.8915763815460467,0.9077077725782277,0.8866902797270184,0.8870543444788028,0.9177205354214568,0.9410394783252378,0.9355857592453818,0.9216943682742296,0.8991061488069685,0.908465203513219,0.918267388409729,0.935590226795632,0.9493781777917825,0.9779249331283926,0.986032234641671,0.9190043519074271,0.824549696942535,0.7276110471588815,0.6345713172878364,0.5347606774896889,0.4349617712993432,0.3419507686797387,0.2547917048872961,0.26900538433053645,0.3568413779798425,0.4450233470192808,0.5325166530632703,0.6248650701357956,0.716699205748792,0.8102242357092937,0.8867437832033105,0.9033476261371542,0.8861787152997476,0.8828234464172613,0.9093821083032421,0.9304834391865326,0.9447523151584494,0.9341860564383306,0.9208698615440492,0.9404132591762926,0.9418817878508112,HB
0.7985675894814781,0.8183689336387214,0.8191365078985784,0.7969965392497469,0.7738592666415307,0.789880177906338,0.8268398295892645,0.8355685851590138,0.7636703959882392,0.6755022516227431,0.5822096324467736,0.4937481575109055,0.3996657657327076,0.3040391725269431,0.21295730122655443,0.17932528550202775,0.24546871248340008,0.33416482559190164,0.4257684163732116,0.51938979727407,0.6079979767188946,0.7026563179549263,0.7931579643106759,0.8759541779047759,0.8847462600468583,0.8548611066468066,0.8228131251171538,0.7781732947137352,0.7260914348759098,0.6998343760394008,0.7324013768925377,0.7818545955660321,0.8124458175546327,0.8241765721472534,0.8087262464386611,0.7825881967124975,0.7775998005547355,0.8144169168546478,0.8166804668619501,0.7387658162822774,0.6500986970329303,0.5564639179705713,0.46803034791908726,0.37364099614761614,0.2794010466388699,0.1910287691898177,0.10401295929595344,0.08531367626163544,0.15852924637306154,0.2462379781184072,0.3402504484354256,0.43373468031406204,0.5224399338185752,0.6173718206686294,0.7130298150323475,0.8085628417321302,0.8856548964833908,0.8730310979567464,0.8457438885385609,0.819752133490999,0.784455489614887,0.7415862625719487,0.7463974092613044,0.7961221460192169,0.8364299178942347,0.847707486590751,0.8457702552859339,0.824953548132713,0.7956420763886891,0.7930812777195366,0.8288878764338872,0.8386567828405302,0.7657651816325071,0.6764746432313857,0.5842915755459697,0.48952091436231204,0.4009161212218946,0.3073489864926644,0.21988284041560546,0.14243757967490156,0.0616569824929063,0.07157796383721815,0.15633925228078993,0.2469141419559142,0.33775680385054185,0.4332824574859564,0.5276537983733542,0.6160903437203904,0.710399659412623,0.8047014904284226,0.8857610002127616,0.8966407730372636,0.86768523173352,0.8401478638389213,0.7964826364357493,0.7426287536766616,0.718821222239183,0.7568463050951026,0.806504167464404,0.8373158448269324,0.8437151064323456,0.8363596609621708,0.81637633269825,0.786994018290909,0.8069090037101716,0.8473513063243943,0.8299116191006732,0.7417908844846943,0.6474178115263971,0.5589722932255916,0.4647310360848109,0.37233817997453533,0.2828750795247945,0.18784338747401985,0.09796876278615252,0.012641394418596241,0.0,0.0769520545303014,0.1651593566183206,0.24509330121108452,0.3303877637203416,0.42470328399507085,0.5199845001980108,0.6094236384473288,0.7018507803879865,0.7974315341298219,0.8830817164273632,0.8934804136546179,0.8675642459003248,0.8325962170529719,0.7842140728994169,0.7333060116084429,0.7113300814299386,0.7509142556458017,0.8017233866379243,0.8314957772853926,0.8407774078230816,0.8421294679026006,0.8602952234542598,0.8758681124086145,0.8698379299358643,0.8591094207166088,0.8219218607804664,0.7726051546331718,0.7548279997726077,0.8000095402809122,0.848928729844366,0.887446474705559,0.9140012003092957,0.946572596674083,1.0000000000000002,0.9689775076019371,0.8840001286161965,0.7900428968782833,0.6959067196286397,0.6074474555263165,0.5129284266975223,0.41834754279732667,0.37340312315520685,0.441303193481158,0.5354063450225115,0.6297977759689553,0.7182413119502888,0.8115203571471727,0.8976985889104743,0.9413079986345754,0.8984859888411512,0.8563084137437305,0.8246214878984732,0.8450268252536752,0.8648932467227288,0.8761239059482724,0.8706006678049252,0.8477728534733362,0.8024811010160982,0.7550906745999046,0.7747193264261572,0.8276210715221282,0.8718180629958707,0.9002271911390824,0.933303439134404,0.9933068163217202,0.9916833689337723,0.9111179476510038,0.8225127053327426,0.7276590835217436,0.6367898278330857,0.563359868824211,0.6014204717156924,0.6940806144357041,0.7824078088599349,0.8716057669538833,0.9342894118541556,0.9063619156602949,0.8606171144185826,0.8290954190657485,0.8388758605589925,0.8636661547984679,0.8788602344156455,0.8728155751763882,0.8534299065438917,0.806339923255158,0.7685834314139628,0.7986818015658637,0.8369250944077096,0.8649396722739637,0.8908893946958549,0.9430344371657076,0.9824680291705843,0.924315717456919,0.8337445235855991,0.7450610272202152,0.6502912945971231,0.5714385087711398,0.596899385889311,0.6861362150970114,0.7744148372486628,0.8607027362534463,0.8928558288795636,0.8588036369661445,0.8181065104092413,0.8073196313370299,0.8323296385398569,0.851068488056256,0.8524270067951936,0.830296061251478,0.7935405248937593,0.7472061914125976,0.7517905039410095,0.8022967642478498,0.8482602118459188,0.8785897898047139,0.9102595364936754,0.9675918670219716,0.9878320803395342,0.9161013021927935,0.839341791010686,0.7713879183130057,0.6993357932504605,0.6233335180929469,0.535632513700365,0.45131922343302455,0.47162254104247925,0.5617560700576603,0.6507100138370698,0.7436256987610916,0.8318089888044151,0.8967729736491246,0.8751124351995296,0.8379179476872516,0.8146242284970633,0.8253118863718636,0.8458781932141917,0.8500189516552283,0.8356519756081562,HB
0.46880387109531774,0.5312832525659101,0.5854060063923452,0.6293417797664216,0.6563104711134291,0.6180952179945549,0.5843467988501856,0.564855914430799,0.5388184195537755,0.49571574357787496,0.4797081084917665,0.5187190165629088,0.45486666251235075,0.35628721818371645,0.2599010925059415,0.16159820336942987,0.0653240687444604,0.0,0.05622293437998305,0.15607087817860144,0.2525576728024539,0.3540140196213648,0.4542842493798318,0.5426723118317651,0.6369928503641724,0.7379767598780731,0.7958420443765561,0.7409537608138264,0.6773980939163993,0.6299881634074582,0.5728348210352128,0.5196004306670958,0.5320766765552145,0.5970561447960183,0.6745836972909109,0.7221094364414546,0.7227613951393399,0.7039085793041846,0.7278335526779198,0.7448720049650623,0.6834270365651007,0.5896387767573468,0.49418215697796675,0.3983650656759319,0.3022036399360346,0.20530991197893733,0.14165714626482784,0.19619633091379807,0.2945406670580156,0.3914424869982207,0.49327947745839884,0.5926786219017177,0.6901250616047041,0.7911806853134553,0.846863578467278,0.7920122955593951,0.7347149005539402,0.6866044545663801,0.6260249358734902,0.5665922437494972,0.5660956415356988,0.6228095011631858,0.6550711283410657,0.6567122206809148,0.6503847946431707,0.6716799389150605,0.6690762559680423,0.590010605119448,0.49520833958394705,0.3989969400851834,0.3017957762670589,0.20474030168285418,0.10697225997167237,0.058552270308695475,0.1293337236391634,0.22586124930045348,0.325594611615756,0.42750116310568664,0.5245186229312473,0.6244659767699132,0.7258356106766108,0.782214564275604,0.7296082281838161,0.6802994345056561,0.6314884104822387,0.5752352934747433,0.5585469464607666,0.6053399150489751,0.6598430597388192,0.6728647562268728,0.6713448806924467,0.6800574237230548,0.7069282578258362,0.6707134693591188,0.5757400237401491,0.47539806775726,0.3794454603864921,0.2835419111395123,0.18595133789136675,0.0945438188344081,0.07234142292560153,0.15438292676158094,0.25509134472810135,0.35153570833595627,0.45271199071760604,0.5538201184359082,0.6502682234106998,0.7476929729477995,0.7729734620645696,0.7229081051879351,0.6792230293301897,0.6254264644141148,0.5857196391952231,0.6095624981338565,0.6630551518121048,0.6937378171960324,0.7074623847944999,0.6982970512114717,0.7089343479287629,0.7001617614680786,0.6199485689774598,0.5254371692861215,0.42809629054615694,0.3307933626071018,0.2349310787867086,0.13951864228397814,0.06227160824358158,0.09705132959838314,0.18519979065519354,0.2792692398217923,0.37579419280052884,0.4775022876743149,0.5786060766914229,0.6750260952636156,0.7663640021855442,0.7626693381309066,0.7083592281023312,0.6624958144851187,0.6071256452919989,0.5676730944720692,0.5892492870960115,0.5989603711087998,0.643138990108373,0.6948990088043889,0.7400502345854523,0.8072123059380947,0.8925105148790984,0.9090296315507305,0.827868115878849,0.7278101669048165,0.63103029293892,0.5307468976712673,0.43282344442874465,0.4152077770406628,0.49595765408965176,0.5927283747922538,0.6838136259288423,0.7455698446273071,0.7378736082836517,0.7301123428041625,0.7361676201794278,0.7209731151672394,0.6925138685673309,0.6391660153903205,0.6208237560239593,0.6704223183768558,0.7183072633656014,0.7652543847933222,0.8394206573547498,0.9117114823670982,0.8840812945339669,0.7962863957438027,0.7043481751613849,0.6073949818281303,0.5053901236584346,0.40620891049880115,0.38173559216081276,0.4676907868848401,0.5645810115656713,0.6586458440831386,0.7294273739321016,0.7306938201860518,0.7060246977269726,0.7069416572135305,0.7009122641009402,0.6890372162625777,0.634906982079199,0.594528988901968,0.6307583742669007,0.6846251100617371,0.7302678199376336,0.7954596710442938,0.8854320171370329,0.9347689960355261,0.8739040165133358,0.7885460916935052,0.6893036983532195,0.5920773667750612,0.4925073838232741,0.40639346677073407,0.4350334421634179,0.5329007769550507,0.6302749595366901,0.7073282945390507,0.7172898597639399,0.6911301350005818,0.6879915464859638,0.6932844516178596,0.6684232037642326,0.6107289450673727,0.6064287361005767,0.667205924355879,0.724855055565732,0.772492642300485,0.8362484435151778,0.9236782418287501,1.0,0.9795058991412071,0.888190978110762,0.7869599162934331,0.6897595346454992,0.5900617385816946,0.4925353291648471,0.4814390439868257,0.5711785249836117,0.6671095003706449,0.7522734076362694,0.7801332054136392,0.7550280667745737,0.7496406365421484,0.7559760490092033,0.747987908658744,0.6884027948365334,0.6130280762144174,0.5578564245648074,0.5849159300147617,0.6431852709941146,0.6927483240997299,0.753019744681908,0.8335851035230621,0.9151228277319998,0.9176689553754038,0.8267570912518862,0.724908939709416,0.6279164500674304,0.5279359058339668,0.425888842942584,0.35170616873092464,0.40156499084681285,0.4977603808101232,0.5921627328406087,0.676053662947089,0.7005538227817771,0.6742725306096502,0.6595854475706067,HB
0.12303184464818773,0.18152096237815618,0.2340212008866791,0.2845110613836861,0.2991564073710935,0.2899528576949273,0.29648894975100637,0.30060967694571494,0.28949084191344987,0.2658196260715546,0.32664887573811807,0.4137414211987118,0.5062428960603795,0.597079211716155,0.6868558680560957,0.775612693896728,0.8572052950869518,0.858113856234523,0.7747064976523799,0.6897076934131132,0.6075653760844977,0.5270672035242827,0.4449234718816457,0.3686081851684566,0.30201994440548185,0.25578759999601997,0.21344857528182204,0.15179494178973685,0.08266657527580645,0.02126385985922008,0.0,0.05059882615540823,0.12255218508359556,0.19400901458750286,0.25619327168257944,0.28830164715197903,0.2816532131201237,0.29743863602283604,0.30942580305391787,0.3034386098552089,0.3000050248867261,0.37265644177754,0.459269806380743,0.5472339299499285,0.6356200617594903,0.7144206153979893,0.7876351075591581,0.868011150200432,0.9048931960779336,0.8359120806235241,0.7482755764114144,0.6618197006671938,0.5838469063416085,0.5071795285008422,0.43061945502171683,0.3603363919102067,0.31344330482677907,0.26912766012965594,0.2102551886374988,0.14505264652738825,0.08425672298217624,0.077349406978092,0.14076263609919026,0.21008623535855397,0.2760601981439208,0.3336083792106397,0.3430963198750474,0.33195122700016877,0.3369815902327178,0.3323134142577322,0.30581594141547597,0.3100412246882216,0.3806725091403633,0.465098577389909,0.5531316369032375,0.6425399725227721,0.7346256794352708,0.7793999250206562,0.7152575186063936,0.6360568847257275,0.5618534390370777,0.48469233851641214,0.40597928899297053,0.3370032557196594,0.28465010842628113,0.24180315186038404,0.18454876046487634,0.11496759870286954,0.05443327985142621,0.030916300374914885,0.07867837363818553,0.14751990129358195,0.21746899206840808,0.2633552070331511,0.2661183781858205,0.2838841142045161,0.2886351152966111,0.28835542320435725,0.26431868202422404,0.257287035375241,0.3361373807759236,0.4253382499238503,0.512910468406002,0.6015082649320245,0.6898301583649269,0.7797749235348381,0.8576634407194628,0.9087374200390637,0.8535732051270319,0.7650011887931332,0.6785559793770595,0.5953192543838706,0.5135037898307566,0.43838104527713506,0.3641931351535388,0.30442214280160185,0.2680255706759065,0.21580382014141897,0.15071764658570297,0.0861779638984852,0.04677576158051577,0.08245228785070147,0.15374729083536498,0.22553777696557287,0.29080133043355705,0.338486427961183,0.3488614250231432,0.3783263386642537,0.4045319835215644,0.38207345771410184,0.37456114108951466,0.34678681158512936,0.29046265476923194,0.21978228675696765,0.14637341514542435,0.09341868682199217,0.12335809426141764,0.19026570367348739,0.25174984576982884,0.29943665110263273,0.3368476345470728,0.39597243932883,0.46848364143794097,0.5439246423418898,0.6218789212902565,0.703829627879321,0.794191343075834,0.8876282155889734,0.9714505693832376,1.0000000000000002,0.9383575115474867,0.8560019580052665,0.7668197693064167,0.6723624894725879,0.5789074433925183,0.4911044504439994,0.40410090523845255,0.3341255192892598,0.32643523733675384,0.3272914444236543,0.3271848912075137,0.30369690832360985,0.2965032784216335,0.25310870065806723,0.1877773745850424,0.1194773699578704,0.07511258181395952,0.11268431850555416,0.18034849903499084,0.24305111045824024,0.2889003275590971,0.3361295463346219,0.40244995953734963,0.47626987305280966,0.5523190505506268,0.6313307810514734,0.71125267798769,0.7959330089285455,0.8558720515789393,0.8200070974978912,0.7411511676969498,0.6689643993362309,0.5943336437049993,0.5068029161504288,0.4212468503785649,0.36150960414208644,0.3586604963040041,0.3668152198472274,0.3681513810922077,0.3629877359779041,0.3724761225231923,0.33484751271458246,0.2745113187017829,0.2064879915224691,0.13402365203033395,0.11401124280367148,0.1700723810432594,0.23748271129394904,0.29471841806845256,0.3363467513651184,0.38402619973904684,0.46017056174496007,0.5371539964317646,0.6149204931706793,0.6923023947424163,0.7694729131737772,0.8466239666097821,0.932301803907073,0.9862477430301875,0.9389521432891794,0.8557568129080126,0.768083613554736,0.6790663438527416,0.5891918813111245,0.500745982167202,0.4087461937770893,0.3499933440859393,0.3425053489983476,0.3337724108053166,0.31945917296172555,0.31920147355366435,0.3068413958970102,0.2568719311529739,0.18782101303683474,0.1160685381763511,0.05504680834645925,0.06978221032711085,0.1361405997169285,0.203323047248114,0.25934919197480477,0.3009981799585735,0.3531489358939153,0.4263135305593999,0.5026482882278025,0.5814781247748071,0.6662693014510248,0.7537124899586107,0.8415562887667982,0.9290804617416772,0.9917752939382758,0.9593949374889477,0.8763123147966365,0.7865396980318484,0.6974160002304901,0.6091740660593397,0.5190190792318998,0.431518038142241,0.3533390225537272,0.3353019253748315,0.3290685441819132,0.3327578679192402,0.3222459995776159,0.3311002592828787,0.29880882385595786,0.24471436341704456,HB
0.2989361162415982,0.3712943574755614,0.44907639644771935,0.5142167038703791,0.5834889941616579,0.6167684579420305,0.6103617324639043,0.5949098995606557,0.6229805429185649,0.6833025189491937,0.6907588257036541,0.5998766546788556,0.489844358734401,0.37531688121676665,0.26282606336058056,0.14934528073234055,0.08586563373873735,0.15626700201751875,0.2668813673506425,0.38444888449459325,0.49981741966488435,0.6137939796525154,0.7321950243145481,0.7836538640267161,0.7400809159922868,0.7027467465597246,0.654212927022114,0.5875682194233076,0.5284267765317998,0.4922257381198567,0.5310401204297985,0.5959234755860296,0.6265344817806286,0.6279410461058252,0.6047785419354867,0.6247493672333588,0.6815658088103733,0.6924007006047668,0.6081823417527605,0.4981397967327419,0.3859572530990756,0.27165374709016143,0.16371910372662213,0.12210048907939086,0.20784861985834868,0.3221037731997076,0.4343515150931192,0.5536174679072876,0.6653161756163244,0.7743317202037869,0.7800533635393823,0.7264445476830024,0.6995229595336774,0.6527536873708888,0.5893247602828287,0.5199011053414506,0.4678107850197728,0.4890976792575725,0.5546508169721509,0.5979186368771758,0.6141794181827862,0.5979136179418236,0.6017717233253328,0.6508880760275613,0.7077733583049621,0.6814452745513555,0.5785773016794353,0.4583925137666658,0.3432596999163917,0.22938217587588783,0.11694792338827442,0.03756857748832565,0.08871604706000369,0.1981137647672202,0.31536482094135443,0.42729079891980515,0.5471207520436487,0.6607847652949679,0.7736570307096131,0.8153072851407663,0.7638864964215659,0.7258952134432626,0.6800040144356778,0.6160831101109467,0.5517317157371675,0.5065543854161787,0.5338424066552285,0.6008559702195404,0.640861893673351,0.6504656002504041,0.634831664333884,0.624644811067609,0.665722624892886,0.7220739908257525,0.6971272821585837,0.5969546177523237,0.4858588096125356,0.37121737134923904,0.26946069116563853,0.1669322738523742,0.05449201267039516,0.0,0.08449736287522747,0.19563556528975945,0.314485499532988,0.4264040648134404,0.5432550213100709,0.6427089090394329,0.7283349312984937,0.8250350797902066,0.8141217810506469,0.7668317900924229,0.728950739014786,0.6734565388875238,0.6065251243681717,0.5526576412207915,0.5508584349928194,0.6187673315063829,0.6832670012874522,0.6949837996512458,0.7094966806044805,0.6907963752292807,0.7003297725309627,0.7463266627817378,0.7633898193933968,0.6846145470566753,0.5767544218093956,0.46395921649348226,0.34337537817972685,0.2228734709910276,0.11977844186157771,0.1196153780356386,0.22222263181577318,0.3345237449467626,0.45035993209784464,0.5634313570639851,0.6836145539405205,0.7900687655362919,0.8433117920642976,0.9299034853853021,0.9972222716497705,0.9359152428997004,0.8270364672053505,0.7082098556642804,0.596063990436837,0.593609891188009,0.6962768631519172,0.7921022066234125,0.8112890663786065,0.7773913363789338,0.7356117416242047,0.7495028801112666,0.7499826212281757,0.7322967929063826,0.7038024036551569,0.6321293506262058,0.5929721835592408,0.6397467935310561,0.7058664632119291,0.7609440898650619,0.7997651643868284,0.8506710722421542,0.9346681421837881,1.0,0.9411773088618118,0.8228766695637719,0.7018845217984215,0.5809280923738469,0.4691951715186642,0.46775997852132645,0.5712264021851983,0.680582189301516,0.7633268746663728,0.7721555668343587,0.7229285496166016,0.6712243203192263,0.683240503946601,0.6966303660468456,0.6849817728718248,0.6531880014759097,0.593285265966137,0.5590150801851252,0.6069088204903821,0.6717878056958417,0.7317811062837158,0.7709056821145932,0.8148334334798113,0.8944308138187247,0.966818868584002,0.9244738769163834,0.830958673065882,0.7183707602217764,0.6047560639356728,0.48516211137384113,0.4194414089642451,0.5047800002518865,0.6156910497107684,0.7137585534557549,0.7532246890376242,0.7183676584797927,0.6572670407536982,0.6366272233001324,0.6597492650459316,0.6497725866687372,0.6257290154939561,0.5710293238510635,0.5112322163770584,0.5388770137100054,0.6078312201584599,0.6757653069545491,0.7240654729271774,0.7606796885085019,0.8235684638721255,0.9138436342600942,0.9572423869922617,0.8780946765498867,0.7635009930259096,0.6504976434103233,0.5380336625431217,0.5150910751452495,0.6161628938034291,0.6993780860351086,0.7491830584597303,0.7296875540565146,0.6741453387018428,0.6513228998946121,0.6725574408692436,0.6634083634920342,0.6395866126730461,0.5849545838557582,0.5436549782103421,0.585384572472095,0.6509843635651134,0.710891245719913,0.7493627040337913,0.795635042970845,0.8740137232842353,0.9516852009357675,0.9118682809453462,0.8030893050764649,0.6877346646298528,0.5714800486952663,0.48895970541016753,0.5468960523766757,0.6477531145127626,0.7223650415348231,0.7444699888715913,0.7055095326056771,0.6504211010884804,0.6438238975635309,0.65698682566578,0.6479591211857731,0.6081029379172724,0.5472534829993569,0.5434530687785188,HB
0.30795529202702426,0.34742133257208035,0.34922913566556774,0.34370542645413976,0.3137622601799756,0.33250312463684256,0.3810650178049419,0.41739541639929917,0.4276241528378863,0.4359824380476646,0.4508775593290714,0.4313053439259182,0.3627193693857152,0.293620616467188,0.2170387171715859,0.139932226259825,0.06173548633392151,0.0,0.022982156000943887,0.099089983760339,0.17644093229593666,0.255753127087967,0.33360724699924743,0.41246496733304067,0.49251312000588116,0.5633819011953567,0.6391381521667447,0.717244472376855,0.7394022592867044,0.6742671935357585,0.5980931458869558,0.523590990966621,0.4577794240799207,0.4157734789243029,0.3910637149913964,0.37135746555096943,0.38242888733432273,0.40794504692059813,0.43449022988199043,0.4420454516612938,0.45907704288415657,0.46288366565688593,0.4080205318271692,0.33601145066505006,0.26458169867415965,0.1879868664680014,0.10915193500706294,0.03870732948981043,0.03592019620679576,0.10397426993335862,0.18117798391406265,0.25986818142902696,0.3376962929879674,0.4182933712454782,0.49514628049906856,0.566837469246309,0.6442200695676783,0.7212475516702201,0.7900252707165816,0.7687573446203426,0.6947092720492702,0.6193349971439588,0.5464793625812523,0.4817069587404917,0.4322652994969722,0.4025990466670322,0.3791956534096646,0.3758460464152687,0.40014296591616344,0.42271509613964525,0.43586150768517357,0.44493071916894206,0.4614030363367429,0.44175848725570926,0.3722775695450767,0.29508099139386473,0.21620349343699669,0.13852867916596184,0.06367537069940538,0.03793804555903063,0.09875370669139544,0.17546349011299905,0.25255157204211615,0.33036761403577736,0.3972895953585595,0.4566105491019336,0.5233993104110701,0.5924901852275384,0.671577819342672,0.7462261888328738,0.7455002754443445,0.6729802876859987,0.5929817565966657,0.5188553479776012,0.4563899007644419,0.41691530785403436,0.39049348678580315,0.3696570299457262,0.38277623088082874,0.4090085698899936,0.4321702677758504,0.4338378340608942,0.4494034368589969,0.45929845912182715,0.41698331242588776,0.3418924646661628,0.26432587436046867,0.18640458426417555,0.11319048026639839,0.04460633869248787,0.02246814379070944,0.08539791279098546,0.15638198799416675,0.22928626045875228,0.3065676716323838,0.38572975927152825,0.46578885847167223,0.5382933394505276,0.6125996810165948,0.6929138677850175,0.7524620286988459,0.7153325170364027,0.6394190509739432,0.5640621607935661,0.4917414492619446,0.43457899706825115,0.40322445696456527,0.4139499493156151,0.4514648186005414,0.5130847170331563,0.5865018340644728,0.6624420737492267,0.7389358943097653,0.8154452598134014,0.891504280306463,0.9672707807455581,1.0,0.9439159044778263,0.8827343820071607,0.8239448707482193,0.7507831851707201,0.6703705213618485,0.5918114734914035,0.5136658455915839,0.4328357383280053,0.35387907074009667,0.27614141548085197,0.20331636164210803,0.20800220163498678,0.2804780441897942,0.3609203310982087,0.4368874761101859,0.47760411526133556,0.4687431202296504,0.4552281436746784,0.4572293395725943,0.4427373943847274,0.4157605265821445,0.39405936283264403,0.4002953895237759,0.424549762729119,0.4597898169570542,0.5199012509446685,0.5935600607551141,0.6697554421217853,0.7459999220163096,0.8217084315871508,0.8992101445389988,0.9687368491002857,0.9548353174406063,0.881363969368498,0.8041402044292929,0.7248513239927064,0.6460245447108237,0.5681429495889623,0.4873779111078442,0.40870292680617254,0.33074185520484983,0.25299787485184894,0.2087497170584885,0.2639191735045257,0.3406436255155962,0.40899808424515743,0.4706097950457014,0.48373314050393573,0.4678330375107604,0.45484623610793845,0.4438826102740456,0.4213613238933959,0.3992407496384151,0.4052540084848835,0.4301794064754642,0.4683156384912662,0.5313037334301689,0.6046177900676735,0.6832918862547286,0.7619127563277857,0.838533387431063,0.908849945100423,0.9506237992874023,0.9043991843983343,0.8268737589472264,0.7473785315976529,0.6700638917375663,0.5904341269132727,0.5188060083016728,0.4435647702004097,0.36283146699182406,0.2818490981841713,0.20206339136425494,0.1588619501237803,0.21361860519035897,0.29043280948726197,0.3680832745705525,0.441919256473663,0.4866078806117449,0.48059468191826565,0.46229230150791895,0.4572615543983259,0.43869881816589856,0.41392303017744453,0.39111266471047873,0.4060412249015312,0.4353128449092017,0.477458408718261,0.5440499632360931,0.6228209137275684,0.6998877024659773,0.7771978293738606,0.8535102742539971,0.93039231398453,0.9910871622911026,0.9634530074487415,0.8875170702183761,0.8085611827054828,0.7308917744465988,0.6501392244066564,0.5713806606975949,0.4980076295896671,0.41868917869059136,0.3415855966799268,0.2619199344807442,0.19398605344127423,0.2086863186134253,0.2837152725817184,0.36089179104106656,0.43429194841772417,0.4784266430132568,0.4729428450695902,0.4554991154374389,0.4497982792445309,0.42902366761695626,0.3997527038161323,0.38145620105148065,0.39437129208033234,HB
0.7440433068640318,0.7725295798015861,0.8162566932025765,0.8554152394512993,0.8446900688610828,0.8121844924992778,0.8011981424159009,0.8300097155064139,0.8219628569211317,0.7363862001116146,0.6343285364764533,0.5232436819226507,0.4174555206511539,0.31971053898648916,0.2366565036106294,0.16133534705288866,0.10442203567839137,0.030817530066438836,0.05693891356350833,0.15691321550282122,0.26321868819951244,0.3754087820397862,0.4850810664959211,0.5884636278275959,0.6991930643545679,0.8028516714640948,0.9027186414271011,0.9202390785339689,0.8774174747849013,0.8523682289707153,0.8568077528939753,0.8904294902751297,0.9099406125499032,0.8563628115042505,0.7847869245848214,0.7353460242381165,0.7389531321873297,0.7781370071670335,0.8287057518243486,0.8653269515256288,0.8605041683746235,0.8333115328047798,0.8240023957380427,0.8478681059383308,0.8036245953552272,0.7072031171595203,0.6015839988763094,0.4985728355865542,0.39751318647940903,0.3062260669761028,0.2364771447781564,0.16109899257410998,0.08461855579443966,0.0,0.007260275892180257,0.10159057683827744,0.21311296933083157,0.3241653037703671,0.4273091599465644,0.537593610449211,0.6499424092525181,0.7619863994554537,0.8610878352934603,0.9269795841753281,0.9103088218357598,0.8681359618642566,0.8503596151875026,0.8539642568999584,0.8779161788719476,0.8780899564929985,0.8120684645702332,0.7471611143737655,0.7098617073270874,0.7216189813308882,0.7629534666152302,0.8123252524724933,0.8578751141438461,0.8564246499629438,0.8202314341164512,0.7925058243116998,0.7853040810256269,0.7875560273069742,0.7188596151996445,0.6206778153017083,0.5173314926292281,0.41219180618692963,0.30935219536737124,0.20995724768367308,0.14442120459959917,0.10019848384253693,0.021190636698964926,0.015327916356142168,0.11291720189256971,0.22227060569352863,0.32574716922852587,0.4372306073787833,0.5477949161252011,0.6508316054702055,0.757626157658118,0.8198702251539773,0.7714843053811979,0.718115851842976,0.6856811264102218,0.6589122278660644,0.6965033355619046,0.7350647009814801,0.7029283641675546,0.6313141461965239,0.5472695609884004,0.4644428012642212,0.3937464772260917,0.33002164924619093,0.29293508779514266,0.30859936686408473,0.37654609760191193,0.45253202591060204,0.5319025508100585,0.5992605045727355,0.6420440854726199,0.6686779116669588,0.7009257713250119,0.7508235690880587,0.7855982640968018,0.7203653781318622,0.618898417027838,0.5156622398397954,0.41277210934280717,0.3117852855922387,0.24186266442096138,0.20124048605843026,0.12122863578178933,0.06528974977739987,0.1355439735233892,0.24390828439407675,0.3158279907118695,0.30770634157657617,0.3488419182444469,0.4528005240791029,0.5556751735916687,0.6580563368850794,0.7596534499405825,0.8296318930437352,0.8262807811702084,0.7725602095811592,0.7268320832931925,0.6989919893799079,0.6677869756926083,0.6171979651022621,0.5515021635336066,0.4749751474230648,0.3966092145124356,0.33732193802531096,0.36286357528917135,0.4263824191172869,0.49676833218307825,0.5753034408934323,0.6650558392139929,0.7346804590503642,0.7772875395129379,0.786816261780374,0.7331082243165088,0.710605263197478,0.7391094246329695,0.7883980962046244,0.855131382498971,0.8909727355915742,0.8285753320927507,0.7234384098337638,0.6199511068147021,0.5105889962520891,0.39866151366642155,0.29639673334282945,0.23112124274947754,0.25868321786367954,0.3538723585230936,0.45618369107068046,0.5601271813437518,0.6669634649932836,0.7662693412882347,0.8254467883679839,0.8305491298752388,0.8365608571129812,0.8654903723753178,0.9031817347008577,0.9052736359984135,0.8670571570965475,0.8164572097700413,0.7691850577223527,0.7568263655702385,0.800421299317853,0.8680656206051525,0.921359326290857,0.9152833289627063,0.8924147406501299,0.8942591339978223,0.9303486915689063,0.977493034716755,0.9810367292586244,0.9021459510695069,0.7990803920643297,0.693714091105744,0.5830019039787508,0.4798741599083711,0.3695255346651971,0.26692626503235894,0.24253799968178957,0.3095480301251501,0.39921418686091226,0.4985243917386535,0.5889898128787117,0.6859507206391127,0.7871131559895541,0.8671263359472723,0.8975972793467635,0.8740568900989623,0.8772214459355989,0.9053229854943796,0.9107852939060914,0.878054542192612,0.8297590559848225,0.7850235010798394,0.7845954675256779,0.8404221441476742,0.9139204748681216,0.9585414338056599,0.9413834672440713,0.9047203584927124,0.8919219813145485,0.916724208827776,0.9619048048515537,0.9999999999999998,0.9570290625270956,0.8564504527243917,0.7527450198662751,0.6416652250256476,0.5377371156107311,0.42890352605688387,0.317516434163297,0.24386639904918428,0.24141693336431191,0.30807363604762883,0.39947133729252404,0.5012491666441998,0.6046348802561625,0.7081030116060252,0.8062852538826035,0.8765674427381225,0.8794976964310457,0.8447996725147429,0.8580284560500744,0.8898377383813705,0.9073183787376122,0.8770406132693649,0.8337555599134532,0.8010121028132182,HB
0.5930616129993439,0.5259395303388503,0.4463722875377345,0.397672438314556,0.3529938443497057,0.33883371227906756,0.40118946149295553,0.4621345350553213,0.4842010368569325,0.4968743875736765,0.4335593619629612,0.33600991088766097,0.23761908703773815,0.14049490940519171,0.045677430189592305,0.0,0.07162190508244987,0.16820327491486453,0.2683054564750511,0.3686462661659168,0.46574661056142597,0.5655011070916752,0.6663506867452962,0.7611126852477355,0.7709027555082273,0.6944729497261914,0.6327350928863353,0.5768687167077008,0.4991413440339221,0.4165371981432576,0.36005468224594994,0.3955138435994733,0.46260140903713687,0.49742096791948165,0.5187953836462715,0.48542905853601537,0.3947289713476376,0.2985347081898556,0.20172422771854115,0.1051646337102578,0.029531495182543388,0.07112236577400033,0.16613213952628436,0.266171939474642,0.36602622345103675,0.46308915535511264,0.5633656127440249,0.66422995882724,0.7638440678248912,0.8319419672224522,0.7841342029472149,0.700003750549453,0.6372819312311659,0.58042759518284,0.4996849196698544,0.415674481662768,0.3500790537694094,0.3696945632320846,0.44145580906974335,0.4888938238081745,0.5082125720531687,0.5096694958643841,0.4380522244158519,0.3444031611562719,0.24807870925680786,0.15217600056470637,0.07220695533911531,0.10118689175158974,0.1956618268357534,0.2944056364436063,0.39517665353794973,0.49387999885146117,0.5917079511635372,0.692397109181927,0.7866139495229099,0.7957444029013181,0.7192676413763348,0.6562621370126567,0.6000283748761734,0.5216237895872633,0.43881884816554184,0.3816123828878415,0.40215186544159587,0.4547771947547177,0.46918180686275746,0.4884222500397424,0.44272234724856063,0.3495719948472614,0.25329745822524363,0.15680103276299207,0.06421042396609672,0.03891623484256446,0.12318242100127819,0.22391502736403768,0.3237385925610903,0.4208137396901128,0.5211135973924406,0.6218672087797572,0.7199533110053102,0.8149224748401642,0.8398906919254447,0.7626415172510399,0.6805484396423678,0.6175065944851158,0.5578840145710402,0.47960899012234715,0.39470799649917654,0.33503354794866924,0.3665335399327262,0.43700749565824903,0.47999465675221853,0.500650927358857,0.4809787383926013,0.3921644677895948,0.292675675705405,0.19607999059283054,0.09987810980615658,0.01772733367794821,0.04095679910320471,0.13424212451436246,0.2335842642563254,0.33377347969956095,0.4250449079222113,0.5200298670380955,0.6207667552802718,0.7202145358733685,0.7793191247636195,0.7255434366419415,0.6533039494840307,0.6157013380669216,0.6408615446649966,0.7035769199174278,0.786427737998685,0.8753687865505395,0.9562859471707099,0.9408359006176128,0.8476082652690164,0.7629393321658706,0.6933011707856735,0.6168471137031808,0.5319905173274467,0.43811971867501354,0.338473303206847,0.24581500154833424,0.2500009742066186,0.3404970092853251,0.43589879786915364,0.5138560956208322,0.51960414919312,0.5002665822039759,0.45747888173802764,0.3887212311120729,0.3715067406637945,0.44299141215054916,0.5287444045825883,0.5983052865089188,0.6529054164297767,0.7280907033999806,0.8162952365113803,0.9076132371506083,0.9804607173840854,0.9432157421289864,0.8450984571070714,0.7472158671380082,0.648576239313273,0.5477778630097373,0.44833098496833457,0.35108275408194123,0.2565931397222714,0.25055600430842595,0.3393465271622539,0.43424056590988014,0.506764736132149,0.5008359599687353,0.48354217859466464,0.4506799996901699,0.41321158628480303,0.4644912837461491,0.5470755835263225,0.6223443527640438,0.6765184926836965,0.7433495495313553,0.8311196334513038,0.9232121114170877,1.0,0.9738561534880612,0.8841277725675745,0.7922593729183875,0.6919341734457727,0.5920309872485627,0.4949811385375995,0.3966656280289239,0.35718689271173387,0.4341889498600333,0.5217428381932927,0.5463234378656769,0.5208476790885357,0.5035717726047629,0.44621951011746763,0.3822594407710873,0.40451282112993336,0.4855676259411644,0.5667608262341682,0.6318557895730521,0.6890627513600065,0.7676177003019342,0.8563456928569584,0.9468878842711002,0.9654643891334502,0.8813545922512371,0.7844356780280193,0.6841159955658429,0.583750528566815,0.48663291464956693,0.38691762699674404,0.2871556370321042,0.23503086967793618,0.3054313844398452,0.40321806102822033,0.49834450821930454,0.545940475190368,0.5264906026564895,0.5032782145298412,0.44966675150771607,0.389284089738143,0.41784553350891995,0.5006056858781832,0.5781585427733578,0.6376533842808672,0.6972945805598001,0.7802783906058648,0.8686349165448164,0.9381172479199935,0.8953730646291398,0.8004739285346933,0.7002745970213831,0.6002908959323837,0.5032569410790807,0.4030802576336062,0.3026466412150931,0.2341167279628732,0.288631780852734,0.38362879860708177,0.4758390801462795,0.5212419021939533,0.5057683858193375,0.48681698166740217,0.46091492401627776,0.4423045948617177,0.40966511240406633,0.37125458560895164,0.39623786761732604,0.47856534063342127,0.5608815040440107,0.6210674809476591,HB
0.01094982639598252,0.00621923267643687,0.06694041119851579,0.13887724997006856,0.20082163735170866,0.22765426259005395,0.1977517567609114,0.19287478081806086,0.2510784955193007,0.2699776538314954,0.304467856047283,0.34305062735851866,0.39426131170358614,0.42430396945833915,0.3868343497375789,0.3823649310707006,0.4028078418093567,0.3527697362434704,0.2711650556782622,0.222860380578338,0.2807780485253145,0.3683559509558142,0.45935097475628417,0.5451022559029016,0.546058406610458,0.46933012908747906,0.4004782218666213,0.34228109161698417,0.27942025501424095,0.21135625803744684,0.13840175901582252,0.06420208660649285,0.0,0.005768041609917729,0.0732371500291038,0.1462573741726002,0.21662528944854176,0.28240196768414927,0.31507903063302567,0.3458021150605012,0.3565389838366507,0.3648233124332426,0.3973365349121666,0.356997741543135,0.27171097589477167,0.18684001742201828,0.12370016306329001,0.1619498220285852,0.2503256090577973,0.3384307554902163,0.4306389690403739,0.5180513737420459,0.5234308436828644,0.44954962792293196,0.3979548342569831,0.3734736513101594,0.31266294599147926,0.23017645925822616,0.15057408807136574,0.07657468380859578,0.030300171568861112,0.06402794251450294,0.1339580649731804,0.20861174102484203,0.27667570726263946,0.32038293694057407,0.3452442748422989,0.3654224104474676,0.3541038110049123,0.3777869574632694,0.3690794496641586,0.29297995560676926,0.2019754132114232,0.1152055029386777,0.06238842199448624,0.11406535764592485,0.20297939700867385,0.29571637678088114,0.3884271983440596,0.4771839787127955,0.5250676567194835,0.46443671955216137,0.3946410660008991,0.38003024839925004,0.3486553654801988,0.27625036492263366,0.20496734297201336,0.17157686801906613,0.21415250890519,0.27312341919360106,0.33171218528346846,0.3647937314682915,0.39919833779471403,0.42991037224998563,0.40781481381968476,0.381937462294032,0.39974967051068966,0.34928089087018,0.2639773073449644,0.17858351004792294,0.11701710142466426,0.15781483650818362,0.24389953052796853,0.3360433771508581,0.42620497433142834,0.4999363597932692,0.47449134423464534,0.4063181100388146,0.35074150544159866,0.2964027501181553,0.22771637925542432,0.15308514174051602,0.08001219324891662,0.026790380522453305,0.049996068317492925,0.11841409867584429,0.16193368596541147,0.11243632661113068,0.06221018303906989,0.1010015854470715,0.17415913745115041,0.24607873354201437,0.31344472533644263,0.3673244709867901,0.4251372317587324,0.4985125853355753,0.5830029429780835,0.6704330021088697,0.7589667216440242,0.8467206893337812,0.9238160776403707,0.9045738811235059,0.8191323803238498,0.7265320572750246,0.63371821595077,0.5419374119322106,0.45392032099656243,0.3619598392832858,0.27267344196954146,0.254266847711096,0.3310731936672805,0.4069312430272648,0.42474016406462967,0.41177963783807126,0.44468561647162075,0.44578684676959857,0.4102969594591218,0.3791894458847497,0.34266719952138625,0.2816756589692263,0.2267234714725962,0.2175057961832615,0.2809158376874138,0.3522664792058924,0.40038881186415287,0.4107040925570141,0.46515164606735937,0.5396522122520852,0.6226598106431912,0.7143918729835078,0.8063439220085452,0.866483601829927,0.8204974793967338,0.730458775826348,0.6377242648324245,0.5477291699287218,0.4585616542250107,0.36590234999902294,0.273483556711528,0.2118247595484446,0.26424495721388885,0.3489865078310138,0.404448051950565,0.3983740088043445,0.38106816314950887,0.3901601379930152,0.36352675706145543,0.337926406090313,0.29839303088593094,0.2300445170251706,0.15701943087353532,0.08844928659717421,0.07584268478261846,0.14136343386314953,0.21977705959676597,0.2997156196843235,0.37085861163423306,0.41257672317787375,0.4529534665522085,0.5292232446850403,0.615536752451166,0.7032908630130504,0.7925988948793922,0.8761215221700248,0.8923311538002475,0.8211709476376722,0.7307644110746513,0.6379716249457775,0.5451544595666938,0.4529910230790496,0.3649440476456448,0.2832679818938807,0.2961311747250487,0.3762199216889349,0.42274794394909054,0.4033490694863143,0.37969918186086227,0.3791362716171319,0.3474074564802282,0.3202002730637269,0.2722292659751345,0.2034056606276926,0.12990688918346704,0.05700042233855407,0.030349858330291912,0.09230584270770259,0.16860891702032188,0.23927691328212164,0.30493782744159514,0.36939480490678933,0.4264387391371941,0.5013731775665894,0.5851092452494734,0.6728388788713163,0.7618282777429836,0.8518647766148427,0.9399986107680861,0.9999999999999999,0.9501232300527215,0.8584655435167913,0.7658529191737394,0.6769153000879579,0.5866618850754582,0.49394688480784577,0.40412585831505765,0.3451050635737901,0.3882271207529343,0.4337520532107967,0.44741594324229605,0.409321971736332,0.4386597062695846,0.44797933214936514,0.40461626892800917,0.35547732550914535,0.3166599823981763,0.25520887561284555,0.1954774103487834,0.1289562888705662,0.05857338085759556,0.04861248659068096,0.11992002947857672,0.18568963249019732,0.24433858855569346,0.2640905491541695,0.21686316432938224,HB
0.16444521361542624,0.12034047317473667,0.07612826136217693,0.027150177818179244,0.0,0.03232749386904549,0.08611002951072239,0.1349818068744995,0.18820071446105008,0.23477602755334942,0.23816062985539427,0.2302128976702777,0.27999751838718795,0.341032808376113,0.39993082011189945,0.4618893291249864,0.5231771190078593,0.58221871073705,0.6443585819246753,0.7064161644685396,0.7653707099695024,0.8267741289792256,0.8817079527876253,0.8730902973095405,0.8241625198405915,0.7760976975611162,0.7214250354082594,0.6623214261593842,0.6028787440529755,0.5443693677923009,0.48642561971418935,0.42957734986419044,0.3727482763487961,0.3157267149634408,0.2625380033605193,0.21631734537613373,0.17281919928524364,0.12651062910630345,0.082244314069913,0.042087769698174904,0.05398160753841136,0.10047925225003768,0.14913027708828935,0.20070481250770472,0.24897199799843178,0.27029318157869947,0.2361191317843792,0.24222597718754096,0.2986075654402857,0.35812295106040487,0.4186891395577363,0.48104297399256696,0.5408465308873214,0.6011662387799508,0.6635631910249531,0.7239238322474746,0.7836879564163022,0.8457929722788862,0.9037540718490242,0.9255062220985462,0.8824836546656933,0.8308801819589331,0.7752346420205383,0.7185327682303395,0.6615165402762588,0.6028302710743727,0.5440484175492999,0.4853688782522227,0.4249437582476883,0.36801037389560326,0.31336018114599956,0.26253682063952294,0.21470549191575267,0.16853601496284382,0.12935855295546667,0.08788471463779673,0.07820121743688296,0.11814872186800968,0.17075555675262227,0.22189353114492444,0.264819143244638,0.2703424852134398,0.2274299350779611,0.2289287560036662,0.2831219312896249,0.34503278409424315,0.4045479673500996,0.46518917239359786,0.527655115628292,0.5901538750369517,0.6526526344456114,0.7151392067144031,0.776347554520473,0.8354295221662746,0.8940820209284741,0.8995231095802663,0.8548150053820127,0.8072280598288086,0.751676180293263,0.6917188368955056,0.6311475272769365,0.5724976810926097,0.5141796081199106,0.4562284633344766,0.39964669660052937,0.34466283994846064,0.29164634265900985,0.240941223887209,0.19138828076592534,0.14462732147748597,0.09976571389279926,0.05530632782637418,0.04741030863444001,0.09067556238305369,0.14268369723703883,0.194497017925293,0.24539282223905373,0.2771732352103418,0.2509802392426855,0.20713055373471784,0.22731359858290762,0.28440500243060546,0.34636237566279676,0.4073493403208199,0.46658902869418634,0.5288401210984883,0.5910912657949239,0.6472174018555434,0.7018723559467086,0.7636834801506909,0.8240812396068766,0.8833121137284994,0.9189962608990783,0.8840192450103228,0.8341764554341424,0.7794334829606193,0.721319236479742,0.6630020450700549,0.6065547075658408,0.5589745494756435,0.505833076146391,0.44779586457090664,0.39146856257561885,0.33621513134462294,0.27907814346529386,0.22648772761472852,0.1784611880578953,0.13241080835109226,0.08448677275963218,0.04645538584822756,0.05169607642730528,0.09158810582724536,0.13711563570804447,0.18639477649956765,0.23647128954327928,0.2745971350346707,0.29087111954686257,0.306191976071262,0.29627261516737463,0.2631003902963773,0.22864913334337195,0.2621876417455596,0.32001897133353246,0.3810515794840175,0.4435335626802189,0.5060323220888796,0.5685306605183922,0.6307185861299687,0.6898306370440965,0.7508670016727048,0.8104849241652738,0.8707601083112568,0.9213091389645214,0.9094586484754381,0.8600824199636332,0.8100121378327458,0.7529988443564142,0.6916975811136239,0.6330308574087387,0.5747487681123347,0.5166364428480288,0.4576267052092516,0.4005258986765166,0.3453334929804082,0.2907005410706149,0.23946836752146144,0.19106890987005415,0.14556004669860995,0.10007414367008022,0.06285618098919427,0.06885855556440984,0.11222921820301784,0.15985108224312222,0.2077573003656838,0.2508195913622681,0.2591854893172953,0.22469615256426628,0.23090252992837706,0.2874682986883182,0.3479871753341703,0.4075473734178185,0.4698953805530342,0.532143231286853,0.5913688151332075,0.6512241609965528,0.7009459207318545,0.7435891080816306,0.7953517967824575,0.8553887481016282,0.8744264702934919,0.8355942316183973,0.7855361452829028,0.7287819465602297,0.6706789366188968,0.611956264373428,0.5518724929417764,0.4898499805990823,0.4314860194852786,0.37493201357467826,0.31924968705122553,0.2658833255557744,0.2180529989862095,0.1773549654261672,0.13845007228840128,0.09462222696089523,0.06984242111509903,0.09890557795629767,0.14746058033207593,0.19470707364689382,0.23752921455547843,0.27418869214712766,0.29843800498084444,0.2895392248760205,0.2533681509010361,0.2125891606012012,0.16503299791057618,0.11598137882087628,0.1042439191985402,0.1434280934296624,0.18371824348192883,0.22325782313525927,0.2724719371756194,0.32604944884154824,0.38146240867805464,0.4388226492895834,0.49712947618942754,0.55553397255207,0.6139564913290789,0.6728595538876923,0.7316227595747635,0.7917066605330463,0.8454326808788923,0.8908966023426164,0.946085200444363,1.0,HB
0.7162003023584277,0.7926126087072126,0.8496431825937557,0.8551935754050265,0.8047974928816842,0.7086471369581958,0.6066205036765983,0.5051613009847147,0.4009687462155469,0.29993653824096633,0.1957254528681812,0.09276788653325943,0.0,0.0028373698718369422,0.10032158232911512,0.2055347614480055,0.31014817160837427,0.41122297264247987,0.5153236206360468,0.6204698971302446,0.7229905570814047,0.8248965704999737,0.9035400830293009,0.8727638100866842,0.8110368036914356,0.7377493343950283,0.6740709505631627,0.6958158862290186,0.7745248469007565,0.8442817684803182,0.8551757599459301,0.7965856576377777,0.6987044953524392,0.5967092311117907,0.4951631687564496,0.392017863648391,0.28895863631525565,0.19609258403841903,0.09637347328310794,0.050343378125417365,0.12831106465516331,0.232291623190548,0.3333171760036199,0.4377349099871488,0.5414393906954362,0.6427037020448056,0.7472386813918837,0.8455268754276483,0.8790166388011135,0.8256279539196513,0.7617277549471397,0.6997662475463357,0.7131351945666177,0.785466656774308,0.8355111533389313,0.838252353813545,0.8479437255264707,0.8585555978255736,0.7972052470453594,0.7052793415409906,0.6070550091376217,0.5061614630003469,0.4023979496974749,0.301358763814051,0.19733985882382507,0.09555667802067833,0.0015782650433926182,0.006338033933831894,0.10157466936788126,0.20414776052595054,0.30926900177510197,0.41240623496626616,0.5140800524790358,0.6188995867784096,0.7207498214968114,0.8214523253799005,0.8692140166440482,0.8254726123243185,0.7588235852423061,0.6981525462866646,0.7146517002132671,0.7910233737265764,0.8481731021395528,0.8201642393350034,0.7281934308747355,0.6269763787799361,0.5250263435664072,0.42257324234533855,0.320426593467373,0.21565938321448416,0.13449287942884755,0.17142281304298965,0.27186736811477386,0.3729485413140148,0.47695662059700794,0.5813130659086123,0.6823366062464747,0.7864116531708654,0.8645615313600788,0.8388403887808612,0.780115705576335,0.7278719065294552,0.7453506907440318,0.8077476349975549,0.7819630315661589,0.6817019360025662,0.5788441837455037,0.4860799785927695,0.38522353508184426,0.28482740922390204,0.21956125774294014,0.2792845215475972,0.38141092568158497,0.48421288183874844,0.58612830782032,0.6900871820260454,0.7896766555676996,0.8458118352256344,0.8071111965457188,0.7502774911495272,0.7401361607704158,0.7999408410534543,0.847723712115669,0.8649447524497772,0.8594205469637936,0.7881819366728391,0.6876677304189773,0.5866827646883159,0.48299008503444474,0.38156209525834384,0.27820883801846763,0.17577961078226015,0.07401338902786117,0.0026285489328860823,0.05722158039761585,0.15878760462636096,0.2638323080399504,0.36420690481635887,0.4582736961375129,0.5613932547899833,0.6580635385542407,0.7550081027249766,0.856613171183357,0.905033096316144,0.859556590259842,0.798175878045136,0.7420647379730819,0.7710581107288617,0.8373702708735266,0.8964978238741405,0.9736832048283707,1.0,0.9176855748050833,0.8157301999691215,0.7154814058546286,0.6211178910019345,0.5204465298362138,0.485913634209049,0.5717564488251314,0.6767847279760524,0.779955782475456,0.8640959940763672,0.8869176663926098,0.8747260365390667,0.8434864965398455,0.7801300152539592,0.7594336618058559,0.8117638974263345,0.8706993084332483,0.9261207084298989,0.8816816126271302,0.7821268804524145,0.6850601180255959,0.6022322383881106,0.6266328340819066,0.7261388718151496,0.821722120763242,0.8509906051238677,0.7951176563313462,0.7457961675323495,0.7826981027892376,0.8415849512587633,0.9075963419413228,0.9792242529373026,0.9383291734835429,0.8393979468709315,0.7369481166791102,0.6349346478225404,0.5302782075383773,0.457653478398133,0.5136280049247244,0.615589891650277,0.7135495261440424,0.8074887063075606,0.8692929170912235,0.8508664903591309,0.780438540744789,0.7253044957306495,0.7648723918376228,0.8318764241958322,0.892758869166215,0.9680271499835015,0.9649391278725298,0.8799148750051725,0.778194377947746,0.6768139140316473,0.5725079136138367,0.5057875843984261,0.5705024844128967,0.6708256931777595,0.7721802007382489,0.8580166076797463,0.879179181336092,0.8606194076878936,0.8576262385787158,0.8434859950710306,0.7850559891914611,0.7236596076060677,0.7528950670017992,0.8182280911902328,0.8817013230293066,0.9570039939614617,0.9590441344843067,0.8673989767329645,0.7626874408623239,0.6609169311919001,0.5582310081072379,0.4828921688345976,0.5366855982409238,0.6367045351682031,0.7377386942066346,0.8320851270772872,0.8747564921185552,0.8684483780425966,0.80874384833086,0.7303929887832981,0.7094992867361053,0.7762171794314423,0.8455108383450719,0.9126368279676033,0.9942071142130223,0.9937019223969313,0.8995656018887553,0.7971600826899737,0.6949268695018205,0.5899438968491986,0.4946854153477127,0.49536566154944406,0.5911123460236,0.6922015977646311,0.7917971721617696,0.863293146259826,0.8776801699945854,0.8512361960381841,0.7870490697423205,HB
