0,1,2,3,4,5,6,7,8,9,10,11,12,13,14,15,16,17,18,19,20,21,22,23,24,25,26,27,28,29,30,31,32,33,34,35,36,37,38,39,40,41,42,43,44,45,46,47,48,49,50,51,52,53,54,55,56,57,58,59,60,61,62,63,64,65,66,67,68,69,70,71,72,73,74,75,76,77,78,79,80,81,82,83,84,85,86,87,88,89,90,91,92,93,94,95,96,97,98,99,100,101,102,103,104,105,106,107,108,109,110,111,112,113,114,115,116,117,118,119,120,121,122,123,124,125,126,127,128,129,130,131,132,133,134,135,136,137,138,139,140,141,142,143,144,145,146,147,148,149,150,151,152,153,154,155,156,157,158,159,160,161,162,163,164,165,166,167,168,169,170,171,172,173,174,175,176,177,178,179,180,181,182,183,184,185,186,187,188,189,190,191,192,193,194,195,196,197,198,199,200,201,202,203,204,205,206,207,208,209,210,211,212,213,214,215,216,217,218,219,220,221,222,223,224,225,226,227,228,229,230,231,232,233,234,235,236,237,238,239,240,241,242,243,244,245,246,247,248,249,250,251,252,253,254,Target
0.9975994584856314,0.8631803888148721,0.7901329779346822,0.5210778354509397,0.393153790276606,0.6800837067486811,0.8604142417707998,0.8800029846316331,0.8662017295278301,0.7872719142076156,0.5674275097055358,0.4039275314998323,0.6652131898677469,0.8857975537326188,0.866855972523711,0.8454606495483277,0.8280992700736602,0.8093137396763572,0.5139179455586761,0.198567279653703,0.2498813291751469,0.5784071508719598,0.7676565238129446,0.8402154056658193,0.8188455588661554,0.7579856324846194,0.4549510742334204,0.16953262857663118,0.3085277714888055,0.6270002475994468,0.7804601781559309,0.8585450160269537,0.9652771385885843,0.8682930236183615,0.6141801873838648,0.25056670940676784,0.09140895393124968,0.3776607161931037,0.6644064181441516,0.7260642789582139,0.7499929147610298,0.7611198753416595,0.5519747902376021,0.19595097875869952,0.08037589781789864,0.38465007795659856,0.6498000658553316,0.7344566894952267,0.7598330887636757,0.8254166354777934,0.637852267602841,0.2805764420726343,0.15391919588734085,0.45135422040105544,0.7210623432152701,0.7868411705276476,0.8202206165215249,0.8532758797640314,0.6558276954788294,0.30219810269461767,0.21442065589761375,0.532440435641594,0.7933418052379925,0.8270392439760907,0.8512962892834339,0.8731568265006557,0.6478992125246374,0.29966119330551555,0.2581913978272753,0.5822919016102475,0.8069071268565492,0.8508328679943129,0.8481574326643948,0.8539653448032363,0.586807645228141,0.23457277911321386,0.19821625663843737,0.5105039630729108,0.7687701460486487,0.8119026884079785,0.8318270438928708,0.8488279824356573,0.5758959695042393,0.23715683835231413,0.27199768586229545,0.6154562654399803,0.7935614401902572,0.7179339370988139,0.7346973137112605,0.7720023950159639,0.5958337365833019,0.254143430036725,0.2151339728030908,0.5315442249859562,0.7723264314009864,0.8093136010427844,0.8147274686326103,0.8595399767767342,0.6105895620090623,0.2826472334274851,0.3378519066270783,0.6722329905927602,0.8563397449291452,0.7935176246037431,0.7819142452917613,0.7749641596319804,0.5393280887674118,0.19842350791816246,0.1573444528111043,0.4797099624469696,0.7142889309932181,0.7592993614997439,0.7949134477442086,0.727681353318855,0.40968390298340185,0.14398608364108925,0.3217078486179815,0.6392567626020565,0.7267459720736609,0.7720687148556755,0.8787438595235451,0.7890268990076754,0.44231102524327026,0.23262001065737445,0.47274829674926966,0.7574082994929675,0.8222973378615777,0.8232778424445106,0.829703074445687,0.6014604823750392,0.24303868829912748,0.1691186383499266,0.4901824939385092,0.7473345496745863,0.7956038990565093,0.808854370639344,0.8108432935967729,0.5450312033591349,0.23356700202277944,0.3353960862351084,0.6687324209778456,0.7977297506787699,0.7441805504045604,0.7530069520525692,0.6025265545746111,0.2519487039296985,0.0,0.20694408803966954,0.5483208845174388,0.7472335138792388,0.7176390124335268,0.44928605719146963,0.2945154894221249,0.5538784453921418,0.7929174866718356,0.7834903945364912,0.8152209080919486,0.8437341832141845,0.6228869000875794,0.4022643405988082,0.6211739831592018,0.8711389668266336,0.8564001098243419,0.8408693359675528,0.782026311698058,0.5271691763909185,0.4381222664691029,0.7381804140359173,0.876683246482703,0.874117620195157,0.8685427907069243,0.7919149544429701,0.5296951903349345,0.572667870310803,0.8797581012930649,0.9365082337439903,0.8247262761447491,0.7718598516703729,0.7165621512399462,0.4384129385065775,0.38904431134052264,0.7002038682693925,0.8459511097316255,0.81381435588404,0.7839947252559255,0.6662527638511571,0.3752269715127883,0.4209597306015994,0.7392424712805262,0.8389092527486106,0.8319662712060389,0.8829168901169431,0.8671122586396063,0.5926592570536056,0.5717690343227626,0.8638915617425444,0.895647146172915,0.857064652845505,0.856672546827135,0.7833714367417062,0.5150784368379757,0.4290200872990909,0.7168846063681024,0.8149217136911451,0.7838559329465082,0.7735054890008249,0.8660590485817434,0.6682645827317437,0.45941398925918464,0.6966247734342463,0.9222421568787247,0.8745001586476868,0.8589902664781481,0.8173867595281579,0.5706648339723932,0.3448063852401694,0.5710469128757267,0.8731114353536382,0.9035622920490805,0.8963504312883048,0.8658951538459445,0.7130343727633747,0.45247931642798656,0.6058190550838383,0.8947286952025506,0.9150737194736445,0.8838976922237614,0.8766211074234613,0.7499702038863457,0.47640452672209954,0.601161249062181,0.8767649218947833,0.8837819409726315,0.8476089515218712,0.7860507378731384,0.5717205197108315,0.42798624812623864,0.7040197748225892,0.8944078979739882,0.8109032476213804,0.7956644889776048,0.7498974395304756,0.6253257273941142,0.32563002293335785,0.3401462903628786,0.664306882436024,0.8083147451644069,0.7971570220043823,0.769211202736422,0.7289424411965328,0.46110117215486535,0.29889345840192416,0.5749308919387828,0.8719014322690846,1.0,HB
0.9995226893146788,0.8919597904544995,0.7761530976476742,0.6614213864815905,0.5470811534675555,0.43964564382099425,0.3571675534842065,0.30180022535640816,0.30008348174750843,0.34598881373278945,0.37239918523035875,0.3761597383209674,0.2873293587586717,0.17894187430984754,0.0797931620092483,0.06999955334031543,0.16821460118301446,0.2801464302832143,0.3989941513436246,0.5166987704181257,0.6351555535935208,0.7534315337133387,0.8709173177182453,0.9569673143048733,0.8959330616378357,0.7813945555085328,0.6657296149136146,0.5508411260206811,0.44281614195803765,0.3585899458860967,0.2985950444301746,0.28867519524882623,0.32315630370812687,0.3387916550831278,0.3308336991199855,0.23540466141187877,0.1228030812258829,0.030782243904804774,0.06712999474899617,0.179239141667473,0.29647943070340155,0.41457394169330675,0.5324918996339162,0.6507271008224869,0.7707519282024488,0.8866223103517906,0.9577426394081906,0.8819040584899428,0.7740568940485771,0.6602672985864785,0.5457741385431614,0.4367838086851149,0.357440893210754,0.3214811681883213,0.3399701168755741,0.3811827360029867,0.39652174138051055,0.3920390914058445,0.2988906310785039,0.18716442042524672,0.08178600025828475,0.07112282505895834,0.17397647330940524,0.29129057757025234,0.40839618444771986,0.5274805350011246,0.6465016376008043,0.7638046566326037,0.8836032255291323,0.9794232019419685,0.9409046896270378,0.8276512046957477,0.7120557930489713,0.5978614394129267,0.4868353910824951,0.39570641918042415,0.3382818642668567,0.3269569456551902,0.35926610653254,0.3252626253472022,0.29693993712844147,0.29680238368896883,0.20934156609237203,0.09729852811294493,0.0,0.023065149754447622,0.13410801285999108,0.25149358069281946,0.370883222634631,0.4878233795955822,0.6076459453040705,0.7244926132063209,0.841218522601762,0.8883094350858166,0.7968782632469545,0.682041345399674,0.5666691183483135,0.4540986144743048,0.36214560260526385,0.2935227505176903,0.2526878836429587,0.2841910970303614,0.34111290162981267,0.3640164830169548,0.33096917738551657,0.229097525442155,0.11565491544429651,0.021542357033520032,0.05258176703389311,0.16428733507167514,0.2826420860269525,0.39978355385581377,0.5184414946486221,0.6357780696507273,0.755253976529321,0.872075854484862,0.9782893039781843,0.9597434482228594,0.8486207406789422,0.7317820367255855,0.6159841891379194,0.5026347695282211,0.4015668174236732,0.3334557783463745,0.2895713208815527,0.30787411336271653,0.33632829444338563,0.3554344662016269,0.3522240345531401,0.2557302897813256,0.1438838342297249,0.05451941462562315,0.09402318349250699,0.20656613918166106,0.3237003606862765,0.44180058231085517,0.5608635801174345,0.6780809228419755,0.7980517659731096,0.9137315007497647,0.9789744852752787,0.9024525945201886,0.7934271074842022,0.6779978937507664,0.5636141494133148,0.4531109513709509,0.363078990348493,0.3045889273239778,0.2993642600989129,0.34245992249654156,0.36665053648461976,0.38405434110201275,0.3239323488411311,0.2153655109464478,0.10741237636692375,0.0816156016378059,0.1792805101929119,0.29559153867887844,0.41505152178304405,0.5318589632160313,0.6518981586309539,0.7698364909180929,0.8876979973254667,0.9850821917292855,0.9475413320883462,0.8347923900142155,0.7192355378481335,0.6037378823472761,0.49028987839143046,0.3939775143548203,0.3243709267793029,0.28930686186998866,0.32168123075569255,0.35885603333911376,0.380554987345746,0.3541988625564092,0.2510934859943369,0.1384896832339838,0.04795262989462429,0.08409120620250587,0.18885675576631822,0.3073183792697801,0.42423439846043887,0.5436464989885984,0.661072208138376,0.7797076605638923,0.8942123452731577,0.9345754382446839,0.8399126468002266,0.7238848040732476,0.6081952587306022,0.4955113672143243,0.39875064224348433,0.33239678507665493,0.30351524623647996,0.3222252598801606,0.3272431719587172,0.3582199007406225,0.3101102998924087,0.20185673824172218,0.09231133437738487,0.05532143159276515,0.14764859375655043,0.26441621370467705,0.3821315106126105,0.49970407271474193,0.618203400707582,0.7366736244081377,0.8542497563824442,0.9526612071675032,0.911807193216544,0.7988114920657138,0.6829464451316194,0.5682979901405204,0.46094406707330415,0.3767815442994523,0.3155537275426029,0.2921989865868243,0.3287791997979196,0.34770096595818467,0.35883983248075524,0.28196464342762617,0.17097509824064933,0.06499132216719905,0.05201162829680123,0.15462376334963157,0.27113402158019884,0.38854054948790373,0.5068642041270329,0.625731819805494,0.743106770380011,0.8577160233160165,0.8745711800234773,0.7698250656200333,0.6535629444512402,0.5386070162199887,0.4305033325095041,0.3495388028239399,0.2981553745242247,0.31269416504090364,0.3650826269203947,0.382757938607436,0.38408865739558273,0.3016666327132411,0.19001015436168484,0.08552415824295645,0.07877966526067776,0.1825586886443063,0.2999060270650634,0.4166324663337658,0.5365405383347134,0.6541956041660032,0.7728088507712735,0.8927349826208207,1.0,HB
0.9974619130633171,0.8503782260298511,0.8632051237632543,0.906015246338532,0.9665047953338364,0.6582819320856357,0.6071427192818315,0.9630706227144479,0.8897150012376638,0.8502042113485035,0.8295667461271881,0.8696009354202932,0.6033606846691992,0.4041951175861347,0.795451555262719,0.8741085587969322,0.7824183035177541,0.7793605201692679,0.8031873198857269,0.707029792273026,0.37648658573525684,0.6239513321788117,0.8841700333794476,0.7642208326297644,0.8161165939005535,0.8213640440945065,0.8373675075025881,0.5616488366433667,0.6745982527240748,0.9999999999999998,0.8968054937458871,0.8496966290386971,0.8684538359548386,0.9061690993181812,0.6099573551108204,0.6686747854573183,0.9970704861567901,0.8908211931186967,0.8886696077647553,0.8908365833500576,0.9231532813691989,0.6301990441812861,0.6287756212267948,0.9722780268904339,0.8833942147956584,0.8803156497497364,0.8554900867604436,0.8989277175063537,0.639669525429224,0.48987603416332814,0.8653196240462087,0.8397825776530883,0.7800198497834991,0.7640091244727254,0.773808426110316,0.635034923164576,0.4906645875914355,0.8354465853613828,0.8423355258485452,0.835875263415917,0.8702928936619847,0.880956736308854,0.802383314515241,0.4812151619812952,0.7315232570759196,0.9285719227937548,0.8960864143370213,0.922275252785328,0.917421794410479,0.8503027122740143,0.5599442927838376,0.73583776165509,0.9370880701699453,0.6833506213389693,0.27064682910617077,0.11774756153992061,0.5142697147951696,0.8178183825600052,0.8077300494441257,0.8365298934780256,0.7937654617948702,0.7393539851867963,0.2714829956674092,0.10264108399306582,0.5484458103069454,0.7959216632001713,0.768579515214707,0.7654312594740011,0.7097642473421171,0.6047039416489988,0.11669306182185002,0.049987653504992346,0.5100911359572657,0.6868343570610504,0.6702043772887432,0.6876216107159154,0.7000920078631057,0.6476685473264785,0.17163561360056256,0.13682888207075394,0.6081386353858587,0.8006560804202432,0.7736005448210543,0.7797798360217032,0.8143846843465818,0.7214994086390367,0.24533688285324406,0.2268889069024429,0.686291702618022,0.831493503892436,0.8002764445974304,0.7850485638567226,0.8634688505249242,0.6361080258399361,0.18561409433469067,0.3740559531105787,0.7836273601694541,0.7889814048100028,0.757530867829552,0.7817547136876992,0.8289459616243515,0.43868610551803355,0.10512200703137187,0.46033137941624247,0.7571416209180011,0.7341937461989609,0.7278373177032111,0.6645582472674672,0.7009532867029453,0.28573219573864983,0.0,0.3931370518414261,0.7116626430406174,0.6845545511973012,0.7081419316132778,0.7208750839684426,0.7411882392433224,0.30482535778712916,0.05913747384678247,0.4735329214505277,0.7744020806854206,0.743324895917296,0.7607032406048699,0.7793985982480904,0.7519960403843509,0.28417552434010185,0.0886187997822041,0.5330960810822798,0.868512949619044,0.8031934065652557,0.7765848429246527,0.7487253777939367,0.8450468605875028,0.5488186059738769,0.13000311883952387,0.39615331541780385,0.8054779631068694,0.8214345314751148,0.7878350574016124,0.7630263575885017,0.7984838704382102,0.37923199025927223,0.08856548636987438,0.47343227398526966,0.7613074252001761,0.7378786123790471,0.7636551790950075,0.7378063081167079,0.6547137784897485,0.17411504708007342,0.0705014804765518,0.5328836967524162,0.7599245654755913,0.7645274418450769,0.7788127127579212,0.7794950083725871,0.6602574970026922,0.17471247115149535,0.16378735366457664,0.6138474056450398,0.7183253118747033,0.6780252316923112,0.6785086017212321,0.7487980599985928,0.5920079771161688,0.1230245022769405,0.2319745161510649,0.7046280778285305,0.8436898431272166,0.8115447409824996,0.8043063392278815,0.8782860265486769,0.7583475663867267,0.2828469364872581,0.27586647234348827,0.7350484246897977,0.8561576236544284,0.7509419367070735,0.6970889760510033,0.7177356647091166,0.6225290326147848,0.145613535080505,0.16801853332050798,0.6306983141403704,0.7676636172709206,0.7305765517550384,0.7666673109134539,0.8283948755526989,0.8125063260451444,0.8702164120179463,0.6615313776112222,0.4902207083011101,0.8483646636510496,0.8402138871886968,0.7872054998196176,0.8357809043322109,0.9498866557160881,0.8764661788489814,0.6006195053904873,0.883805060194063,0.9838729284894778,0.9023796480993289,0.9020109530026528,0.933844909879763,0.7632249680079177,0.4257033579476639,0.7093601650320489,0.899101274482718,0.7637286685884781,0.775218844646919,0.7788864577658996,0.8103687952867331,0.5091596174679285,0.5698286485275326,0.9039338709681111,0.8616811328185412,0.8838097586523663,0.8424720902853708,0.815239026865296,0.5065096859700842,0.6102267689418286,0.9060407978437157,0.8420273140956562,0.8527704843044963,0.8366257135738959,0.8306871696894935,0.5674543363348328,0.7467448736827096,0.9621219176236775,0.8562594580112715,0.8815513265677215,0.9310302097468506,0.8790297774396156,0.6118981082364812,0.8642016400905901,HB
0.9777674038219897,0.881390250334189,0.8929392579376234,0.9186581136553289,0.7900666710213258,0.47234399310445085,0.7124880700096132,0.8863213665784693,0.7861490508278464,0.8384869253950016,0.887489752500564,0.7220925127609013,0.39917343091946433,0.6385634051705327,0.8916351674825715,0.8262386068012044,0.8987081013331624,0.943619507676841,0.8232395968176782,0.5491610732421448,0.8177274124395018,0.9245927559251808,0.8440466674869287,0.8384663209810386,0.907621811210189,0.7319095448014583,0.4929136551075055,0.7814601837109851,0.9029295979954635,0.5810812580291984,0.14731459082144172,0.0969792024633298,0.5241160931271878,0.8382170339469168,0.7934167497267921,0.7888621269027569,0.8312289816444931,0.7240486338514203,0.258128682608737,0.12891452166189932,0.5572476624687401,0.8843728722963955,0.867934023656316,0.8100441685093607,0.7815070126014363,0.7158427141241768,0.2564285868433205,0.022875935864985153,0.4085944397503489,0.7970151776010213,0.8156454648437796,0.7536135698114039,0.747145516943087,0.7371413740343056,0.3026731486356462,0.08567330581179189,0.4787641312772437,0.8419146815254261,0.8375528661718066,0.8359529054008163,0.8600591486453997,0.7931595283215396,0.3536891272118108,0.18777961332468474,0.5998259564311632,0.9272658549861046,0.8590878488308797,0.7697646062424746,0.7707752081470525,0.6312441250478598,0.16606785536508584,0.10655732878920032,0.524368982908668,0.8233598039666841,0.8038685840377118,0.7617759003633366,0.7910591700420126,0.6545903553560699,0.18848847208911268,0.12196891147217548,0.5668588107472694,0.8446760361252241,0.8191581938854271,0.7817256527581353,0.8249854805615322,0.6794618505283445,0.21667144951451278,0.17974758562862636,0.6289747306494196,0.8745212212431293,0.836839776008822,0.8073514505433346,0.8351562876246204,0.6536899122969171,0.18404731165117427,0.08961736654984609,0.5263166437960936,0.8288449809417235,0.7964826680589661,0.7713351726265636,0.7884011075047601,0.7672454761293401,0.33953793757229955,0.08962225335261331,0.43777800993860994,0.8260497180615036,0.8361998468416902,0.8241865206320087,0.801255736416673,0.8379679726515918,0.438810441266422,0.11584533552710818,0.4294563975928507,0.8321705140670512,0.8500693341320982,0.8261519787185794,0.7560963505488949,0.7952061620014264,0.4199853646323872,0.025532373231980876,0.2520181616730086,0.7082632051951652,0.8225251961435167,0.8083130632549962,0.7725857727372942,0.8257270071114882,0.5675770708216574,0.1283356103198281,0.2501296422620831,0.7080193894243569,0.8625774303363996,0.8100362314883476,0.7828655868747325,0.7862620077489095,0.6396656939657317,0.1742109365747957,0.10825277622813678,0.5544517900814068,0.8452626172645434,0.8253140536206074,0.8261671324613855,0.8444414897077477,0.7877572042219807,0.3358529243397588,0.15467592958153253,0.5613891265289992,0.9006192368858588,0.8606207630478939,0.8045150835426542,0.7594226085481679,0.7491061367515268,0.34975074917868554,0.0,0.28311154120118265,0.7279513054186211,0.8100077059910826,0.7956881116175942,0.7421459630323748,0.780864917925493,0.46607160910385903,0.060987278567844694,0.2615974502052574,0.7205137416727299,0.8563052700203235,0.8538570216087897,0.8993106398083046,0.8876079936705232,0.90306374153702,0.5876724504920896,0.5081789822536844,0.844110348272596,0.8265865692525298,0.8302046202805597,0.8475017073394273,0.8810885351227484,0.6004094845445493,0.36024254006181855,0.7108721948370951,0.8702771430751322,0.8205283384633535,0.8911668680738749,0.9679599598220299,0.8118111147908842,0.5970800532561886,0.8991710316545611,0.9266428263816711,0.8782216710100188,0.8810906846996385,0.9011113961670354,0.6717440606439591,0.4284707423658558,0.7526117669581496,0.8704329670340201,0.8327058804330552,0.866058497078698,0.9156988002765929,0.7642048614881709,0.5729479244317777,0.8686282386895241,0.8664927911901035,0.8481706412997119,0.8520273519281414,0.8913010044856358,0.6384185302868102,0.3553173693251581,0.680993435395719,0.8995659395665248,0.8268642717325905,0.8832719606776722,0.9239379854367327,0.8130479715610133,0.5005419756232992,0.7493607519635979,0.9555829046945932,0.8561866779266778,0.8813026942061926,0.9209696811163359,0.8603647155358105,0.5197153725532218,0.6469842918376127,0.9170624267897005,0.822962889555306,0.8374172861073124,0.8676676660501721,0.8426907977061395,0.5484925462848276,0.7272176196257936,0.9122431224076528,0.8663545617181134,0.8853506457616955,0.9245600504358282,0.7498856708855373,0.4677910404417984,0.766570677058855,0.9213548593871148,0.8319835357456724,0.862611213055164,0.8976429753120845,0.7141937245936909,0.37540253367329535,0.6253853575009114,0.8974732638744545,0.8164403268783573,0.8457707417880762,0.8788882926078014,0.7497043853600138,0.43984493279242165,0.6907026230776145,0.8720490385695376,0.8161281492487729,0.8918352487229453,1.0,0.8218053140113948,0.5784877074536601,0.8656825082241204,HB
0.9529572076763457,0.7556059775730295,0.7120739516788086,0.6184734089777957,0.6090556323188479,0.5430957518580233,0.6093507728079881,0.6649183938820606,0.6835850919355464,0.5255446145878502,0.5241154945714246,0.8364126275265449,0.7652997708283309,0.557219655138973,0.5834036616846812,0.6225242143505951,0.6505027626238087,0.5004318036147868,0.35673805115724266,0.7126731858877127,0.7162282934098279,0.6958121432725612,0.6969457433344475,0.838383038386415,0.7293787407236898,0.7691869975345951,1.0000000000000002,0.8567628646637393,0.7689509258482048,0.7221885659656768,0.6815870537196262,0.6372299003732291,0.5827284943285889,0.6072264936756022,0.6385168742374774,0.547860142854703,0.24040227332458008,0.5440423252472082,0.7420660124021252,0.6474954897427658,0.6336540127018597,0.4821697581713018,0.5633149186055675,0.6108377547190875,0.5842767858964291,0.20663537987218672,0.0,0.37586466998505386,0.5548843352230783,0.526230603044284,0.486740445226155,0.3997815914150371,0.08434481280170525,0.31707545609846943,0.5480727140821975,0.413872087618979,0.45774050528084964,0.47058848218553906,0.43061305736513344,0.4894101728289695,0.49419210042736217,0.5481153818746016,0.5719484986778636,0.5224080279025969,0.28082293966124294,0.5906033817111058,0.6671690454344306,0.6151738572773169,0.5994807180780055,0.5095234770442885,0.25471500594925334,0.5117268416739338,0.6402269453690888,0.6179165143135374,0.5927717775972383,0.525005298714359,0.31478827137495347,0.4898285598468297,0.6326069608547373,0.5522952521224747,0.536697889192628,0.2993623618786547,0.3761801626367516,0.5508429149895744,0.5579808287295658,0.5544432374065906,0.45029610452814217,0.6619369669041915,0.665415173382953,0.6303019099914635,0.6017784321719162,0.4624046392027841,0.26673216688983925,0.5827827135127739,0.5895694467207628,0.526045222959006,0.4735230013373892,0.26673727170322814,0.36732028862799804,0.4492218326972306,0.4436345454878021,0.34955128550252357,0.20798104900107384,0.4671378570138789,0.45679488664064904,0.4605614983101194,0.4151187212287766,0.25615639330341344,0.5477310065071668,0.6234107928958672,0.6295047012668185,0.4096937736515607,0.3677591598074008,0.6126906873728879,0.6091457940717928,0.5876677707351414,0.5506332153976519,0.30837784621558906,0.5239225423717604,0.6451490276891698,0.6038996967614663,0.6009751992141814,0.3922352172903085,0.13563165109577047,0.47845999897598657,0.5952498576504828,0.5965771769583046,0.5121718063035876,0.2773077161429274,0.5075872330121249,0.5173420716459567,0.4871734914684265,0.42094571749625964,0.2682544857782958,0.5053810169117814,0.47511510850339156,0.4844653132837926,0.4941361982729042,0.3023987631295577,0.4672663365682699,0.5739676094298833,0.5929072176797907,0.5425442779947114,0.18399066531948827,0.30071609151241385,0.6197529832677724,0.6342219722504907,0.6035749377337181,0.4981439263820715,0.3533215904998801,0.6250684358393455,0.6025951391207884,0.5763579777693935,0.5264367838194624,0.22557568856835686,0.3557592789457489,0.5771514391033266,0.5935540865913957,0.567353836712831,0.49119591743588775,0.2979457009292965,0.5722949900982013,0.5676837062527385,0.5366827979867426,0.607484336124352,0.7734493625073091,0.7529326360612407,0.6834056426135524,0.6401765682714011,0.6645803501799878,0.6642436281399513,0.6803012719849193,0.7069723753011685,0.6505827741034265,0.6512075693996404,0.7757495502781937,0.8314604026049477,0.7166858311478059,0.6709087838479648,0.7041109361867284,0.7036452373636688,0.6044183441497684,0.7288356218713059,0.674608217237046,0.6544573587672737,0.6657524009769611,0.6548739591220374,0.6571300390657615,0.5648729481905292,0.5654954769199432,0.7889818627981906,0.7055608373785864,0.5992834452767768,0.5656766570139766,0.6052628605203918,0.6630816906940618,0.7022077813980234,0.7179410415099736,0.6804161952737344,0.6935476296892438,0.623033515203107,0.6892410377782758,0.6842089905021671,0.6803214748511672,0.7767805873308495,0.8879372760173461,0.7363571169050249,0.6863954742896097,0.6667882850355455,0.6914650380950895,0.7224183515763947,0.7689014278228903,0.7114573866113483,0.6939239382430549,0.6133309887811038,0.6380424235899518,0.5495786376523133,0.5277051189278923,0.7349746235366565,0.647080792807756,0.48050500108331007,0.5123190307356007,0.5353600828955554,0.6159336640472393,0.6827100513060953,0.6607762982291738,0.6177349801764123,0.7020061301832514,0.8753084375275033,0.7336058896235678,0.6902904682798259,0.6954799136305556,0.7045238585253466,0.8547376127294581,0.9370568154554377,0.7211904018921962,0.6313187162517908,0.6156861024029292,0.6009369779911424,0.650668679290251,0.6584610868190548,0.6388737841703442,0.8052224835236939,0.8932460393848982,0.6461000365308307,0.6343372412216566,0.6763823353017171,0.6804837278096969,0.8045287206193759,0.8634044579398783,0.6943454978815893,0.6729218845533891,0.676159965624201,0.7229573501404405,0.9398849100698958,HB
0.9265022778821135,0.7361604913988535,0.8423296087571801,0.7308456603742557,0.7398298194357396,0.8240391990147513,0.9047941940126591,0.7292300991477827,0.7864875066024579,0.7074916480659263,0.7485290031320777,0.8600938278962622,0.9208917778703785,0.7488905125152936,0.8158150789707377,0.7196259237322411,0.7438677193220631,0.8470501406568327,0.93348047405757,0.724807201483296,0.7999114082419565,0.7255567414838073,0.7197762165687167,0.7673354384282152,0.8570145809823217,0.673655852763333,0.7070042461823518,0.8289549733409607,0.7395952411694786,0.7804656209713903,0.8777259189701252,0.9596162130889159,0.702593492162086,0.8396339287988761,0.7799483115517396,0.7522884479437923,0.8049828229947393,0.955295003865611,0.8755590014555059,0.7413759614454847,0.7585803914819627,0.7038139274984316,0.756115992999689,0.6486530230235683,0.27253078241346707,0.2694332798219907,0.4152847886850255,0.49464875060101754,0.3870035424329279,0.2096443792235978,0.5709750127312496,0.5445739061829764,0.4636257772330863,0.4902105833724235,0.5746051698419707,0.3531752432964286,0.5061775439744691,0.586414588518271,0.5061352852980803,0.47229622256747117,0.5467588482745982,0.37633155118847084,0.06842905262130916,0.45549938495077,0.5309919353497379,0.44487762933059205,0.4380315314501333,0.49480750395557127,0.408372410688028,0.2005654747727963,0.5973789402831877,0.583592585553188,0.4762184503110598,0.4439610331395407,0.50254754647053,0.48428347209132605,0.11975094858576307,0.399019163493588,0.5683873183334684,0.48511172844278194,0.45122513417877963,0.5218372372049824,0.2352330700778773,0.18263428673282434,0.5428568494392838,0.5092620981010159,0.4518768667715345,0.48461590725819415,0.549589920613867,0.2621975146024971,0.517086397672438,0.6179994579906434,0.5073000053530259,0.4603433681708995,0.49075893379271385,0.5205171797395658,0.18347818794428772,0.4296173149008249,0.5543814145364121,0.46329654059078207,0.41621177478622373,0.4924781991640672,0.37492211414589294,0.276286146079729,0.5588423023388036,0.4973164673796213,0.4533687929827641,0.4566454593294189,0.5718376742053835,0.36772230270069484,0.5331565885706131,0.5779170535165354,0.4959689082957728,0.47549173316523596,0.5643968480485082,0.3773677318156605,0.15145126686342092,0.5342535162787274,0.5403853645289756,0.43347998205754656,0.43589507237650293,0.5348938937663728,0.32958661392313626,0.49759694517483366,0.5856480765267338,0.5077059379222146,0.5158022601169798,0.5659844741187934,0.43556467362561424,0.2835847574040553,0.6190437551333452,0.5270304764323104,0.4679312305263825,0.4523250225827824,0.4984090148339617,0.3950886822155142,0.0,0.33413149314944457,0.5635297770794341,0.4981660258265248,0.45785402042506806,0.5250537723713804,0.47755092076729033,0.20701568537430637,0.5769152978224654,0.6208598037804691,0.5108446280749286,0.5005095131912434,0.5453625701294178,0.4849020021121886,0.20634999056539272,0.5264149809874277,0.5600231376766289,0.4742518819610315,0.44669045239469796,0.5547918185751004,0.3037400939179866,0.12495722425398315,0.4979157594047745,0.5034057057402652,0.4497350136154554,0.4790296722919347,0.5214427552561833,0.25238008643909415,0.572291333345817,0.6777724453892384,0.5165782676199426,0.463532743602427,0.48516356195230737,0.5609809118726741,0.1837851343483634,0.15384681385724575,0.5526778878521932,0.54277745067033,0.5708972746005254,0.7411227810000232,0.8585195444606359,0.8687749325492282,0.6768804916916595,0.8322830074024954,0.7375659653479234,0.7264100441116836,0.7943791998364382,0.9399253219973778,0.859453521092624,0.6910011539831538,0.824238536473898,0.7315161998822632,0.7261407046163413,0.8100112920764428,0.878336227461868,0.6195694529946993,0.7703114869172007,0.7685572477887819,0.7380463833917821,0.8112795189930084,0.9476591986616958,0.843240451814355,0.8047735899549364,0.8042964686553127,0.7703823445788736,0.8135856548341076,0.9332945868057436,0.8179970737923044,0.7430463690902362,0.7754265692423465,0.7099708525552204,0.7692730556273863,0.8438499594709161,0.6538081931573521,0.6835740918207467,0.7340717529120284,0.7166260527154247,0.767885883118351,0.854270489966011,0.8865808861178612,0.6923900774984624,0.842341306311944,0.7712224064542843,0.7702346453757913,0.838435593513982,0.9601507168827066,0.7589801807177166,0.7293286685042379,0.7515956841304652,0.6998662418371016,0.7630447995806313,0.8575863715313194,0.7156534852265386,0.5569575588349513,0.8293638539933892,0.759883084592405,0.7583825772777781,0.8402575162214863,0.9746227625070456,0.7470361608414549,0.7484945212974758,0.8097018423330673,0.7433045089234542,0.7454470292860624,0.8697577394672154,0.9473515409000135,0.5865046305176178,0.7272765400770891,0.7327495950078506,0.7003993467681777,0.7722509842697223,0.8740495110771747,0.7298571388531978,0.5464427147331499,0.8209231007995212,0.7512672785789256,0.7515472419276081,0.8390705653605375,1.0,HB
0.8404615931873001,0.4164259764815199,0.6214973243471134,0.8011732813339205,0.7538261510166961,0.8177436070720989,0.3732877979613911,0.5359216670762135,0.8062654323877272,0.796192675790131,0.8287450872984481,0.49483480655837075,0.6312364680775064,0.8675397270498828,0.7742304620495819,0.7277284920880929,0.4691300574734578,0.5142828236460688,0.6465325912421509,0.6537422049143942,0.47644559921433727,0.5191392546254003,0.3970417616732429,0.5567840968106417,0.7923889030881357,0.6735895942850889,0.6529144777220064,0.4557844404625544,0.5998112805284146,0.8487001072448028,0.8354580719894593,0.8253967170153782,0.4326524111361416,0.5147306266621623,0.746493250113017,0.829090776949803,0.786403732158039,0.4014209276442342,0.4387726531958158,0.7181209233139518,0.8349689323532279,0.8561149630851199,0.45875468038195377,0.5480921415134987,0.9126537464939322,0.9388301125460372,0.8901931069370188,0.7075867129373759,0.5697037909440059,0.6802328828546114,0.7841448363658277,0.5332025918486685,0.5990105429539434,0.3641505510007752,0.5175742416261975,0.7557847535731237,0.6408922836236686,0.5635673635400553,0.4491155297136271,0.48420093748801785,0.6891139294096531,0.8763963328144215,0.9092473996754689,0.5162441177403112,0.5167627832512256,0.791493872274359,1.0,0.9728115954915424,0.6923878874623055,0.47370657891332657,0.7021308252251481,0.964391299710655,0.9757579892835753,0.7482911096345508,0.48134672933373013,0.7011209992055285,0.9359836500883527,0.8519806271804433,0.6364620743251357,0.47355138485235315,0.644054649355581,0.7980658600867487,0.6410948286043485,0.6002309205528609,0.43971534011086844,0.6292210581876967,0.8280240519675881,0.6750540280623021,0.6767323145079147,0.5749475549221135,0.8043159258494192,0.8249242359090458,0.5674626417856952,0.2706115474673769,0.41739566627594993,0.11720479651884741,0.22920090264910087,0.5802493651970204,0.398449248285226,0.25946591300568755,0.21304430218799997,0.3170702166823429,0.004937588941180238,0.5103315411025795,0.5677347894723699,0.3910073349981258,0.30243077036377963,0.549473132614732,0.45414015540500063,0.7816801378717453,0.5832272437569945,0.30979083569986265,0.4458555308364853,0.6017301182885912,0.5014583817237948,0.7724665979203778,0.5131302333617294,0.24775524565827833,0.5820175673629979,0.4373320205724558,0.5924792931459786,0.8147716583914257,0.5262819875780105,0.25939520303065633,0.5851437622718976,0.36366060308584913,0.5372742756286955,0.5905355552928522,0.32658068225501236,0.17556354646115935,0.34682359296843934,0.01982584075596172,0.4196757601870216,0.4261109908640579,0.22240558789744647,0.1324106356812944,0.3045625682879498,0.0,0.49081639546504796,0.571682192735727,0.394036654881849,0.3942579191079423,0.6172074691372695,0.558138258458774,0.8400204470898038,0.5802754132991192,0.22726178524255713,0.482911625158545,0.3000886516036294,0.5116872866275459,0.6086207130178494,0.3113635403441184,0.15381310299245454,0.4606997104907946,0.20350161864116822,0.5871633772546243,0.5376475202762414,0.25687338302617757,0.38992676210919264,0.38713563474537027,0.36092144353432465,0.7686041216344948,0.5398459554767943,0.333103700126375,0.40249310962726437,0.2933402008244723,0.28900781023029687,0.5592280100390981,0.2991182332201303,0.1496913351978546,0.22103105819022328,0.1639557748999252,0.18773319450812176,0.5171425328956811,0.3103274520408177,0.24459620528655268,0.422534852765982,0.33860345969878214,0.5846037765921475,0.6954157308188549,0.44055933288992577,0.32300615755744877,0.55462314323632,0.36704019705752966,0.7030692555864113,0.525387760575541,0.1978448588426538,0.38924213059291457,0.26453733737841256,0.2531112320081905,0.6722370820265624,0.5203997001135439,0.21252780853920683,0.4874669591617753,0.5083983383703568,0.48289467705114486,0.8035072735189734,0.5586177873508014,0.2002268272033927,0.44220916324282067,0.5404773627604196,0.35335487649635766,0.700476950612968,0.47663221913106524,0.28644857546409375,0.27263578956173795,0.27611313304626384,0.24869810434110784,0.5430874106945924,0.35199627465781935,0.2056257249400626,0.3873771770511767,0.15574550464725379,0.5347844238733912,0.513552723954851,0.31324742125805205,0.36126890694635483,0.45207147116239765,0.4687955922038607,0.7132092268324284,0.4379168456407374,0.17199883686304407,0.49872989106120613,0.2480559231064583,0.5672518980126355,0.6914944166815467,0.79780832369998,0.8380944462538507,0.833079861451393,0.4056079056974222,0.5392982065881133,0.8098687921401053,0.7930704848700274,0.7947373092186747,0.5311502340328671,0.4853861491004481,0.7116035229979039,0.8602602684253613,0.4604338981763072,0.6493201923632141,0.4610209486437271,0.5395913666184606,0.6800132660840936,0.85577550165188,0.6675617862094643,0.6601853565997686,0.4481899355004053,0.622728847030448,0.919248879175099,0.8947714799969138,0.7116455960266048,0.4295599046658749,0.7062268784993373,0.9490895300658169,0.969835030600644,HB
1.0,0.8407659972501246,0.879021827509172,0.8681124569683781,0.7737627230467131,0.5350669779023772,0.8043121112481176,0.9750737762808165,0.8613676247605108,0.9342990269741666,0.9438349537777176,0.7818543822997636,0.605791611589711,0.8635823678696325,0.8236378198503097,0.8025297064977773,0.8754070654077849,0.8145978560338768,0.6135019849355213,0.7752971175874216,0.8967696338799999,0.8243474067488598,0.8662528516271993,0.8448062968819686,0.7140099673252612,0.7616723173685888,0.9827548756399193,0.8716459783066212,0.9109917135117619,0.947010983702275,0.8274286007394124,0.6501570883396296,0.927408481276729,0.9195369420825054,0.850408213711536,0.8989268361409856,0.8807959387939667,0.710582929581424,0.5489190824316131,0.8664480321171283,0.8536082175712599,0.8250830241678299,0.8953071817594015,0.911588289377092,0.7903384351133739,0.6295624379511874,0.9334711503513445,0.9278936899766065,0.8851532034073436,0.9175236048719099,0.8115207423638512,0.6342220846168994,0.5636861926004749,0.8254142173213203,0.8050133109632126,0.8564007735923554,0.8614789292181183,0.8156210073860292,0.606730044755485,0.7714590466574137,0.9150388216928181,0.8518023341151703,0.9118110632877808,0.9332219117720807,0.8036927288318111,0.7641819469753851,0.9933934713793929,0.8651294862189493,0.8677331978791268,0.9174059256926596,0.8995096289793097,0.76370506147694,0.6292602914847881,0.9065930549620608,0.8733508883420377,0.877368570484549,0.9291699760089013,0.8830494265691408,0.7176034919626441,0.7401127425769968,0.9315770107408577,0.8381134164082903,0.8227110096850531,0.7970405686347651,0.7237643148689744,0.5453150998045936,0.813104227339691,0.8413986726935704,0.821296006333538,0.8934735022935095,0.8662923429896477,0.7058186214840442,0.6759386553699912,0.9442185038257921,0.8677177559969177,0.8911847997495891,0.9340146418970549,0.8736570774179552,0.6813892264298901,0.7088803583574442,0.9306485559020442,0.8236555783268306,0.8429083833672618,0.8711373238945436,0.8318650025767157,0.6184267042974879,0.8085505801147729,0.955757825749545,0.8576056969083569,0.9053176650045326,0.9108889185607668,0.796751284177578,0.69931540750918,0.9648718496608658,0.915199205862821,0.9256129170557675,0.9129205949480407,0.8047552447473946,0.847843756552969,0.6041288831160058,0.15422581644269806,0.2717242221936481,0.6947611124505041,0.8283510004013618,0.8175093729572146,0.7682917971826401,0.7947392947822317,0.458052300848086,0.10730596552979843,0.4009302580405988,0.7407023420714592,0.7886171400371486,0.7593981187526054,0.7275297160117632,0.7703622871619095,0.634966710567657,0.19889923040065038,0.2651102054564626,0.6617628208244121,0.8104660563246567,0.8341132589850556,0.7872010930281522,0.7885989515048147,0.6649866053520158,0.21609326311989807,0.19562175860207132,0.6150665989139666,0.7799655415729724,0.8005053436058428,0.739715342480788,0.7298243902070148,0.6884004422309434,0.2439529890173705,0.07582806437763179,0.47904143570531377,0.69541341784238,0.716334604871352,0.745736147306921,0.7467907612585843,0.7475634507452368,0.33881226576636114,0.18494525206141932,0.5803216394606653,0.7882244110167725,0.8480994605475641,0.806726049610852,0.7533183576072279,0.8034414189300204,0.4721841213921659,0.12133861819112168,0.39565763552565014,0.7429255786024408,0.8296006082748747,0.7994864234148954,0.7471385808394647,0.7910098828653765,0.45162161609058116,0.1700211027798394,0.52700828132191,0.8295002615538688,0.8501428618622869,0.7995391759289888,0.7651274063941395,0.6846468819256283,0.2392061342099855,0.1651436833637402,0.5795848979754527,0.7692951775701228,0.7769096630139868,0.7458149369419563,0.714165515301492,0.4942235151203408,0.06715515641930392,0.2116287563118321,0.5985338812021229,0.7579859447532235,0.840282556862317,0.7862242614404146,0.8231025154849442,0.5681032659314594,0.14781836261096737,0.3268918601249581,0.7297506738474485,0.8242697776798965,0.7809615576418242,0.7134121381856368,0.7614089029865788,0.4409309680184571,0.0921480657105126,0.3846972332317623,0.7304535547558854,0.8051561168386304,0.7810349926414067,0.7630529377382335,0.7612193172561282,0.3392461280489566,0.10493445440739835,0.4925104805521642,0.8077611282239839,0.8637345501006005,0.8050650100285962,0.7931633700307043,0.7133781987037394,0.2635375548056508,0.14490682730869142,0.5499245434071701,0.7464592282657,0.7860118182353596,0.7438459501363447,0.7659362974976401,0.6405056159292942,0.20072709812778278,0.24084088127707404,0.6406633605279325,0.7785163670131287,0.7634992109153739,0.6778651016432006,0.7544443643358102,0.6271006198587933,0.15856766669973033,0.11018629840929572,0.5593244179602505,0.8248378578541792,0.8659512284146972,0.8085399937489549,0.7561559132732499,0.7197902234412089,0.2967202098017284,0.0,0.3384882600782041,0.708235398497331,0.7891512394436523,0.7810185309934458,0.7498238665370293,0.962125791025321,HB
0.8821090076581264,0.5538138582122265,0.8450175238289392,0.9268628362286995,0.8882474123394828,0.7929705316303544,0.9274108227232603,0.5808930832789931,0.4137100492908268,0.8156418194020891,0.873820663190191,0.8340899319835429,0.8653412409904373,0.8495025617555401,0.46316476194159595,0.7219119168840575,0.923146677055195,0.9163180830898678,0.8614970878475541,0.9610006451579456,0.5849052501752336,0.5825065710537829,0.8845013280626093,0.8673788226909251,0.7878075988987652,0.8194786625792925,0.7297572540663428,0.363621759202146,0.6676772917800844,0.8076722623966806,0.790702689956857,0.7419969773045256,0.8785295808636322,0.5561446600589757,0.5332305511616355,0.8660664214637852,0.9323577370501632,0.8817767551263498,1.0,0.751813195497165,0.5493807492091807,0.8875110863619029,0.9325262518642097,0.8673333808286272,0.9043318676519903,0.8368329931089131,0.48100939585678604,0.7475486355769241,0.8743993508133285,0.8549616346037952,0.8810465481938805,0.9039114275300117,0.4407354928463356,0.5043800372967657,0.902231545596829,0.9280247473433683,0.8101568191970654,0.8655534443106774,0.8138073403607362,0.5183644646843117,0.8123707324233216,0.8463531252815333,0.7850208460652568,0.8480073054732418,0.8032568262717259,0.4227337568183407,0.7082783094045486,0.9026945943242866,0.8907840377446856,0.8378871578602718,0.9556623143095884,0.5837820379345446,0.3371706471923128,0.759738000529536,0.8550522340868922,0.8453254194519633,0.8124914551451452,0.9165149982904452,0.5246047453151261,0.4730600262814426,0.8364193322509039,0.8631599664289165,0.8253695130335186,0.926945386596179,0.6609101989069264,0.5003692882696025,0.8646487115585373,0.9367396224873406,0.8689288728625413,0.873209175173228,0.8242329927446814,0.45299570929834965,0.7403576877234981,0.9158581648731339,0.9326164816608089,0.836833016215083,0.9534768471189601,0.6814697019771074,0.5492439996993597,0.8221900755782343,0.8437613482496031,0.8346339115432526,0.9199009951644688,0.7151087714611197,0.3806808429398254,0.7574108775819401,0.935586161919189,0.9146641905991477,0.867815669239659,0.9525866126530405,0.844044586434046,0.7460244799253077,0.27854407025337813,0.10554347479724013,0.5869672901870482,0.845403520352904,0.7307616758156441,0.8439698878564248,0.8323615997870806,0.544924197401218,0.08520735318484851,0.40670218524142854,0.8230876741164006,0.752095841847495,0.7658213437819779,0.7328326980614568,0.505428448451557,0.05100008022728053,0.37495327433292114,0.8425100589289176,0.7668580503786706,0.8330706125123326,0.8178609912717612,0.6978290493110002,0.17489441825983554,0.19989998062192615,0.7302187635775668,0.7836404993035129,0.7886981228445822,0.8325838203091056,0.7854560672746751,0.36172110626943965,0.14804672234697347,0.6535878352291125,0.8286758492938264,0.7606835872023834,0.786360843004966,0.7265090402954821,0.24573097949894174,0.0,0.5051062416060026,0.8312394812582915,0.7003579281134926,0.7698356668429325,0.7523536938530708,0.5172295406145642,0.07211515260510137,0.3970493743429322,0.8397274798050014,0.7413578237784111,0.7966927785954292,0.8033312780205093,0.6337260734798655,0.140872087479881,0.32982078253034075,0.7868583410503285,0.71082550384769,0.742299943251802,0.7674363465629206,0.6033690332487431,0.13726663538583783,0.38902812259544417,0.8241319544015964,0.7230739718504315,0.7864897631940595,0.8353552540517524,0.717972896678849,0.20612393939774276,0.20253566058312988,0.73795002110452,0.8395890656014644,0.7497556519828925,0.7944091315264927,0.7425561327609045,0.33761789723903646,0.13244468750052896,0.6402388217350312,0.857392917910651,0.7613558146016794,0.8503707352908862,0.8186622993790338,0.5354711223755488,0.1331455751504924,0.5274625599013294,0.9043107112723829,0.7949659362855885,0.8563120377138347,0.7980284387248675,0.5449834929179207,0.07352986176987719,0.36781721587804905,0.7824810659770685,0.6612064485016362,0.7128874259469349,0.7146699654250424,0.5584554292882495,0.06817826712379715,0.26141974938996726,0.7254013613391828,0.6924104774803865,0.7279675462232946,0.7698027105262817,0.7087696810876642,0.23172655872677783,0.23602279986013985,0.7768718163827244,0.8363184162253279,0.8009381520403362,0.8471603886335757,0.7758249362157681,0.2984680956069852,0.18990294663031948,0.7027448080313237,0.809312075545928,0.7459651321653049,0.7916396780726389,0.7503315162868209,0.33411234757715325,0.1594891702277399,0.659880770068302,0.8090821063972307,0.718686414306938,0.8398879183115509,0.823810144536937,0.5160080682342028,0.13320670056739337,0.5480156158481597,0.9040919558495273,0.7961467678812721,0.8206058097384563,0.7724159385456035,0.6025215907638801,0.13629471169571827,0.3895356446055722,0.8031428827827942,0.6889804809160966,0.7497440487610643,0.7674727592542685,0.8878520218306032,0.5392295513604881,0.5278071381095852,0.8586320627514006,0.8851367936467516,0.8730682033397428,0.9488922577491778,HB
1.0,0.9428664150955544,0.9295538508721861,0.9341143337884725,0.8779753389843075,0.5505077743409754,0.7241503457431397,0.975978819315789,0.9303936630456264,0.9426370721093458,0.9412961962927473,0.9429615735461017,0.6050789012534536,0.6484096920919458,0.9805588722379275,0.9569920106527565,0.9518969352148079,0.8965657919094789,0.9480024496880892,0.766913604363779,0.6484967701064375,0.9484659618318643,0.9283443613223501,0.9326527649277327,0.9126038512255101,0.9787599093063675,0.7527417623861523,0.6872446117430524,0.9851144661404474,0.947607971160825,0.9547143832519909,0.8933799347282736,0.9399551713209287,0.7670290705515903,0.550610343729611,0.8645976648514895,0.9342985644741741,0.9171688458421681,0.9150463409144907,0.9709924626968636,0.8925554606549788,0.6166899382463686,0.872930694784867,0.9829995217358876,0.9503636731902656,0.903343783324261,0.8023950494980971,0.6221799048842578,0.6398927297044317,0.6686461997589606,0.8725107349492691,0.8821749979099052,0.9160552165571112,0.6277135117281525,0.18437060237525493,0.25182977260646733,0.7097431148452775,0.938638200929425,0.8652456585269839,0.8765447331667908,0.8456567804340549,0.7840120755329794,0.34684946580020926,0.07435744958270007,0.4183960902086832,0.8197259193679496,0.8513488665771756,0.8738736301461958,0.8882238221275363,0.9146968112683755,0.7093827958063077,0.25236486635492783,0.20087024971543666,0.6492722226923207,0.915584913893636,0.8574699291637169,0.8867030126675051,0.8672918689031148,0.7935317624559328,0.3528825394489292,0.08334324310554786,0.42923786030404054,0.838718991441809,0.8533649260613085,0.8755384730476525,0.8911102022132389,0.9169567482918448,0.652291713440923,0.20138336940946155,0.2533151560324791,0.7161910685530768,0.9253126146813571,0.8718725368274465,0.895126065648371,0.8869200219478994,0.7612285308659124,0.2907809045875658,0.0,0.34140993982972945,0.792509840933054,0.8785144193171015,0.8754256275776966,0.8899536909030015,0.9134353171872853,0.7618222756430764,0.306591959695689,0.21142958400814083,0.645998280554448,0.9204870422605025,0.876234604078264,0.8970810274517924,0.8861238281610766,0.8140833054430572,0.36468862927974643,0.04198515401896219,0.3524081028358821,0.7958822233240865,0.8920932262722809,0.8673637019695781,0.8754380313222283,0.885857889686716,0.7241977829876545,0.27357748833374584,0.23851753224285321,0.6817641060456545,0.8946311443658086,0.8611198481827964,0.8982532544003485,0.8965684408448236,0.8053743879367168,0.3522771000100624,0.15495086800148405,0.5411662651818367,0.8972696259705579,0.8788867526447712,0.8972339908671765,0.8721770030566973,0.8787133066068538,0.5028829881798234,0.08387574582072832,0.24837876277323145,0.7086771833139598,0.899506191333209,0.8457245163632039,0.8860824857143232,0.8796513422322225,0.7774566806300969,0.33489009339188236,0.1808232221976026,0.5890905274323199,0.8985694998997678,0.8653962283066043,0.9053006747784558,0.8901718099959208,0.8636598565171183,0.4552727109851451,0.1025015601806919,0.3629099803787861,0.7859394624958926,0.8972643499179243,0.8847067757643405,0.8870658354605401,0.8955014689922018,0.6625849485106243,0.18191469684511619,0.07413093479980803,0.5004281697157731,0.8629798898394614,0.8493647402785911,0.8795446357660037,0.8751070680673307,0.90180367076431,0.6160029129400353,0.20173718787112493,0.3611612321828086,0.8054340712406165,0.9108376205330435,0.8987359825479986,0.9029626137803948,0.9088746230376783,0.6563276648238305,0.1910240368600855,0.17317065890856975,0.630303142709526,0.9064836641738456,0.873423195088991,0.9397886676646998,0.9244987001061598,0.9668684489654191,0.7319852224713026,0.6026168613571967,0.9322171811297153,0.9622181220990351,0.959708363113247,0.934177619994486,0.9805859594695994,0.747780246640706,0.61883804227709,0.9370761646124344,0.9408411326557653,0.9429871851146039,0.9032632632226412,0.9477717407412602,0.763795132256174,0.5045337801780743,0.8190291271141195,0.9723775970013522,0.9426749262336351,0.9343144309228839,0.9548176473185652,0.8557253670065532,0.4904095834627249,0.6477031643235125,0.9706283548610386,0.9447353351839651,0.9454747248130078,0.9292088557263016,0.9426553641466442,0.6313586609401973,0.6725274412875195,0.9520649880378123,0.9285291127674098,0.9331947290583515,0.9027864821297082,0.9428109863470906,0.6490630074341881,0.6506912550505484,0.9648213126992458,0.9334476889231424,0.9439170940005135,0.9238425761387083,0.9726677942030748,0.7357982075738205,0.7935441054437895,0.9905637734404338,0.9392013479980279,0.9368798588784595,0.9224668727935328,0.9337220421197177,0.7239280581352994,0.920647268146785,0.9383775339464984,0.9347109503203119,0.907969463628223,0.9632108631786991,0.7635689997666777,0.5901051190331528,0.9148263085792394,0.9515999504075059,0.9473768974400683,0.9248297998014534,0.9809700359229976,0.7536671467473961,0.526966617393126,0.8583512769506241,HB
1.0,0.7207525703511448,0.7316042154250135,0.9835830859412482,0.7158334948686678,0.6291877379573396,0.7373062897528881,0.5557137755730981,0.3543695563116298,0.6920029819483293,0.7793378714130625,0.6504234083083416,0.8372467533065864,0.793167623057347,0.44321356987056904,0.26701815136531626,0.6239409193376775,0.6224905563107697,0.5799839383202314,0.8085790251656224,0.7301742201529788,0.4654321772373995,0.6187419934772778,0.7951496926314898,0.6406065423343745,0.8121733129393403,0.9199884350077081,0.662832714018504,0.5577085920091402,0.9148163180533757,0.8061668032364189,0.7077738249566634,0.861848272544099,0.7354376729281997,0.4924889462181359,0.7281920659819496,0.8261970065662503,0.6655487889703564,0.8561380500438083,0.9163590082014395,0.6550891998987141,0.6513980259732446,0.9527231062555441,0.7629681779240356,0.786879228857579,0.9661211270625141,0.7465136002208028,0.4689000337517859,0.6974550068278791,0.8184996585847228,0.651467475066785,0.8193666770612489,0.8338045136206778,0.5254095502178784,0.3954964373384513,0.7691916309819498,0.6830663423548373,0.624302586580548,0.8357626621267542,0.7238966250222085,0.45782395522153974,0.6434346776361402,0.7954068141321176,0.599591501724017,0.7237334855733992,0.8677904110650778,0.6320209184495047,0.5520715212128493,0.8279517507312,0.6587894832660288,0.6940861431012948,0.8239664364771038,0.6023654248179209,0.46709001686776297,0.7762827775900114,0.6908431406845372,0.7068980500212307,0.9035953897128426,0.7548747979793544,0.5092835077344506,0.7680670115053625,0.8511882840494813,0.6876517254954022,0.8572972229847702,0.8856423032446239,0.6026507741432132,0.5115769246136264,0.8725692224642709,0.7495158197593099,0.7408458465232872,0.9590479760576485,0.9086211614125284,0.6786086561457034,0.6240430820073724,0.5417311553776436,0.15092230133896023,0.3862025464441252,0.7402717334872775,0.8250833918974583,0.6341498437594693,0.6455868992271878,0.426758607727036,0.19074043006455277,0.5411473889000267,0.8057018779618272,0.7163545122174231,0.5670650360393403,0.5547988421853054,0.13078388213317327,0.13567660351668853,0.5444992710860861,0.7417534736204539,0.6046199897429887,0.5798014909460047,0.4341475846514484,0.06993587612258678,0.3716699315056582,0.7101653568387851,0.7570598869713936,0.5497866007296557,0.561283440767389,0.41906661851259264,0.08238530523198717,0.3932416083046908,0.7100235634553373,0.7029329122742636,0.5206964273170036,0.5535283053445545,0.2154838232520231,0.09010479974623342,0.46971980586002915,0.7647121390917782,0.7244201122127982,0.5692724439548724,0.6030262808881366,0.22045713531513145,0.19673857934841377,0.6074095749052018,0.8674363949976986,0.743644147426108,0.6585888901099739,0.6967636867837186,0.2967419272872873,0.3682028941830269,0.7342116709773965,0.8659949109012604,0.6493277358792116,0.6139842592790175,0.5412411441964742,0.15527265292779435,0.39194288051894466,0.7189987513277576,0.7529283622101521,0.6334026461563178,0.7273968685998715,0.48863578919065187,0.1678047228498929,0.5061104001808121,0.8089588946729345,0.7694819504280388,0.5756508856014007,0.575430097823858,0.20513315803609067,0.09743561616355545,0.5008309580212991,0.7432268730394052,0.6061533077237413,0.46402369436163293,0.42027004302510274,0.0,0.06850433824262647,0.47519907993444765,0.7923798869248646,0.6894377552030613,0.5570031242899414,0.5343480513662853,0.1253091759036009,0.2223004655444396,0.5633228014678942,0.6483462919903915,0.5148752918673911,0.6983517537284212,0.6104789332926037,0.2320229177150701,0.5066296467470568,0.8569841842424304,0.9247451174086834,0.7030407959117491,0.6887518076232642,0.48866008008396067,0.16396016120047707,0.47746336094534625,0.7739172646702841,0.7854701558423898,0.5762638340357762,0.6065056878550885,0.38409002009144544,0.14715915180153738,0.5163884697462482,0.8070436487707351,0.767050796910729,0.6265807149905653,0.6405430568372827,0.2646872871610688,0.22465983075891582,0.6004349444978643,0.8152820764242472,0.6799334556572685,0.5811255205771129,0.5313174564361405,0.10921359625161342,0.26018274707004196,0.6595411373958355,0.8476368634180038,0.686509424753031,0.6412672974470544,0.5602835866300628,0.173888667767921,0.4053848419474839,0.7289346666606815,0.759142608766672,0.6841385270100022,0.8716609621713376,0.7620347243761927,0.5151880341835464,0.7173478154011679,0.8854359029297947,0.7062794090566205,0.8373092146160501,0.9056997318447619,0.6217524222640709,0.46055432728637036,0.7950267644020315,0.7116541466858084,0.689493603918564,0.8940732662277138,0.7698635532284257,0.5395988220294761,0.7586495018856563,0.8449589864690044,0.6996497749836263,0.8491913074296673,0.874625719452939,0.5953265184045997,0.5255570419181606,0.8530575021033875,0.6890767916481606,0.7023613049533683,0.9162062104378617,0.7562875368639261,0.5343517886105007,0.803185160393777,0.8455306025000318,0.7458944138957708,0.9625763889465655,HB
0.9996229167917828,0.9995933551568602,1.0,0.8063240106386157,0.7351904440688154,0.671560827361542,0.5807142034975087,0.7683730409335835,0.739362483091261,0.8515636312522997,0.7682168925516705,0.8986686219621273,0.9599788272800619,0.6660308866419088,0.7466029226223491,0.8489032087820131,0.8504117282919453,0.8678437198110868,0.8279073508096072,0.9162467273755089,0.6915912559330463,0.7733580750771695,0.8715035607696026,0.8198062349352656,0.7868091822386359,0.740519668605876,0.9107795261448665,0.7721384130815331,0.7204491528638245,0.8873585202220259,0.794274176431847,0.8274606380064572,0.7855754802354525,0.9129130858160303,0.7945270646304933,0.6803368763669347,0.8922802976760643,0.8118684220939018,0.8526543165714852,0.7956288260782866,0.8967163347133088,0.8435821116155054,0.5744674351026221,0.8016048970339288,0.8371419937634047,0.818846155064978,0.8208165543115798,0.8262629721642717,0.9474173406394192,0.7178839179081332,0.8149835501753421,0.9106019511968074,0.8466476209656172,0.8336965895428409,0.8118923428976513,0.8875454545285119,0.6252891900447387,0.70052865212184,0.871782650740928,0.7727560858976562,0.8120168171569623,0.7566929064232256,0.8764837482346785,0.7178866898777642,0.5755804730237052,0.8631865685901966,0.7955318154126646,0.8161767651599593,0.7789306207160983,0.8720250659370631,0.8174923398961796,0.6176258514294265,0.8690227047318383,0.8263261408148422,0.8484756861330384,0.8003101152253816,0.8850631823125653,0.8426197377093189,0.540493400562242,0.7678921952250902,0.8748471447091232,0.8543149527643458,0.8499413535605224,0.8156216908541615,0.9773345586484999,0.799149675633056,0.6186146707680834,0.8910881268996605,0.813245738134709,0.8361171344161368,0.7946417921510042,0.6155540983920257,0.5491160826058018,0.5640402684219897,0.7595793030638297,0.7430922865847344,0.7681401974327998,0.6202388599384335,0.21983231209187204,0.4022093960905516,0.8381703886475861,0.8615422717449391,0.7336840116272153,0.817434515578472,0.7613681541927896,0.7132355488575292,0.29823994988595215,0.2176573118020525,0.6564906371495004,0.8557626492150051,0.7335777328117842,0.7930752812041305,0.7407606466252957,0.7570378294219938,0.4166388561698505,0.19512344254055847,0.5828454505984709,0.8368118644067003,0.7221893410621901,0.7653627283835417,0.7168416276851167,0.7370357529221362,0.4222690255431104,0.14537273908558568,0.4957172957845212,0.8128176695871717,0.715435540203405,0.7344531112738887,0.7211057873239121,0.7297959962395991,0.4882722021793696,0.12093044252821794,0.3792437359431081,0.7865458837775244,0.7719504834986958,0.7426493665922013,0.8048359748181791,0.7740623772158629,0.7355264123758406,0.3205980283042792,0.2841436672560572,0.7228918059978758,0.8692219768583737,0.7290054403071945,0.7786514086269661,0.7301194441597377,0.7700447399580038,0.4320699999420249,0.1588584019394309,0.512167237808092,0.8405917077493174,0.7611883564395557,0.7718187605975521,0.7659792905608956,0.7495228921952318,0.5917677975712606,0.17117723461045486,0.30264220698459166,0.7480853947429492,0.8206269496768687,0.7262242303627192,0.7677323716525387,0.7165826367029059,0.7135085965644313,0.3179181321888459,0.2504461458996733,0.6821375569201341,0.8160775143665534,0.6512172566667905,0.7490458055791623,0.7482331356880679,0.7888612459885448,0.5244391570363692,0.18973282263822944,0.47751311913637495,0.8367383958982891,0.7856599344357392,0.7931319656443222,0.8059729034775124,0.7474418146553584,0.6111928305457369,0.17208290902175516,0.18611088523789654,0.6548566864410194,0.9167623752728212,0.7315785660205562,0.7486535611655679,0.756672823856482,0.6555791292905438,0.5862643811525959,0.14367981836280475,0.0,0.4214705106780946,0.6661355387127613,0.6775568259261097,0.8726514738954138,0.9510775766224132,0.8766293716281873,0.7301343085194384,0.29948091297548796,0.38244122931582447,0.8144759720327414,0.8491123649584368,0.6995414708170801,0.746835099417733,0.6955718894045279,0.7098568691326245,0.38561497089085683,0.1353522100232899,0.5077038957850865,0.8095161245434209,0.6982754886141685,0.7293603118737538,0.7717318624465427,0.7362933719136845,0.5608274944527466,0.13249548414340306,0.25139681892338406,0.7132227218041808,0.8329257817776287,0.7433898547514416,0.8102330530708107,0.7486906715724201,0.7383270326691737,0.34871924121899955,0.2147906425303464,0.6301490505255919,0.8604758855018381,0.7426212384723764,0.7750079471791301,0.9164742184214673,0.7628993979319533,0.6861239375121694,0.9197130192155801,0.8237125106544251,0.8587611559135234,0.8063845018444123,0.9012705972069671,0.7435309349862694,0.6181947111729095,0.8425184737150387,0.8041656729684458,0.8291826974956357,0.7362230900492838,0.8483285048435524,0.7545483240591396,0.5635159377826268,0.8113504635960916,0.7631318451995056,0.7966721628225794,0.7688882809328356,0.8920197258512791,0.9361405596125755,0.6661207187256662,0.8711691687671116,HB
0.9313309105583474,0.6264834647918018,0.7587991745693117,0.7282928195667941,0.7068838125652306,0.7100064303992477,0.8298733452361509,0.5632804566455114,0.5104023983764105,0.6067908132711315,0.6027689619889873,0.6710121643416636,0.8208835610396954,0.8069699876808483,0.528569192169476,0.6528468588501921,0.6618045204456888,0.7284280886257761,0.7855933536964175,1.0,0.7908063866185695,0.6784529008441051,0.7159062976792345,0.6774083010643088,0.6633116195046043,0.760387512669424,0.7574222988179318,0.3943642497271882,0.5637568627607972,0.6479603037699015,0.6445117115261239,0.7306548892063502,0.8859010355361718,0.7983212034681011,0.4851245467752543,0.6493838111940642,0.6388128242908566,0.6435693065164263,0.7094972537605808,0.8678923888991892,0.5859607013633426,0.5248523350714338,0.647735182225933,0.6441818158285586,0.6908129610428997,0.8063375466034692,0.6847292694572236,0.45030897753984744,0.6552785507930512,0.6513627709335372,0.6757378729561951,0.7798291761915155,0.9321196657731954,0.637284639390733,0.6471412234126976,0.6712158907877077,0.6827833566278088,0.7666369284318106,0.9445321215989173,0.7214723331300315,0.592357073740712,0.6581159739526297,0.5821832036514003,0.6416598875441784,0.7007335934277035,0.7900243845499482,0.4885363352448131,0.5143821558880024,0.6280364380197243,0.7143837705271068,0.7482570742498269,0.9123343811010063,0.8488822908879832,0.5210823469499779,0.6830972654566594,0.7210180325825148,0.7189829554750937,0.6686443970762874,0.6239402510636443,0.6385086189571809,0.4671450766229066,0.165447199501914,0.4955420901759955,0.6980242953455531,0.6606868186598973,0.6080552144506184,0.5262078851180889,0.33252612982237206,0.0,0.3172997468909937,0.5939012091211486,0.5784574546610486,0.5151582791692095,0.5011711713893159,0.5573571659735568,0.2106567553540608,0.2590805719389402,0.6767153768046725,0.6804980649426002,0.6069959805410923,0.5848643740832116,0.5666348284173917,0.23378191780336577,0.2718712298267314,0.6566319097300388,0.6525450504019776,0.5832557621979086,0.5750147084556416,0.5248478916482111,0.1330302363997551,0.14138921164514473,0.5665069637759355,0.6339852205602705,0.5776296928261506,0.5549989550458294,0.5161011441478971,0.1533297588896656,0.1401290627713272,0.584135252334252,0.6200427128807555,0.5672368892822997,0.5481667981367893,0.5819078089969523,0.3196661967728409,0.22133818987976506,0.6288368433905722,0.6659195105197755,0.5797150899879053,0.5593298233291386,0.5234804807898388,0.15355509436058856,0.03135153341092578,0.4859856851500588,0.6077871027805397,0.5782943679584047,0.5880892531119297,0.6371389224942896,0.42199644077694964,0.17300255954149923,0.5796829816796811,0.75507720657833,0.6667216339225535,0.6228995247461224,0.5585341346180268,0.519499029846997,0.1727345428329965,0.31019660938322247,0.6460050322997146,0.6021099336473386,0.5280921591308285,0.5068804407077074,0.4109367401158619,0.01566560636874348,0.18501219769614874,0.5833920041927412,0.6082360739949739,0.6187904328270362,0.6292524506165842,0.6779417254652649,0.40557065694029726,0.31317301022597954,0.7225989665747217,0.7328552279174847,0.6065346836758772,0.5456421653047783,0.5773828594954518,0.3435412131298299,0.11362432075835271,0.4949773406565705,0.6078172374379975,0.5413754017484687,0.5006837003899727,0.530507526043523,0.2612857187625175,0.006652722360523944,0.40354617735482945,0.5988861238189394,0.6340334809259192,0.6445602643526369,0.6390803959759883,0.41450712313841365,0.1516158720646157,0.5422031653962351,0.7073449929984319,0.6458290452431283,0.607151206834287,0.6017002795540045,0.4559792982174655,0.12615632322305625,0.36323483974432724,0.5710985330855429,0.5315596509847942,0.5056922725662489,0.5143130015347124,0.43560709212232007,0.03346095455745446,0.15700158783209206,0.5611102875162164,0.579631409223035,0.6103773098232383,0.6413014615093116,0.6278518827121826,0.27625694844456383,0.2719803657540063,0.6952368789847068,0.6975017867522029,0.6168771262912158,0.5785811389067317,0.57939420222066,0.295781558530849,0.22178866216597592,0.5852611806190922,0.6672161788953606,0.6762960729259886,0.7504697830845797,0.9290536162479506,0.8488744192881832,0.6540160924704339,0.7484687928531653,0.7206191136249189,0.6762036151831463,0.7250090468163024,0.7409356632594242,0.5207874278999989,0.6278508002297056,0.5961117009530841,0.6051076209820296,0.6542856669884265,0.8580653750910403,0.6218945527093926,0.5369906076168411,0.6875934157071915,0.6911067737314336,0.7221894069194308,0.838107067878215,0.9471622716684824,0.5968743845709952,0.6673806337541337,0.7220506742822344,0.7293439983914021,0.7009489240989706,0.7728303813713175,0.6791298409056572,0.4357567118642822,0.6063534506552446,0.597793738751049,0.6305331729653365,0.7155903465473261,0.8423162965854103,0.5447585635788927,0.6113621466854835,0.6427805529834054,0.6334578727436515,0.7671280725535019,0.950433555675799,HB
1.0000000000000002,0.7857192260762911,0.3816906937718232,0.5062650384982608,0.7003308067482272,0.6532831507710652,0.751737218313145,0.8328029659228855,0.8367632586480547,0.543667803428767,0.48662770145269607,0.7604451274281299,0.6852358961091609,0.7931013115765786,0.8590148041549346,0.9046620463768089,0.6924957448909714,0.43903993758554827,0.7161535631446585,0.7084771765426774,0.737340991700058,0.8215222400981073,0.9119684260016505,0.7837200815722192,0.47158091314459694,0.7037467583430976,0.7586370955163446,0.6985181851771405,0.7869267507177795,0.8493725926895832,0.771796703878388,0.4560430944438185,0.5642391144500174,0.755787181314522,0.7024364648535377,0.7882831397801688,0.848465701830466,0.8384159015039525,0.5402871970169703,0.4522667560832325,0.7383883162678513,0.6568303147091445,0.7394796935650432,0.801146710854294,0.8659647062245666,0.7160665535613122,0.4055878326158491,0.6514292185782267,0.7507993659353132,0.7660119238380794,0.8309067929504559,0.9112246483487401,0.8481178756860583,0.5122384217400093,0.5077811686658118,0.7047795121672753,0.6426177157461732,0.766737157017382,0.892894292138416,0.9074492025895566,0.6475363613541949,0.46079965855219407,0.7360847523820604,0.6692006299401279,0.7546704396895525,0.8455632745040063,0.9556972828563934,0.8167615732656743,0.4384804164328975,0.5734260081891687,0.7686236038940935,0.6940842261905356,0.7651732997016023,0.8537090424757323,0.8489150944202473,0.5412456516862412,0.4958165158292209,0.7539019303184349,0.6585400822575112,0.7475016635812548,0.8356868390278798,0.912010643720025,0.7391574577233693,0.41986694819202497,0.6840248668305071,0.8312300413678206,0.7895000980397768,0.8479974973429869,0.8618607060625625,0.8245542484641948,0.556164524642971,0.5038694996280426,0.7482974437266037,0.6618988807627828,0.7656181730983869,0.8371206537478859,0.9014368313856476,0.7472637187107221,0.47591535392484086,0.7171413984205224,0.7193156677276782,0.7602692832006606,0.8222401574494371,0.8612663559566804,0.6865989387035671,0.37295592313964643,0.5912711989630106,0.6035830028800773,0.634331193295617,0.7167709106304392,0.8093049856322072,0.756236588044821,0.5034142948397624,0.37191978774455525,0.0867919789291669,0.2509871679901903,0.33381704987379845,0.6615755801937426,0.7200609295309108,0.6239560492795186,0.5247096953202639,0.49942636219060144,0.46834099918113625,0.06284399858003442,0.2395716087583748,0.6687355814309648,0.7728475978386646,0.7168493657980572,0.6442954366720037,0.6326606202678209,0.5424467320450537,0.1292428075088512,0.3138852284418505,0.7345483200835108,0.7979172624545849,0.701540639881485,0.6170626933688277,0.5929945870334554,0.5592069120410896,0.14200242256293438,0.28254310428301,0.687104116881905,0.7738434389997597,0.754815458140621,0.6971998882350354,0.7107309073402222,0.5786423405678047,0.13771560571970642,0.30691744213102834,0.7434213678702528,0.8210178653952636,0.7052363184444854,0.6129564237936795,0.573117827312849,0.5627239722018944,0.17133923962021846,0.3422749841117356,0.7382473718583082,0.7812419927993293,0.681595969966837,0.6015734398332,0.6286465548636782,0.5461991280275724,0.15386520602734421,0.3930679066176286,0.8061385424091088,0.8470831364721765,0.7235870857814295,0.63562655789859,0.5848692341203992,0.5790026681870601,0.17540093875616258,0.2954074586994493,0.7266600273173445,0.8298334696277572,0.7175023475100215,0.5753718892226669,0.571226086231776,0.5134260921188145,0.07831037938668484,0.19713191482103665,0.666880178042361,0.8271814404639783,0.7591485029544456,0.6866052051251395,0.6196737815440845,0.605928915248459,0.18189141564621591,0.22860642360635963,0.6540718088792288,0.7821162469160445,0.7119523433030366,0.6519331656000562,0.5440098944027041,0.6209038364576476,0.26457323843005054,0.08774705085952639,0.5259053816517569,0.7711489685606729,0.748904779006107,0.6876626029882396,0.5948699259283956,0.6322828724204788,0.24797555453201547,0.06286737533082531,0.5011409062828636,0.7510557983586341,0.738934501205674,0.6649285502917446,0.5691368250592317,0.6983015307222955,0.37753157596666287,0.1924200969775287,0.6192740228884259,0.8233203108669114,0.7480274615697,0.6616904925174183,0.6032016185675355,0.6200256362939573,0.18732038983316324,0.1008432402432593,0.5564902724739176,0.8092480268293369,0.7874547664145932,0.7187270691823306,0.597861009679282,0.6568400103818062,0.4226848394836267,0.1405807920773836,0.5100026851259198,0.766286919453049,0.7085059993801017,0.6405670032959294,0.5232494620253754,0.5996243377916717,0.27168064497928923,0.0,0.4215503037198103,0.8271460645159554,0.9105239201502846,0.8689552031246797,0.7247629199080012,0.6838143682590732,0.5201346743208595,0.07336494860671938,0.2436900406131246,0.6693373437354733,0.8114444489707531,0.7907841931023587,0.4821735362059656,0.4563365491105065,0.7822431879515086,0.7704373790065839,0.9211888453184758,0.976394150157682,HB
0.9357601023932403,0.8684259198404538,1.0,0.9638744033964897,0.9871781796897632,0.7299270620335854,0.8656727903883543,0.7937919985325452,0.636418860074067,0.5688860653172401,0.6522297939146537,0.7584129855374631,0.4859796391303246,0.6403880160425057,0.5765834590956089,0.6819698024657947,0.7105366622276144,0.7555534466581912,0.7896712281846496,0.651522245613926,0.7089616128086447,0.5879832155875326,0.7056820960728878,0.676184821848913,0.8153375643394765,0.7173291746790271,0.7236757019162989,0.7494315492774692,0.6591543768538615,0.6954755909842576,0.5997536717855345,0.67702665721874,0.6171548223461083,0.6364313042696739,0.7277703588325681,0.8637651790562617,0.8691937780598482,0.806040045849234,0.8775595303633366,0.6958012692919713,0.8406590087230912,0.6824866065408224,0.7259851809826188,0.7285263875238428,0.7410029347784763,0.8233870558020402,0.6968834984786181,0.8342964790468184,0.6487002304937399,0.7070523007743645,0.7019563238500193,0.8030287417171085,0.7949221558529826,0.6420363166466423,0.8214766827764048,0.6873419723910588,0.8189774290101788,0.8305121161496425,0.8954678344967464,0.9344101234785747,0.77876971879832,0.9061304259111593,0.5995761531577757,0.6264320402704757,0.6690441896697976,0.6072905015556023,0.7396836299900009,0.5981930856302609,0.5034791622862538,0.7061478786285735,0.6140343658680081,0.7669415350345372,0.7210031447416831,0.7956060000105114,0.8848434828230931,0.6733941066740199,0.7906204173202056,0.5757503066971239,0.6813672291226722,0.8257814958938341,0.7008419397512848,0.7116904472453118,0.6303843896707342,0.4374697857063645,0.6031752337672422,0.4062004341350174,0.0726820070958869,0.5308530060966947,0.7838776904048346,0.6138527106952245,0.6587622470201073,0.6229844001993672,0.4796738647074221,0.4919350901851187,0.0,0.15759069674352189,0.6041010118945125,0.5325298674323604,0.5393873673054457,0.5610345780295387,0.42889764588741874,0.6785827024743449,0.4962177089041866,0.24076953927281464,0.7258671156963623,0.8377518598734235,0.7212864031028001,0.7447121386530289,0.599526579740107,0.6577829940155833,0.40534143318680327,0.1404357641379299,0.6046855460975875,0.7186883053080342,0.612776112630582,0.6242149901737406,0.5380709019657623,0.6150950257405245,0.23393749516769446,0.40072382822993413,0.7040299904092593,0.6056948604989962,0.6667027514547943,0.5820401064268927,0.6031932701791951,0.48852456507514264,0.19537410441203695,0.624278512740883,0.7382935159407764,0.740916474018892,0.8051575691094213,0.6263909325841746,0.45951480140956535,0.05756777108104094,0.3228206773626332,0.5580673510928342,0.5079488036113213,0.6175072428982249,0.5458251778673637,0.6048986893470207,0.3579968584368176,0.1744358782999389,0.6384841593333843,0.6764955923821443,0.5845760754798399,0.579477516194276,0.467948351004726,0.46214966564551574,0.07709120889756216,0.4113483517074945,0.7140162286616847,0.6037157102893596,0.6316511100605404,0.4780899111603829,0.4943106669609838,0.13255117662626326,0.09868213450541408,0.5945808405693049,0.5830956157370926,0.4658931907244841,0.5400086113961646,0.6888449542940909,0.5743570248977079,0.24362739825434954,0.6784272959259567,0.8944665351149652,0.8812713031521691,0.885303932612238,0.740553125793959,0.7292945562189739,0.28193960517392647,0.48335614734256316,0.7829563288743522,0.6024091585185078,0.6007291692050925,0.5291365396721379,0.530302535541944,0.5664856542987766,0.18538151264272829,0.5426806755807463,0.7851399029721438,0.6697856267469575,0.7693500089482597,0.6342082632294725,0.5879390003193454,0.4201026989072312,0.17635339211960233,0.6228964664302254,0.7049065093828966,0.6450030513652019,0.6732781968449975,0.5779161331233622,0.6285142430428099,0.2392676895979582,0.48502100909807844,0.780844529079582,0.47988635890276,0.40658238787875556,0.4909851810660246,0.3919834352514857,0.4957971101059395,0.11439142185649809,0.22535009217842594,0.6625949818705834,0.5987805308247252,0.6303536288187335,0.6314821134911348,0.5036267012021991,0.5305720027047611,0.07273772964622527,0.2566338583575538,0.6977688264390132,0.6242576562578752,0.6282660759890772,0.6586978607178042,0.7335592002380884,0.7201311294735491,0.7538161788183171,0.8066724966533014,0.6517698025280869,0.7611856435081741,0.6278439111655323,0.748200170903095,0.6971605291283356,0.7198246720927446,0.7646942311856888,0.6252604646392559,0.6485960800232449,0.5153910264096915,0.5877186294617953,0.4869822050682755,0.7089279178368684,0.9259848807387754,0.8142441282011665,0.8090467782189288,0.6953744766122205,0.78784841775221,0.7367965351148742,0.8235864870250666,0.6845591354926026,0.7051061173308732,0.747091659015624,0.7577393367223024,0.8625956574775318,0.7651518013453757,0.8779840667786161,0.7651333630578385,0.7362127286001132,0.7503410902051879,0.5958950911909291,0.6928623254283104,0.6730117673950464,0.8681452036674919,0.7964041920757592,0.7769265630229829,HB
0.9686482286259801,0.6384911878931453,0.6134320730185796,0.9357227368501488,0.9703685925135166,0.9116413080387018,0.8586902516933776,0.6960162377783632,0.3962137062262071,0.5715970431828009,0.8013528676189289,0.7569044780825075,0.7382599271006065,0.669019517537089,0.3555675890706387,0.3750916755267746,0.7552706542599182,0.910852116260557,0.9991884037600409,1.0,0.9331898046331673,0.606261102025,0.6096731283881531,0.92453122376591,0.939448014057978,0.9064022867034698,0.8833034303344567,0.6023045860368839,0.39462109868791717,0.695862621092182,0.8682059005811908,0.8798863080359249,0.9792639341691216,0.9735747087068465,0.689716257353349,0.6594537992943829,0.9419109428033221,0.9306895049005468,0.8871320163996261,0.9020087414252391,0.6576089452567295,0.46797692685377545,0.7703739362025368,0.9167307741126767,0.8977756873583063,0.9166967316626706,0.8275614620838904,0.5280794262346915,0.68167810565043,0.9270480730854196,0.8928181954720065,0.869292500266087,0.8478633940939329,0.5295202867350322,0.44779191546657526,0.7838724255017574,0.8812412920789672,0.8512722574433516,0.857669159210569,0.7014982675344531,0.49645833263750994,0.7499994291323385,0.8380526078540935,0.9003964677851566,0.9763766717958062,0.9205339158307428,0.6665959907162706,0.8499475167580925,0.9719846855400291,0.9304312935971975,0.9200679536896956,0.8287961144827125,0.501328577022956,0.5868324634198719,0.8947000467790318,0.9033898706651327,0.8727347590818686,0.8955466012570483,0.6661290186812665,0.4856882495661816,0.7843707819135265,0.9053871680949737,0.8864531097786454,0.8970244275759662,0.806944721890614,0.4798777364022594,0.5793647616959866,0.892797768581785,0.8903498823271829,0.8440636929564727,0.8777790162243331,0.6825299112746456,0.46174982543371856,0.7408025339038186,0.9113692272699456,0.8908990280675118,0.91421764007969,0.8536391165092152,0.5186003446267905,0.19610656540096488,0.3361041906869271,0.7266714845490482,0.885394060653915,0.8548503108841237,0.8436257498019137,0.68108349228571,0.28231792001754225,0.15500139614870573,0.5113051971320852,0.8168152913978246,0.8050573400602552,0.8408573847332039,0.8122177018222826,0.47530069295684707,0.16537342972973046,0.37422705751264684,0.7559230311903077,0.8587584309880576,0.8511872633438302,0.8492802642780679,0.6255238361264818,0.23454851659617348,0.23169183671364602,0.6221722211967348,0.8557110938769721,0.8388833331783532,0.8622663846729419,0.7930215200512514,0.42596035856802883,0.1694913898280424,0.4463056627445433,0.8141012934381073,0.877247208096485,0.9023786792287589,0.8889492678046254,0.5958450166523088,0.2387396246422968,0.36943649950358937,0.7725896472264808,0.9483930243471355,0.8876847465550284,0.7938691066976717,0.7155761912094508,0.3468730529692001,0.08672536414501342,0.354722503294868,0.7318217048720022,0.8122509987445315,0.8207933744128219,0.8155545841360519,0.5203006174158797,0.16647215989306974,0.2793636541356976,0.6768902726738973,0.8402028955475307,0.8467390432915864,0.8696713035826169,0.6900034593711575,0.2909147419183005,0.2167222004765197,0.5927553798590862,0.87514226125876,0.8593423291219431,0.8555384135189998,0.7999068261213185,0.44588646008912847,0.13153225950885988,0.3438654657957345,0.7410023131681686,0.859815436658165,0.8658332038673113,0.8964146188256312,0.6926919349756627,0.29764355798380787,0.2607742245300974,0.629727032223075,0.9315478870968985,0.9269936835090986,0.8224427112742759,0.7888801710006139,0.5300185696634452,0.13284258060732795,0.12726866644745288,0.5239610368938814,0.8354376412358105,0.8628770435509354,0.8876008206941854,0.8207191864120532,0.45169030908253316,0.1868835183386029,0.4556593984768115,0.838678247401216,0.9520561922499402,0.9515797534370325,0.8607077161490702,0.7032917203319609,0.30706680107363965,0.0,0.21238582078049273,0.5850490278117176,0.6806870062610213,0.6989137289101319,0.722624648462469,0.45836829809946056,0.13452519080154718,0.3207824871375447,0.7017766494600991,0.8176310449080818,0.8941373046529959,0.9216153329014205,0.7765078060186602,0.39329181972099625,0.33517259955713846,0.6730036843625972,0.9608552134489325,0.8806117501208557,0.7950707927666447,0.7708002373975411,0.4420569869056704,0.17546483640627408,0.4399720812595943,0.8041642921299481,0.8717437791420521,0.8364330057728819,0.7347009171725624,0.35554284345637965,0.18264876798045115,0.5156809044122361,0.8414027191509177,0.8442081650090347,0.8016185852583648,0.7247504236147118,0.3640235622112802,0.15720557137789015,0.46441195770657295,0.7863618511055857,0.8256856332666388,0.8392671856780152,0.5622322159954919,0.48240780413652284,0.7945424488571524,0.8508480755466945,0.8724951750703098,0.906778826786975,0.6746987440396022,0.5856623056617697,0.8629875114421712,0.8818159104578969,0.9090589320975786,0.8506394208025583,0.5576226038679785,0.6549446465460441,0.8724515960504453,0.8519498093808149,0.9662485954261042,HB
1.0,0.8935352222849411,0.8992153417564417,0.7591629793435946,0.5934868302755034,0.532115424494791,0.35458931915494984,0.6732186601516013,0.7066581204102294,0.6095482794428757,0.6473621636873874,0.713277211337477,0.7587753318524562,0.5572665697878301,0.5747913292848659,0.8427809223581044,0.7639329578112268,0.7314804784596465,0.7441395982637751,0.7825630252726472,0.6779840969291451,0.6000589404394683,0.9112819773566287,0.8382257927608974,0.7760222786795334,0.7930582561922619,0.8476661022157197,0.8045069951724542,0.5386690518849648,0.8198609753996369,0.86337515666541,0.648668936735552,0.6040049286259075,0.6328730988271567,0.6648900426936426,0.63440423764817,0.48361027076649865,0.7981052275436031,0.814493862297121,0.7016857811035426,0.6837941461411039,0.700535096821695,0.6896683708287976,0.45253350598188335,0.7146291144772006,0.8002850468689369,0.6696261911949088,0.6745755789156229,0.7086422551738281,0.769515100303193,0.6443719600850843,0.5534659893972269,0.850220294176852,0.7678822673928765,0.6712921574619526,0.7054788855201077,0.7205829194233244,0.7728063044459335,0.5767330481781663,0.7402537584897031,0.9702603459397707,0.8446467755963436,0.7869216473235934,0.7273668820659003,0.4935354791831861,0.40694484659600105,0.25409519018757765,0.45956335555113537,0.7193222342009964,0.68726124572225,0.6788679190740439,0.6996293228565462,0.7767001523913919,0.7338145646979366,0.5554953499944593,0.8377978927671328,0.8238919218685323,0.7299879303119412,0.8011340351338303,0.8282008400631109,0.8499057913653547,0.6298292603560656,0.5721206795670604,0.825712882708932,0.733641384403056,0.6963475471915532,0.7014295454011816,0.7144274385857066,0.6520201080086561,0.45181746216638086,0.7698411917964965,0.866858509707015,0.8492049170825542,0.8846246350647506,0.8163854386556548,0.7660683532527859,0.6087007224031615,0.5708648993483845,0.8401364842033345,0.7488360930841442,0.6896622942238833,0.680810805038071,0.7092397843710456,0.6451056737514076,0.4653532727833647,0.7801418873139077,0.7959193995830569,0.7126658361072917,0.677087057433821,0.6883338861737633,0.6860107877049386,0.4256403897429122,0.5949218061463122,0.7259278846612371,0.585324493756834,0.21456197351718176,0.17460981770554262,0.5378430897775939,0.5964305808179233,0.5856430719970476,0.5981323443055144,0.6794053919569869,0.5980621594658411,0.22168832814538186,0.3409277410165985,0.607033874490094,0.5915614376014253,0.5962232598264761,0.6010403895332312,0.6888087627142361,0.5653766348645486,0.2894302011439236,0.5499350491263888,0.6909019676999155,0.7777597017086149,0.7694201564834442,0.7516776409482966,0.6259082374503859,0.23710778103924834,0.36738957803554717,0.5956674022440009,0.6011335939786977,0.6010656731348041,0.6191302173649045,0.6936933648051893,0.4041919848874991,0.27844204768809044,0.6605624116220574,0.7539858990694612,0.7242288098398673,0.6717177442049129,0.6742688707587954,0.7018626026121724,0.3713670765487098,0.4212321330688349,0.6845969814558752,0.6292608039902206,0.5831948789552834,0.5546847212364754,0.5843218702224813,0.3829062660958682,0.0,0.19100350592687754,0.30973544985173396,0.513856455808428,0.6841824600690982,0.6944367333344661,0.8079142242542341,0.6296104505197082,0.3484585721817708,0.6010079887016655,0.6419104886240667,0.6093946171836206,0.574062278931514,0.6311768495808647,0.6111542910717374,0.23887975121853966,0.39851249114370413,0.6455170730426163,0.615276760570334,0.5923786524940438,0.546456913251236,0.6586322643876334,0.5473794446849198,0.20608817139113267,0.45506223535890156,0.6190218102477854,0.5922156932326228,0.6000145691949212,0.6803838320818625,0.6590129563865608,0.2788405757071697,0.3667696423093769,0.5723945579047394,0.5269563846856764,0.5082153804453355,0.49355620518395193,0.6691329274637212,0.6332367010696118,0.24741136720013968,0.47532263546602493,0.7611316080750736,0.7153386952601752,0.703170061483855,0.6749251646574574,0.7457251090670054,0.5762542394335979,0.3568917098645268,0.6294705863872903,0.6659257483239909,0.636143582273613,0.6252889744992771,0.6903288476417546,0.5423169583325462,0.22432793593390343,0.5067394091404638,0.6352669626581458,0.5742916361183044,0.5145074543385828,0.5388785756694983,0.5529571934194544,0.19495703520055097,0.1725813169516952,0.47049177625292193,0.530333892081631,0.7477116631939422,0.7935469715825194,0.8381239062034456,0.7251924672688981,0.42693873053904063,0.6560059779765544,0.6967322024302369,0.6473921369811557,0.6373044203004281,0.7447951195395315,0.7617495696483711,0.3790435764463318,0.2999875076905445,0.5943120433216236,0.5673017741685871,0.5311782127887592,0.5143497205249794,0.5820128755808769,0.6311684254748982,0.6983710616298664,0.7030823540472926,0.49270873022055994,0.8260417795214976,0.934499194189709,0.7884475702423077,0.7498032828671373,0.7804498613448931,0.8307611512455249,0.6609296635329693,0.8458856981086234,HB
0.8701823654493259,0.6472507702727957,0.8347823424782177,0.7205098793526259,0.6099877746176701,0.3580808745659809,0.33764571753445316,0.35639998644066684,0.5880365003215828,0.6834536689034263,0.6337498807550259,0.20642087135681386,0.4549302915997717,0.8792057512139155,0.7686735645561196,0.7293629105811934,0.6775688686618235,0.6512614885706276,0.23797863180773127,0.302302449596471,0.7678183959159648,0.6808238392562675,0.5275202638962491,0.5455245062924754,0.5460829290136364,0.16833280764972014,0.0,0.48193178801103387,0.5723911164766702,0.4458948729424974,0.5820996776467546,0.64185896717544,0.49055631144784684,0.09845851365195513,0.4038279854039246,0.7387432091798789,0.5940141598907622,0.5924899098181988,0.640494414679962,0.43342913534641925,0.09736698648130249,0.5020279636731433,0.7597978615358587,0.5723449625070736,0.5671821593393034,0.6420118729718787,0.3700843818648678,0.13430960668313285,0.584022302189964,0.6916948616989249,0.5069819966836795,0.5324028803889653,0.5768450315043177,0.2233259197343731,0.051434660738883364,0.5307245983217723,0.6260973373213659,0.4792578851472302,0.5062332952227666,0.5828779147913901,0.21571735813120152,0.02903634480726547,0.5135322394375568,0.6532942812616305,0.5123467612230901,0.5577490801110669,0.6323442855957453,0.313784050779357,0.11300844988119496,0.5927501381509803,0.7332833213748493,0.591038979862857,0.6407328368646275,0.6586601214262353,0.2573682622221083,0.2646837931305963,0.7289241305324554,0.6973525330495269,0.6115347811329872,0.6568572180394503,0.6305122398241607,0.23858410089742232,0.4823366559108515,0.7712824326885908,0.5909120753324408,0.5933863717931958,0.6386892567186375,0.4435184648557007,0.13650438668782305,0.5426671688294737,0.7135043126159084,0.5295010519593082,0.5592104140537573,0.6163066765143304,0.33922980709574135,0.03325713760525417,0.4653054806472756,0.6955650280868542,0.5316528262058449,0.5261450775171113,0.5695358496106357,0.3397789797105142,0.008644209112693924,0.4132582518920649,0.6533289815367123,0.5271925133835849,0.5634874805808006,0.6395677443975163,0.3255450530716575,0.20944029423391997,0.6708938124112687,0.7013311410399703,0.640508024057844,0.6734318945179842,0.6376579370124993,0.2191163330117496,0.3568892384543083,0.7500269799535955,0.5946313209543279,0.5226705222359393,0.5684240946041099,0.5284388190567946,0.11365570694840943,0.3123594781800765,0.6950584199582133,0.5788257968328299,0.5969249577410036,0.6480858649077665,0.5602754398753984,0.1243693177637546,0.34755799381428343,0.7170031708566278,0.5713512877648161,0.5777072753236276,0.6365776919324506,0.6384907569697476,0.18292753879975843,0.21262259562962527,0.7042308438410625,0.7377452516065113,0.6398350586446007,0.6428250877791772,0.6497672329139939,0.25154820603422423,0.1820572446702382,0.692066903490409,0.7312569897193459,0.5934273824529812,0.7612663166637599,0.7247240053621697,0.7117896930281356,0.8653685384313297,0.8385726076596065,0.74918373655729,0.7349903512255966,0.6627390713880688,0.6396571085231308,0.836228454756329,0.6791084968027212,0.6698098029679571,0.7431616952273459,0.6848955354578725,0.6384081523271796,0.8133446104623745,0.653568277179579,0.6370568509125862,0.6660925856221553,0.6187856382604708,0.6090717438418014,0.8507517241026299,0.7893852467639431,0.65356043666653,0.7742848233145263,0.7245833658140641,0.7259521545153229,0.8767562320852422,0.7346375979970541,0.7466134953212717,0.641760011414225,0.6022206305561675,0.7526469660321629,0.6644609141554805,0.5781377430445978,0.6474644360726052,0.6009786528747847,0.659883840900801,0.8404936750017791,0.6147339848490263,0.6501515194823553,0.6672712946215509,0.6213189665541992,0.680236869385795,0.8649920431857845,0.6598390585059895,0.7347310856518525,0.6992329682722567,0.6568514849116942,0.7725248838196646,0.8916084108967814,0.732780018037164,0.790219509611571,0.7056284488159184,0.7170971797316403,0.9022732947236507,0.763077369371908,0.7884860759471144,0.724654897265278,0.6739730669764026,0.8220127525446828,0.7981019388481976,0.7440948826220672,0.668810779293808,0.6067783981883756,0.7104882907648384,0.7356899022778951,0.4725737462213937,0.6739165866218426,0.5999397645696252,0.5582635298637362,0.6981782821021449,0.7578778338331593,0.5354864965867914,0.6907129081395291,0.6159651155670998,0.5842937761327884,0.7716331011197706,0.813138032600621,0.7336270900509476,0.685838575959494,0.6340480594589122,0.7568337025419487,0.8685087127202633,0.6628493291015196,0.7368969657077755,0.6755220930712944,0.650378573295679,0.8317292146334732,0.8004318568535795,0.7214009815872451,0.7090043636610674,0.6587500137199915,0.5331981472599252,0.6847887550775795,0.6231370672742915,0.5884368858952274,0.6412238918669051,0.6221224141404511,0.6567528305451977,0.9024216099441567,0.787429987423111,0.7352200095079822,0.7683254959731347,0.8123806667533879,0.8046794833509343,1.0000000000000002,HB
0.009194967602913606,0.3224766513056272,0.6398715029535305,0.8468998108863705,0.8751193816576469,0.9011295697169192,0.9283929975025261,0.8669534187161704,0.575440885823975,0.2624142039425478,0.21897676272365948,0.5096505719001413,0.7920261604109669,0.8793178258911344,0.9040612364045867,0.9124821606848538,0.9258031530735616,0.7149963984079677,0.390693918764617,0.15994555585339434,0.33843385441849416,0.6523365829681904,0.8565004642127177,0.8787160032829667,0.9127217229566299,0.9397611752165879,0.7879873269188412,0.47217235476183306,0.22148612793013175,0.35992671250651975,0.6643779987772639,0.8488135626401682,0.8836861302546425,0.904998735340642,0.9347949583896843,0.8100611053974102,0.4970138775629257,0.24101029162416912,0.3729744147378492,0.6808959157540656,0.8886093589786167,0.9238226212393089,0.7337980002670481,0.4840831488185764,0.5850284993922048,0.8802102525877419,0.9774525057880351,0.9479730171365975,0.9280291405966233,0.9090449905990142,0.7909888105047402,0.5318433223179488,0.5354973788982378,0.8256166096145389,0.9843403933370213,0.9639537781249522,0.9308730465534826,0.9230720224672365,0.8140245147894859,0.5577445552833862,0.6071592861299179,0.8890673180093892,0.9757821395489129,0.9529289059841969,0.9333843419677964,0.9139068651473211,0.7159283513411635,0.46602125720693455,0.5826435227277132,0.8802053463234226,0.9844623624829024,0.9503146318449415,0.927949137363124,0.9025714259856054,0.7373529636515219,0.5024917196791905,0.6236246724447578,0.9011074804310241,0.9702121028943594,0.9551822573816374,0.9420351439167006,0.9281714014298917,0.8508282148080287,0.5919267669673339,0.5085934013244302,0.7786144446587911,0.9819266120556015,0.9664732550083664,0.9542995990642763,0.9256182800219542,0.8916228698764864,0.6636308368819296,0.5056465810246791,0.736380056482961,0.9791337609301588,0.9824304754209526,0.9573273387197047,0.9249612249004461,0.8650360274032848,0.6183445706275409,0.5107337383750694,0.7700073998228196,0.9810969091340819,0.9677493832005827,0.9476424926135981,0.9308868211045044,0.8087960212284878,0.5307340646459379,0.4964613031807662,0.7849636288024123,0.9953928047267234,0.9709655165058803,0.9427973882816482,0.9154043337549495,0.8184831024990279,0.5441973669306833,0.4835048916440712,0.7580880809157231,0.9742958609546998,0.9682433936845455,0.9434061772179777,0.9234206464821334,0.8404602373171363,0.5669784620392542,0.4356593865950752,0.6867218891873953,0.9461970636107727,0.9859543101057865,0.9582642611350615,0.9309177770998324,0.9096120132538313,0.7014064013120592,0.45016171536737615,0.553784000318387,0.8439620408079703,0.9999999999999999,0.9685000795470994,0.9486533156140103,0.9242234549637419,0.8310281451725797,0.554418247302047,0.4383552354650504,0.6988242628759828,0.9547987830432768,0.9703396867234991,0.9511745561663406,0.9224631022508579,0.9052573488208887,0.7389578910032568,0.48268562608785326,0.573177191938188,0.8713089986667005,0.98910890504867,0.9565798548932553,0.9320695603119028,0.9205967490213159,0.7645023453400539,0.4848391259841601,0.46338144190873987,0.755996090006525,0.9743779785662313,0.9592026246556947,0.950361934526294,0.929174921067151,0.9027653692024086,0.6821203676067986,0.49578260584063594,0.6973240046263509,0.9534118602109963,0.9714083367521119,0.9543781087132878,0.9184387191027507,0.8854913591676087,0.8858391624849401,0.9105943200692642,0.9267615221766804,0.8259644660402333,0.5251363978550905,0.24037260919095219,0.2739939172154777,0.576729384870992,0.8286372005808352,0.876366116103591,0.9035750449676393,0.9108512524847575,0.8825129701594431,0.6094461895276662,0.2933294410513073,0.21344088896471672,0.48135777518087375,0.7685770749003699,0.8798120215128521,0.8999945066328489,0.9193189595963439,0.9128602880775657,0.6646873831290782,0.3387189836904796,0.15285311947174432,0.3711596075969722,0.6816332045754843,0.8591023175441886,0.8756657193448542,0.9014124208243347,0.9179457494554369,0.8991464174109994,0.6426638701622606,0.3293135073438087,0.1829293349581164,0.42947937047721596,0.7318938943304865,0.8721673408466547,0.8908099482063468,0.9158436005015008,0.9419310439308953,0.8185199762787324,0.5075054183714245,0.2569362379189388,0.3963436316584821,0.700285859315327,0.8717527272739304,0.8846402793440876,0.9119711930442579,0.9309802170482556,0.8711912999729731,0.5792813461889785,0.27110984486823364,0.25896664883313436,0.5548958027192361,0.8184063850800317,0.8796318530784567,0.9024350411308554,0.9131585428151513,0.919248615477488,0.7058153541861379,0.39076071713812444,0.17605449484832295,0.3693723507408906,0.6790813561425182,0.8602050159451727,0.8816182552234865,0.9145600567004061,0.940022890154654,0.8045602890773749,0.49005244050037344,0.21055541355448723,0.2974858291550271,0.6066779524376206,0.8430307580697843,0.8838356497188115,0.9130040209218505,0.9243695249263043,0.9017852455342711,0.6351673570118945,0.3072520314968633,0.0,HB
0.9326437503284712,0.6307244319411138,0.5308503652064387,0.7888410328329567,0.8436079474714886,0.8050923800940182,0.8435717316625007,0.8993251730631093,0.7630999454374185,0.46614742625989974,0.45307985329772166,0.7057523615820189,0.7403189728936914,0.7503902063380703,0.8360312523937916,0.8844701689262793,0.7068104979081766,0.4092501738730449,0.44604827265123886,0.7118315615919257,0.7948694318363567,0.8295500608898188,0.9222157596055764,0.9853870127357476,0.8221648050598775,0.5199605151218185,0.5415407398803054,0.8067700122465691,0.8338857643281519,0.7695520725096179,0.6803526260024719,0.7102692863816669,0.6793395793974324,0.40966633740090325,0.24838713013792396,0.5013890870787201,0.6774765073737785,0.7183871992572557,0.7680007122097032,0.8533072628433376,0.7737054646096726,0.49343082688907663,0.33050259070530413,0.5685082697203496,0.7160789939554484,0.731820924626222,0.7760334903410386,0.8704287681532066,0.7878681569298898,0.49000683320335864,0.331917820194408,0.5826222979553035,0.7372263829792232,0.7293831661030641,0.7861981157415308,0.8915059254696658,0.8088335955824861,0.5107758651269159,0.3293445261371695,0.564223839287747,0.7387740400214149,0.7374965689512616,0.7711194843988078,0.8509045559932678,0.7778306044719734,0.4790884644744761,0.24703912178072124,0.4522625638045859,0.7099305330936159,0.7507933629323238,0.7561446735273021,0.8407849271279126,0.8261014486137734,0.5857171088427069,0.33271957596222596,0.4937944824454174,0.7145243281306699,0.6634135555624059,0.3964379446737652,0.1592818371260421,0.3379687019653855,0.6624012950423113,0.8168215942910493,0.7623058449905611,0.7152535404482203,0.6962293638752675,0.5888703618983868,0.2845703663633237,0.10338916322290109,0.3530519797321459,0.6791545687812501,0.8121710217067937,0.7392974773670187,0.7019467963821167,0.7005488665188322,0.551557384247291,0.23169836682816825,0.19290765008281796,0.5098086718510404,0.7980032914224531,0.834851708949391,0.7234885502960082,0.6854808392022587,0.6842552626886755,0.5123274362031291,0.22139593465049728,0.3121461843959717,0.6388165692712646,0.8271440438587059,0.7833806362695603,0.702307586111983,0.6815776720086999,0.6099437598019453,0.32114406054939465,0.19144672325029166,0.46723587652819837,0.75075305233844,0.8050505231812097,0.7115834857224954,0.6711189918312421,0.6227621710270659,0.39725382197595865,0.10200089302465959,0.19273698931583083,0.5170064496705904,0.6743455183559264,0.6443564417333831,0.6788734911272454,0.7766112480270977,0.7911240360118761,0.5791789567622703,0.26693143940870406,0.31493254914608365,0.6487313512982513,0.9137226859549121,0.9260542989086598,0.8115953830421541,0.7709359361605688,0.7235965556050379,0.4758750932583488,0.1927007782464218,0.31624343522792936,0.6411738955820325,0.8402847589860374,0.8108223431111095,0.7157509891352185,0.704582124347559,0.6959230577147726,0.4869582138421868,0.19574252010096382,0.2915960825830474,0.623943443612264,0.8440362654164146,0.8258276843990568,0.7603092358573014,0.7783443970545605,0.800150103922795,0.5754285785685487,0.35684881493320747,0.5619029272050353,0.8758573375267924,0.9488104364199945,0.795941229818335,0.6248720330172464,0.5726369136132228,0.5704099541598966,0.3852849895165514,0.10262348121508424,0.2156290023188046,0.547579434157422,0.7669687138802497,0.7747873730118024,0.7062469306062145,0.7212932169338431,0.6590448792905479,0.3582617061034618,0.11288013771338151,0.29175840012934623,0.631626753847329,0.8327380072830879,0.7689563976871374,0.6733385774721687,0.6472930787571078,0.5668979365555329,0.2548789636715842,0.09626565904071954,0.3584801515495944,0.6862616663381422,0.8366617956861093,0.781987425674407,0.8125293468495021,0.7598461343013188,0.5625541568603292,0.22652820918873157,0.0,0.21219542538741365,0.5415736217707061,0.6205280494563241,0.5361470191443907,0.418831536321216,0.14886829599778734,0.06890115407242908,0.3206798378067162,0.5945294240120111,0.7908960878915048,0.6844476147386136,0.3524341527095349,0.24072640486544888,0.5264079153656007,0.7013060171922061,0.4778217008942573,0.4508003156159151,0.750897754121959,0.8441170633494737,0.6499059215934031,0.38442963995364393,0.1258655871631082,0.18401410497023074,0.44802168788108615,0.5888545752477778,0.664377086369178,0.6656441665976593,0.3757353609303657,0.18162555989739299,0.3959141101173666,0.6958772273240936,0.8428801912722523,0.8394816088210655,0.8454273966043879,0.8628310362851428,0.6603401256820902,0.34939571738369707,0.35528387216779606,0.6306647766335984,0.6926645848687774,0.7111636268062931,0.7950594786472387,0.8829917143919885,0.7651406015127029,0.45714090748323005,0.350853901604627,0.6290961026682733,0.769484593769135,0.7623931205556609,0.763059177433606,0.8413491030272549,0.7553111728182194,0.4786857706289657,0.24906873071218455,0.43682987303357373,0.6160347589708044,0.6163526025001203,0.6645360025878224,0.8413975276568271,1.0,HB
1.0,0.8563884440245242,0.8427106537599194,0.6567233971170712,0.30115470007791245,0.6106279360513192,0.8436108701273763,0.737812134037414,0.7779915486196578,0.6094657801787702,0.27524454023666856,0.653403883729256,0.8899064113635164,0.7655372404643366,0.7961610653953866,0.5736982810218421,0.27360087501627817,0.6621717920264643,0.9402092924331638,0.5492170605626261,0.11049192712663558,0.42099815947049857,0.6951637189075512,0.663332757986645,0.7336900223033234,0.6095371502245648,0.11843264213804128,0.33701192483772147,0.6634651125604054,0.6619506542144116,0.7118037962360289,0.5999954184303449,0.13096205219962775,0.3697711526103906,0.6836743172172706,0.7749608946864486,0.73924515094471,0.8312416703247361,0.38128012088947427,0.293773858940618,0.6986820062897872,0.7894735600229716,0.6918533176971251,0.818977998198966,0.47783231365272805,0.09384118547666076,0.44304893574796766,0.6854347287074831,0.655394231384121,0.7040373195516567,0.5156734625903772,0.0794539749513743,0.39342040333095385,0.7100525202645418,0.7638461532243261,0.7083842464186465,0.7869573421210605,0.30912040840839383,0.2212654193316559,0.6678713209030871,0.7860308101515603,0.629721112172946,0.6802301479184143,0.38325306117179103,0.03450157109111984,0.43930992858123386,0.7402297622812823,0.7297397827683705,0.7550198330401412,0.6198342531535022,0.1251144191976179,0.339438098856645,0.6909191503713688,0.7793725673780596,0.7635095350036654,0.5932805921581714,0.10156661852455429,0.32741878544872804,0.7160390776474657,0.8525797299582822,0.7708032885066416,0.8403453667253897,0.4008724082597963,0.16429822864883104,0.5666512660486078,0.6715256486171524,0.5642872555284444,0.6581172249063316,0.34710598301802253,0.03723409843979408,0.4537508623782043,0.697102568339707,0.6046856125364655,0.6340727169458118,0.4578766117133428,0.034496551538743425,0.3411225594115126,0.6937043618356937,0.6920637399079581,0.7179781811940997,0.5817137604258642,0.14127654046355897,0.43192745180328407,0.7146816770930755,0.7209485915967879,0.7917153221836108,0.6203528074481661,0.15410566236834455,0.39737671486382053,0.7105513221256556,0.6502180971352445,0.6254906100734261,0.5339068593511889,0.030876736663153714,0.2112695171909693,0.6189420597687803,0.6727972316197355,0.6514011078845718,0.69921017105366,0.2211286661059737,0.2376326678578713,0.656499127717113,0.7336818838905255,0.6207345851813275,0.6661639987344574,0.21171047721616132,0.16930880149924166,0.6190287611930132,0.8270007196327254,0.7703552959817732,0.8217027793516003,0.435956427916119,0.13155126407793882,0.5464414029959652,0.7895815476386119,0.742666832592775,0.7216728432024868,0.4711348320662778,0.0,0.25473731220049745,0.6297949573598398,0.6650921385022133,0.6330688560791309,0.6680516280400912,0.1712350672867755,0.12694999362467652,0.5817193080541556,0.6796174035800724,0.29938323741209416,0.3115453405566768,0.7762809607997716,0.7532590119065938,0.7598901428284659,0.7466572704764682,0.4463250403798571,0.19016930391790154,0.6632116035297906,0.8420774310496317,0.8320670353064052,0.8843652281211232,0.7134324912189247,0.34848208860026775,0.6542139687964994,0.9463753556817034,0.8856629401479328,0.8970010435420748,0.6936202928504445,0.2899543641960425,0.48232279022591307,0.8192672956375384,0.7147287330603449,0.8350756610106553,0.7619530568600457,0.3978158106650538,0.4658260733563835,0.8424794113072553,0.7306016467647312,0.7908927947943725,0.686081759876588,0.2882070036225053,0.307881294589488,0.778487107409723,0.7432237609830228,0.7731325358243613,0.7969572587149067,0.48682244942355,0.35420556202057574,0.8255440131640523,0.8620330261707787,0.836671081144233,0.8062822817299811,0.5402011303109875,0.2968789595826422,0.7423833368625092,0.8104806515637941,0.8047119885148919,0.7836879500987073,0.4803206522995338,0.25061925631796944,0.6694832339474872,0.6961364587256162,0.7577547267889013,0.7546251628636194,0.40765993420244895,0.23833677128694397,0.7085344174737607,0.735982276820744,0.7037636224343857,0.7626182016631016,0.5735715419132772,0.3110710014167064,0.7691598925878216,0.9517990935604166,0.9034554681194482,0.9209090145601149,0.6997223440954206,0.29988030403873855,0.5625363120055473,0.8940339233261341,0.8564611086624057,0.8506206001497012,0.6610922655052116,0.2914887701491491,0.5876869905107269,0.9078043425368927,0.7996099213732766,0.8708753033707524,0.7079388347300384,0.2932060056385368,0.47763021912031034,0.8058095088287471,0.7310297578455054,0.8782639903549323,0.817099441217791,0.4383855423470746,0.5289990313043553,0.9342535322833374,0.8517576152057744,0.8972144652343323,0.795311273652139,0.44446199073045944,0.4176540391158148,0.8484212553229424,0.7736787902181854,0.7947098936213224,0.769229929686301,0.4902224500755761,0.3437927190063581,0.8358556537048214,0.8834854710822699,0.8471009085103596,0.9085755157938848,0.7365054632433958,0.40147016067093233,0.7511089157519288,HB
0.9657199713701604,0.8150564652304414,0.7662639157214187,0.8445884068079627,0.7163481437870199,0.4648264717177949,0.7276882646463937,0.8798011350381635,0.8058929266698759,0.7861481317680147,0.8307852467449287,0.7607197857818838,0.5026159334935157,0.726841516241226,0.871317622662186,0.7879062540854361,0.7332584832640804,0.7817612365248593,0.7693736880760432,0.4790525366195829,0.6206162629393644,0.8484175549148477,0.7940181399671523,0.7873818757935437,0.7940445590761854,0.8621435603826938,0.6242774175902183,0.6956626762442347,0.910527626166351,0.8345747670732621,0.8079853046075297,0.7333471888246822,0.8105625948865026,0.6178365491855592,0.5975593172581025,0.838658757198857,0.7721834380484182,0.7445166425877482,0.7460333577469506,0.7801953780668897,0.5286472045544134,0.6394141159237173,0.8817757499650319,0.8067248797041485,0.7716203203608211,0.7374792505484388,0.8048218014948197,0.582431055151731,0.6431280749102523,0.8806682251067867,0.7958772354555465,0.7605706840401084,0.7377873518477748,0.8549694436392382,0.7047348014026972,0.5054922701437731,0.7839946287650691,0.8228213860970411,0.7691224906763,0.7286532294378071,0.7855796872726589,0.8194613517848376,0.5632052932136392,0.7212829980783627,0.9111185577487478,0.8324081395586614,0.8157566863766136,0.7945577552168924,0.8329958734948232,0.5550552183582756,0.4834108230736639,0.8258237687241924,0.8423454881016602,0.8076913376730758,0.7721032574940628,0.8190837216626182,0.7182680650284169,0.46517871193746896,0.7082538095151593,0.8403680570241004,0.7955870130596624,0.7768732931182435,0.7602846696619735,0.8133533648279204,0.5591297378100192,0.5599427461911005,0.8400247169995795,0.7797283010313046,0.7825597832073686,0.7546318192950269,0.7645488655875484,0.5867320659348004,0.6606847727612316,0.7348466192040816,0.7282269003453216,0.66217121854253,0.25736141374632926,0.10070138857293942,0.46887298453993276,0.7577070860851974,0.7070021412826882,0.7357756606687648,0.7313957985247793,0.7459969517030994,0.48328448902113774,0.08410859956993777,0.1661325479536847,0.5883730755459352,0.7839887033683993,0.7216079933839631,0.7570252573532482,0.7519661316450345,0.7429214221315247,0.36332906332294246,0.06778654664541428,0.34348476551183593,0.7288373932393853,0.7665848614297964,0.7557424785719066,0.7807065590652603,0.8082916128550174,0.6365736043711675,0.21772190659493806,0.1859750289033102,0.5855272957245591,0.7916624689088828,0.674586238613791,0.7045100330611688,0.7205768156747759,0.7586649387724919,0.4549791816150931,0.1104418483819184,0.27401533687959456,0.6668167780906992,0.798802162011124,0.6845022303640081,0.7190641435280011,0.7297500285018167,0.7492389965551552,0.39284024714032884,0.06935458502653935,0.31309867813273684,0.6962558673657885,0.7199908543156722,0.6993657158637269,0.7466660883336326,0.794151989143545,0.5990742429866639,0.16591308448005837,0.04175984685694223,0.41466799346063954,0.7294722991718053,0.6889739046847857,0.7034632594667848,0.7165503210170489,0.6914756693436303,0.33268887221894583,0.04084662990384824,0.2877484576101025,0.6771220098859995,0.7292201784720219,0.7047480851504554,0.7777428737518058,0.7968748375633926,0.6368637699892136,0.22428351521784196,0.202126571075542,0.6089753007161517,0.8162492871731254,0.7204354660239155,0.7424404117641442,0.7374125162353257,0.6987513101348061,0.3056853213356343,0.07233141506407426,0.4016722775049013,0.7456033274017736,0.7104405132920318,0.7033563163927,0.73898622888431,0.7693203678984953,0.4629944658621127,0.08886653324659743,0.24773638376786933,0.6648976097265954,0.7868914195073345,0.7336555325500836,0.7461123860485542,0.7794939554733503,0.6007745628587514,0.18007631005417724,0.131457933164409,0.5380060344092871,0.7939790646598609,0.7207095774058255,0.7481552350179271,0.8297367185088206,0.7788713769229577,0.3701241609151018,0.2194528095949001,0.5930549191224682,0.8626046378910602,0.7145159468059689,0.6551993347865498,0.6918502989630747,0.732222892120805,0.48500665005995536,0.09519455020210654,0.20475515218565687,0.616396982613047,0.7336684835952282,0.6553191794134466,0.655714653832281,0.6432514284003307,0.4635875085485003,0.055799497914405416,0.0,0.4037445984364493,0.7687731370984957,0.9413791481452128,0.9435542927442243,0.9102017127758365,0.7464792478171728,0.6375757249441808,0.23031540747100365,0.017515284989844337,0.35564769023717846,0.6972205871035321,0.691093438836757,0.7227253648709234,0.756986157894422,0.515100972883085,0.6572382560910744,0.8191613339698315,0.8940830193753598,0.9999999999999999,0.989501896855593,0.9314730875310796,0.6407995507761405,0.3881415823640534,0.618641236749475,0.714063744407046,0.7073147734169926,0.7041707761845869,0.7818129241961603,0.6822842762205704,0.573486350966221,0.8201564651783836,0.7721388409839233,0.734050260423552,0.6976636523525283,0.8655144661209514,0.8587743023070443,0.6248206122598733,0.8622088814269068,HB
0.991951193057466,0.7005176627950436,0.4329205277459358,0.42613411827842174,0.7198875175214436,0.7172447510624049,0.4626547154590337,0.29747477127789934,0.5314273854605902,0.7821056876686991,0.6421425409145678,0.415980960890056,0.43373122797587427,0.7387398904553046,0.7160542121721385,0.5626885248502898,0.37260836819865273,0.4880695887197961,0.7730485729754208,0.6981517056622233,0.5496251826489764,0.29821076904994803,0.4743260140672614,0.8009422509761464,0.728085451115448,0.6005957296292592,0.4087800073583112,0.4670303050952225,0.7628112119791173,0.7168456744699097,0.4948185773914011,0.2697868849801941,0.42806144572765903,0.7757977748668317,0.659306104044912,0.5001911736214193,0.347327108555737,0.4950141515036319,0.8436937137751575,0.8095087422658047,0.5596126734047113,0.3453975823785884,0.49497944616081413,0.8807760488245167,0.8475387924930857,0.6049025419817358,0.4190654919630068,0.594032941733224,0.9505898073473651,0.8185017253196463,0.5684051591264374,0.39173764077696505,0.40216762056546185,0.6963275511906073,0.7468684972119519,0.5732369908419612,0.4807667336602959,0.3259455788279737,0.5031193676694341,0.8487871906156357,0.7299044498741221,0.5424688191543068,0.46530268868103497,0.46589625235354704,0.7259036153484664,0.5055204767410848,0.2165920198487925,0.35188603326180723,0.4066215420545485,0.5276169532521722,0.5896563108096784,0.3015516880439211,0.273613629981311,0.4081010013594428,0.4198776565856239,0.7798960500880783,0.6741142491977119,0.3454604035223643,0.3702643170106106,0.5050341099437723,0.7335503354291648,0.6995007725518063,0.33283714333886905,0.2577909907229514,0.3858774580519928,0.60074145411675,0.5989193184697077,0.27948763688683065,0.2632399997534376,0.3572797948517319,0.4988841831866597,0.539287981999599,0.22152303053075983,0.24077456490284077,0.40215695153272235,0.6161238063291001,0.5041839484926076,0.2608099946481153,0.4222778826656366,0.46268827428471826,0.6594548798896158,0.5326063592553967,0.18886728614594128,0.3001833489823784,0.39194700731056353,0.5113678903264931,0.5804689713510449,0.2865543890783815,0.30258116017553616,0.3647198151304629,0.5229568780113658,0.5854686579261112,0.2885490731257072,0.29434554540926894,0.4162110447625069,0.610437590781334,0.4380627488245794,0.18488612110984515,0.3095950804643086,0.4913636407919746,0.6050750932725395,0.357190347001344,0.2797937917999327,0.4904102270466175,0.7721379271728803,0.7048486575641462,0.4377529295032867,0.47101634192956054,0.6190960006567636,0.5885612351314948,0.23164178446501738,0.01992827921129825,0.29506277442553785,0.4194064420635695,0.58360334066421,0.6594234002283399,0.4428380433704364,0.37326727727094,0.5564129437408079,0.7318831366450709,0.672023509647073,0.2633415139122197,0.0,0.25501220333750596,0.42699606049231087,0.5414391105456111,0.5725906710554745,0.28802077363025513,0.16977857935960472,0.3325454562201038,0.42659569387304663,0.6111668273419284,0.47449983952592434,0.28343163591042386,0.2728287534788556,0.61962062872491,0.7570939006592943,0.43230667221128694,0.2849375170784627,0.5229038405924313,0.7551675040001695,0.47439560971746375,0.27686760067568383,0.3966812613134494,0.4830083443744615,0.7119591710679425,0.4931143414765973,0.269754077853231,0.35948528496696697,0.5036228810805496,0.7235326106564763,0.46525191784851105,0.23759312998304538,0.3332109983106155,0.5151537610925752,0.7294016161161088,0.42570846756403946,0.297580294075092,0.44134433429762887,0.4624741766633298,0.6676241751200969,0.5307839260242282,0.236332589704636,0.33697042796155796,0.5559182065621366,0.5779419301801683,0.34042750340864303,0.11497209991638391,0.41130639336497077,0.5271420323970368,0.2619504551826817,0.4452219924105745,0.7270653965076146,0.8386067621437425,0.6202662616735128,0.3709186413063674,0.4638023318208331,0.7804439499964426,0.7453939332820669,0.5768788527884217,0.5102695991138584,0.39077270582657264,0.6602034283925013,0.9108442139694033,0.6713117927162202,0.470155537954023,0.3590898863794447,0.6622651033736224,0.8857943027070252,0.6742659107807991,0.45629796995907834,0.4093514450812037,0.7417664703790503,0.8749826205194771,0.632142257475804,0.4881436953296927,0.40783886133820135,0.7376042900263602,0.9102532262189562,0.6300525543501319,0.4004056803311029,0.5939812836258291,0.9698338413499086,0.9105593118199751,0.5008935429766359,0.3648913467307515,0.5603287673849653,0.7421731873698929,0.6452215209576064,0.47169564792379526,0.34013247221002874,0.3179612056202956,0.6299345850766598,0.7349776578891907,0.6252743773879195,0.46571892319499386,0.2179854143151434,0.2781392286600861,0.707742542081945,0.9999999999999998,0.8279632032375235,0.5285223113487916,0.48585361752609946,0.7283797024902239,0.8274770903419271,0.5921840490511003,0.4936275648150559,0.2768670735509253,0.1913392580277733,0.5544310775220558,0.8176552825742569,0.7705675090847899,0.5592507010679328,0.6090831787171755,0.9381386848149524,HB
0.9339331278802246,0.6540377902097015,0.35521242503282435,0.16666000493652733,0.30470050247391745,0.47107693844341003,0.49143733221005526,0.4288300424396363,0.3543505957199622,0.1544239831594738,0.0,0.1884963056652741,0.46993657054579274,0.7741301299181821,0.9588660655629616,0.9022295020471013,0.7564849725658992,0.5315235036671802,0.5690848882594896,0.7551886144790322,0.7204920513502867,0.6707143621969233,0.5052907128121981,0.44592711528313234,0.624291180204694,0.6529638458347357,0.5313118052780036,0.31818236944552813,0.40061788899999007,0.6078911447608721,0.6380512102647921,0.5543453574969835,0.38779217030105495,0.5059820143676079,0.6132562581188061,0.5310314961490784,0.30532190142035254,0.3136853619201677,0.5514348340655388,0.6092438104131449,0.6076433687661406,0.46974959622360735,0.42453401769947285,0.5939949565923985,0.5989067444675438,0.5756481485787072,0.42889695496337243,0.38331414284789245,0.5648140178649467,0.6183262359850932,0.6237792673529439,0.45420700212813303,0.3976119479777176,0.5887925425922554,0.6296842394849594,0.5188283808225451,0.2923515292392116,0.3578497483266563,0.5808322577942719,0.6196853641193979,0.6319461489820885,0.5252060740102811,0.3636561040817107,0.5112052961834219,0.6210539667433818,0.6141088484408627,0.49345573415887345,0.32198038979700294,0.458665846954298,0.6027360428636941,0.5849898878927399,0.47651938193845167,0.2684686780635662,0.3688003115167334,0.5990782740206543,0.6340808538217174,0.46911990329849795,0.2710366639664952,0.4117778883329869,0.5910071636676881,0.5855133158133298,0.5772573551145677,0.4512318896390767,0.27356996141475687,0.4283650770903278,0.6299785388864961,0.7089547932586967,0.6502296302043252,0.407537909169855,0.374953626681065,0.6058134975282604,0.6787334908426231,0.6567672608856462,0.586671998166089,0.40100257290694064,0.4932202977402933,0.6294046561176797,0.6461334610783521,0.6273222519469099,0.4579494222025917,0.4169802157923401,0.5839657470060456,0.6039601957625257,0.6157950983733544,0.5014805000366773,0.3031712678007259,0.3861846880994765,0.5260049724908954,0.575512499134613,0.5511360126462994,0.3712139266657324,0.4440807310578475,0.595674007518127,0.6091623055292094,0.5341529096697015,0.3266721654128931,0.4062138032664113,0.5952311482991829,0.6242175835258156,0.6408416373432176,0.5775261196678957,0.37278830327622725,0.4338900206286873,0.6140859815318982,0.6173445265777816,0.5352153588261512,0.3081962842590019,0.33178911801776645,0.5570371902424767,0.5984832896296114,0.46007623755335814,0.27678681252965953,0.43048601077673154,0.6217438583551833,0.6536001615213299,0.643970959621241,0.49346397813970655,0.4246060646995674,0.6052579239661924,0.6667671061451746,0.560580996996648,0.5247265549001,0.6712119690492077,0.6867198358098262,0.670460979850131,0.5358630407046611,0.4385375274412858,0.5950551385721334,0.6396485200620171,0.506689634810167,0.36684021745782636,0.543445547824892,0.6484254049933152,0.6626989207612565,0.5446474906052029,0.4617413693920265,0.6296293771438398,0.6677854520383854,0.6518025331628893,0.6238036239053162,0.459135227299617,0.5176685387943771,0.6419291710347271,0.63998110653693,0.5825122779407651,0.42375513544696597,0.541114108357704,0.6174108252571633,0.572322408137612,0.48787208234150414,0.40017689277348223,0.5759622167137076,0.6474608518523254,0.6337879213974064,0.5959219295868127,0.46277510705254077,0.5991258715814441,0.6770472250832379,0.6721505058875946,0.6395573065159462,0.5062830622925524,0.6037744087184682,0.6839321048592376,0.7037507950772725,0.680509779783906,0.5201072593425773,0.6290879586847706,0.7525952308639748,0.695701513931185,0.5483702060708595,0.39471543810549214,0.5367061852797071,0.6125199765049254,0.6195699174963294,0.6035862178915318,0.4193097236327642,0.4714673527172105,0.6509465563140447,0.6731001712029375,0.4962554490884118,0.3578538343648061,0.5309735567783417,0.6153708703085644,0.6400208708746967,0.516302406134333,0.4174595430289181,0.5957436596892624,0.6480103440675266,0.6486848471833327,0.5070598340321419,0.47585588985674054,0.6487288769493961,0.6578240614230156,0.6514493280049319,0.5482174089758276,0.433633982840822,0.601247564032379,0.6635197123081359,0.6104684095779214,0.4499899371109505,0.5672913103604912,0.6687026492075488,0.641497263594076,0.5617093634021623,0.43374802415942326,0.5651106845000481,0.6191910388237162,0.6415077987377639,0.5916280048080809,0.487659281943738,0.6183346185560518,0.6414833254958378,0.64327338360449,0.47966444489122617,0.41043250902603523,0.5994362130138325,0.6444651144117489,0.5291779839727057,0.4775308173359136,0.6383525782692699,0.6705851858054067,0.6153707154010655,0.44204086290528166,0.5389431044985921,0.6749683698828121,0.6770780824053472,0.544491810217754,0.6018379990645635,0.7133799848996366,0.7609488592429862,0.7903297919159279,0.6393544228258546,0.7413074993844729,0.9058668203009791,1.0,HB
