0,1,2,3,4,5,6,7,8,9,10,11,12,13,14,15,16,17,18,19,20,21,22,23,24,25,26,27,28,29,30,31,32,33,34,35,36,37,38,39,40,41,42,43,44,45,46,47,48,49,50,51,52,53,54,55,56,57,58,59,60,61,62,63,64,65,66,67,68,69,70,71,72,73,74,75,76,77,78,79,80,81,82,83,84,85,86,87,88,89,90,91,92,93,94,95,96,97,98,99,100,101,102,103,104,105,106,107,108,109,110,111,112,113,114,115,116,117,118,119,120,121,122,123,124,125,126,127,128,129,130,131,132,133,134,135,136,137,138,139,140,141,142,143,144,145,146,147,148,149,150,151,152,153,154,155,156,157,158,159,160,161,162,163,164,165,166,167,168,169,170,171,172,173,174,175,176,177,178,179,180,181,182,183,184,185,186,187,188,189,190,191,192,193,194,195,196,197,198,199,200,201,202,203,204,205,206,207,208,209,210,211,212,213,214,215,216,217,218,219,220,221,222,223,224,225,226,227,228,229,230,231,232,233,234,235,236,237,238,239,240,241,242,243,244,245,246,247,248,249,250,251,252,253,254,Target
0.8398468629116177,0.8216179347839695,0.821313667831135,0.8349479606472221,0.8482593067811764,0.8539513057180913,0.8747276527962546,0.9115227963741224,0.944671389447048,0.9440229988792102,0.9235618923442885,0.8987835795592776,0.87927075441568,0.8672481786631268,0.8574363476837987,0.8546212755516337,0.8584107466734874,0.8394673660989868,0.8073571316462276,0.7699969435684865,0.7305257907029035,0.6907710092954705,0.6496563905628996,0.6079713711856698,0.5734478562404185,0.535801295876811,0.4929616319833501,0.45045239329944614,0.41117072976115127,0.3690758530288438,0.32609337888220075,0.2831085846470617,0.2414077068154826,0.22985370699344507,0.2668849533018223,0.30984665036009124,0.35283278624150105,0.39581892212291087,0.4387684882455261,0.4796627901225937,0.5198053646992326,0.5626863675035908,0.6056724988668007,0.648568094895846,0.688802850743012,0.7295960752164348,0.7725377341687137,0.8148024828963618,0.854039830839627,0.8963421846108495,0.9366587181503208,0.9751630092953656,0.993624000937056,0.9681839063592417,0.9308738480798159,0.8916094551617335,0.8581831928130661,0.8412047563173998,0.826758579947758,0.8100116110318466,0.8154270346277274,0.8342943845070521,0.833120530462342,0.8283539408866507,0.849011538504066,0.8793106849801484,0.9082270168350716,0.9306323299452021,0.9258033583820001,0.9010299027797559,0.8734754094672202,0.8582633200908282,0.8454669865250993,0.8255460558023345,0.8266864373126499,0.8264575727741305,0.8081077659793868,0.7776115385618049,0.739637120278306,0.6995609502588531,0.6593926297924141,0.6165036512148638,0.573517515333454,0.5305313794520446,0.4876106273792883,0.44715038492555187,0.40659262187608647,0.36366393858956436,0.3206778027081545,0.2777003981715484,0.23596447176023086,0.19649985734003422,0.1538100871312987,0.11082422596426417,0.06783809008285488,0.02508560581480749,0.0,0.030181052675985538,0.06980075863119525,0.11117122653630834,0.15237753891888067,0.187101341334607,0.2213520748206982,0.25589512451887725,0.2956679579620691,0.33845354057340443,0.3782783162428029,0.4195331298567286,0.46249820376571804,0.5054843396471279,0.5484589170146973,0.590018920935828,0.6296004087660811,0.6723516074547243,0.7150228739553726,0.7544514525153214,0.7962401651939495,0.8388260268632819,0.878148041015469,0.9181676292143433,0.9491410972714539,0.9416270863035547,0.9051645215608365,0.8664526937071118,0.8325737287704533,0.820365531856335,0.8243442311419824,0.814676144285794,0.8128396220012256,0.82633289797396,0.8252835495193731,0.8282757503485119,0.8258489686180095,0.8469212854337643,0.8814244827152201,0.9090280691452824,0.9285738498581535,0.9149880476368489,0.8842001477308828,0.8747670387889861,0.8574618802781617,0.8453740377481861,0.8379441241106885,0.8487633370809999,0.8662807346550092,0.8438999732823036,0.834467532271512,0.8217377782050259,0.7925445832750764,0.7545031141519186,0.7141875159558793,0.6739617624275545,0.6322897340430492,0.5928431375529757,0.5501625405348607,0.5071794981729637,0.464999343627445,0.4257585238198796,0.3851101679449679,0.34946742569718253,0.30747507016675335,0.2645068208663641,0.225008234850515,0.2239638732038053,0.2604506176342384,0.3030776151472841,0.3460633160239371,0.38904945190534695,0.43203488720972905,0.47457336832026975,0.5138687520585459,0.5559212402498019,0.5989028931032477,0.6416385292650861,0.6811980616820902,0.7227956480714052,0.7654646281003694,0.8049112245904427,0.8466737928273127,0.8896456755223876,0.9312977958182477,0.9585389728595717,0.9444045603988933,0.9078507730699376,0.87186988534381,0.8664541313812525,0.8770061317212113,0.867269297619653,0.8346900057926129,0.8305971933206598,0.8570520398082947,0.8671009136100206,0.8602487099397366,0.857595347626653,0.8655957761536444,0.8969186674897932,0.9259604059417845,0.9482849531333863,0.9436749082557355,0.923651542594522,0.9018394222275717,0.8830253992982102,0.878566314451869,0.877898470634452,0.8775269274133313,0.8830545603840207,0.8630523557584434,0.8338843000771805,0.7978952416385818,0.7594302229745309,0.7203184311932748,0.6790998547500384,0.6362444127234833,0.5961318614573567,0.5552051591603425,0.5122538591811929,0.46945359452559143,0.42970880730415045,0.3883546818530256,0.3453863690021712,0.30240024667536136,0.25953757142385814,0.22148851232381975,0.21907116464250967,0.2553736143714615,0.29800051248411663,0.3409862133607697,0.3839723492421795,0.42695848512358936,0.469944621004998,0.512930756886408,0.5559168927678177,0.5988923650663471,0.6404817801974786,0.6800435845148812,0.7220450236528589,0.7433367635169552,0.7450686432684996,0.7643246990717342,0.8033309978185035,0.8443013121164183,0.8843535977145026,0.926944016793205,0.9662194335631922,1.0,0.9982737817069738,0.9647934378274439,0.9251816274003364,0.886309855324058,0.8573005720393102,0.8461681429036068,0.8344568489760499,0.8254555484927356,0.8398128028455262,0.8548745476713628,HB
0.6134735781858636,0.5624320691809306,0.5046933936449072,0.447662362154416,0.39690826105813737,0.3398546988729989,0.28067599054877723,0.21825167901525977,0.16032691560487722,0.09810485223311782,0.03515272679680648,0.0,0.04626268576769388,0.10905113696710911,0.16724553848693213,0.22886048227767353,0.29216888944066643,0.35240971129790855,0.4117100366838742,0.4749426768246072,0.5376274860744104,0.5955990362037524,0.6576660737346391,0.7210280503586626,0.7827323339156163,0.8408780523498403,0.9036048084315098,0.9621999155049639,1.0,0.9717460536753446,0.9106534963442963,0.8490918552094546,0.7919171584416553,0.7353438390424849,0.6836887853056082,0.6678332119860277,0.6538076482136768,0.6369821685259733,0.6478065377180768,0.6777122837481411,0.706912705192249,0.7323611263119638,0.7487430066286582,0.7502935143787202,0.7276088752824397,0.703180742677129,0.6688792096194112,0.6268856429999121,0.5733584903203828,0.514836797432414,0.45580225897225013,0.3955132603535759,0.3321959276593057,0.27007409078940214,0.21212888592147183,0.15292944326625735,0.1477466025484202,0.20575241921198528,0.26572411746218694,0.32526339874499677,0.38852526129031695,0.45067876920885297,0.5086178557905539,0.5712481081753693,0.6346108524364225,0.696104764623479,0.7543797473644767,0.8173314210581519,0.8790437915134863,0.9369740686148702,0.9920510614161506,0.9996791197373742,0.9488135809291602,0.8911841993848661,0.8327886753844507,0.776369806385385,0.7225661584225882,0.6999691817895946,0.6966702141851435,0.6762358446483134,0.6471347632826514,0.645888586971398,0.6769474999422316,0.6959977190189728,0.7078357420775752,0.6994058505851966,0.6813266189327278,0.6542199556763395,0.6109259922293611,0.553313205296051,0.49140889859566905,0.43356915452968914,0.3749195921154238,0.3149808622972823,0.2563928056172621,0.1954848635987647,0.13560558193855488,0.07778546323219415,0.0615171891458931,0.11607181852930848,0.17938065661699576,0.24047261166273282,0.29903973721966026,0.36212035313110014,0.4254713136695014,0.48644741718840834,0.5451059424941977,0.6082144487737349,0.6711772917954839,0.7294554868325895,0.7909308810703377,0.8523619530440889,0.910152634004691,0.9575006969595445,0.9401978626040945,0.8850452597755911,0.8268517555393344,0.7696667132663182,0.7119680843593938,0.6575223314916812,0.6271396765859154,0.6175783784142861,0.6104176318595684,0.6148833018090385,0.6375593726101951,0.664453365086823,0.6818295798134939,0.6970755964494992,0.6988608889726766,0.6849680890585523,0.6554117675622448,0.6023802002664911,0.5467188584111005,0.48832351561190523,0.43032667828825644,0.3697366678356343,0.31169683706124984,0.2579821482654051,0.20451124987784175,0.14368200328561387,0.0839650907083973,0.04408267731137683,0.08241669479008007,0.14185008268268684,0.20162858708373488,0.2649149255919103,0.3276962504334967,0.38573278174092707,0.44763993199415064,0.5109313309500305,0.5708046948140315,0.6304494013727111,0.6937133849276489,0.7552276776050098,0.8134895703782317,0.8762553905025332,0.9352162977129188,0.9883308005858462,0.9863587269640819,0.9342914934647493,0.8759164242129684,0.8182727419112035,0.7605001609298645,0.7050955790201932,0.6704772658443314,0.6599274426305046,0.6508580351942566,0.6608161453832235,0.6858867605261885,0.7081593955483791,0.7212264491668849,0.7171226030859725,0.6946076438921904,0.67086424204106,0.6324078989815454,0.5816478915775507,0.525396525210363,0.4657122608461497,0.4078412185035085,0.34644661405054655,0.2885408117252273,0.2271505666601199,0.1692465562994866,0.10840976480258879,0.057291109181527244,0.07237496644845887,0.13395681109615754,0.19443211262216842,0.2535150487986032,0.31668368477388453,0.3774193797686729,0.4362731191605842,0.49943406748661356,0.5628118588269619,0.6261896830845219,0.6895675073420817,0.7529321044741852,0.8144565873966987,0.8725775215956812,0.9298417729738191,0.953872688523177,0.9146841249387483,0.8572783425734034,0.7987705644965477,0.7416403895326904,0.6856510031529175,0.642248218429708,0.6347779398395192,0.6287705809849746,0.6330023565833969,0.6537773297398388,0.6851700967148671,0.7041670707919214,0.7187650890553596,0.7186839937283303,0.7015270082635243,0.6778121334138512,0.6385972859272357,0.5899545958483192,0.5549275447550552,0.5124780864176994,0.45231627505523164,0.4129454730171007,0.3646278224771664,0.3048512288740878,0.24683249830656184,0.185330690875379,0.12694073036598075,0.06576113070807421,0.01909550274966365,0.052800206560148055,0.11567681833460508,0.17905462465795918,0.24243244891551896,0.30581027317307874,0.36915278535609053,0.4298347564184122,0.48873213190016407,0.5519047354820117,0.615274877392878,0.6771181144653073,0.7351850261949129,0.7979684681634649,0.8587825299937175,0.9173104196403505,0.9728743431418725,0.9883555884017101,0.9432967908954537,0.8842056424652833,0.8270702615956087,0.7698971942581734,0.712391066278659,0.6607757362176332,0.6469732032255737,0.6386981322619407,HB
0.7302490017384105,0.7141028424441846,0.6967560039137308,0.6953480337220372,0.6953919430888083,0.7022427799326709,0.7187950743753326,0.7412936911147501,0.7652734595290585,0.783829150992795,0.7903432976257987,0.7886554776088,0.8022633421004421,0.7991422153873207,0.7898519563345316,0.8005894273015088,0.7873239048973772,0.8003527319331529,0.8132302533886326,0.8029525350805482,0.7903999347068518,0.7843462531533087,0.7707186874480949,0.7724439058109587,0.7744071664925776,0.7775283188960853,0.7583501617846347,0.7403718935240722,0.6983756497428772,0.6470667240907173,0.5900026673333598,0.5331714544095565,0.4721201503795731,0.4178606591171028,0.35199688272049645,0.2961402968044413,0.23709201706975458,0.18316416481243936,0.144476933664762,0.17050989781068848,0.22540633198045912,0.29166413860685036,0.3581346281241853,0.42215765498862856,0.47446484107451115,0.5396138849461449,0.6060855190711476,0.6725571531961498,0.7386970020505284,0.7933786938888958,0.8540583911825617,0.9181308993414294,0.9271242102967268,0.8799995513669949,0.835784712755633,0.7987103426626212,0.7658013577930731,0.7408631679196178,0.7195284423786408,0.7132440894336374,0.7027069384151776,0.6762950581271281,0.6638770347321765,0.6750320308362499,0.6614009328063499,0.6612097149339093,0.6875336945566408,0.7082813278209716,0.7301932849659276,0.7472047441579228,0.7662873045871232,0.7670945883961684,0.7670945883961697,0.7670945883961706,0.767094588396172,0.7670945883961728,0.7670945883961742,0.7667703324548678,0.7547761040052547,0.7467061721951418,0.7211501991111438,0.6995246164722162,0.7243731711958312,0.7485527405776988,0.7497847407730425,0.7618445239864915,0.7440676752718463,0.6989950695817346,0.6402992507663776,0.5873952904013353,0.5220674731326609,0.4682769643830973,0.40665814485696394,0.34214310693309047,0.29013011354805807,0.2251918311832517,0.1588358158056744,0.109041789084531,0.11619793494685915,0.16540134496101633,0.23152313630330879,0.29736782789073546,0.35078676857935287,0.41300555762881697,0.47947288264260335,0.545944516767606,0.6124159489030201,0.6780921811846321,0.7308386814141685,0.793897494940313,0.860202773256681,0.9150499427325816,0.9325765410183253,0.8823897360271231,0.8387121532836641,0.7963135340999226,0.7536030512594816,0.731846800549615,0.7175961032225713,0.7002645879936766,0.6803203916020437,0.6680423736338583,0.6557069539835494,0.6309662136337444,0.6186843690026445,0.6164666243379702,0.6250914744480629,0.6404728673899496,0.6565977630263888,0.669384860972055,0.6895841078987024,0.6812710929324934,0.6827893935382456,0.6963868559893958,0.7058212867336553,0.6957589652410023,0.6921491322817603,0.6816038840517891,0.6945727249299098,0.7004643490473814,0.7129149826373244,0.7115176747260152,0.6971437623420602,0.6968822607705287,0.7113400935521454,0.7132828713168129,0.7119852056244764,0.6779280044592224,0.6127843762214344,0.5587643856343156,0.49818464494623615,0.44551935153673083,0.3823957131919933,0.31612330239912767,0.26026671648307387,0.20087209511853876,0.1355984574542588,0.0832214387266288,0.02499033041639942,0.0,0.027451165925189702,0.08892537477663875,0.14461885002883879,0.20412712345772155,0.2705620325354876,0.33703366666048806,0.4035053007854912,0.4699239475292676,0.5293185688938005,0.585175154809856,0.6514550471247871,0.717926613919925,0.7836870421895146,0.8367697626485908,0.898929398481187,0.9260958098809167,0.8691000554378792,0.8237877760067303,0.7764757474786226,0.7416999869385021,0.7361907874668727,0.7488033285184241,0.7557349449714215,0.7586711424507544,0.7463542374785637,0.7219728612930152,0.7133545533658676,0.7132842179140817,0.713489507213156,0.7245180534046329,0.7331139770949302,0.7474843586992677,0.752016452705389,0.7713784763453946,0.7729552525997083,0.7744953225923461,0.7849824861821797,0.7942729765508201,0.7918569454871656,0.7852136017306339,0.7950793156193847,0.8032535849560851,0.8150855871637144,0.8163217680382546,0.7919462628747636,0.797677680383873,0.8030799674328333,0.8126895542712074,0.8147366129995381,0.8128312405623856,0.7815417874952737,0.7288843834666263,0.6685800122825785,0.6141524109053358,0.5482685548734199,0.49264151812478385,0.4330037339499828,0.3678104148269479,0.3154612012123734,0.2515722454223752,0.18935565713297908,0.1361300741711391,0.08369370400060339,0.07512855036433708,0.11673128683758316,0.1819331870355172,0.24840482116051765,0.3148764552855212,0.3813480894105239,0.44781972353552524,0.5142913576605284,0.5807544541110681,0.6436275137522443,0.6964705260196329,0.7622411039998243,0.8287124688053735,0.8943466030930001,0.9469085277812517,1.0,0.9838233972337331,0.9396061091455103,0.890912040860997,0.8457452756724364,0.8165442624889554,0.7818740528780217,0.7670581678606898,0.7545953088712696,0.7328132607271551,0.7278037437050262,0.7116117474520101,0.6870913386005606,0.6863121891915811,0.6799978259255588,0.6845608815405066,0.6996161309649325,HB
0.12667651475178365,0.12125041818029869,0.14252898081166876,0.19152851691070039,0.2579451988545616,0.301711544323759,0.3041268027153534,0.30645224114599,0.339598277962355,0.3732401860355621,0.3567563711189452,0.30992784928492734,0.2644282213737963,0.21267167899460304,0.15338859804578409,0.10766763206650687,0.056523571791421645,0.01982808006747483,0.0,0.0013966363948010319,0.045166204809101274,0.10797665366174725,0.1545098412565653,0.20535497143854364,0.25161001428264607,0.27088449944135773,0.29026498463319594,0.33997124598243555,0.390580707234077,0.4188018203127495,0.4080273536340777,0.42716294599574933,0.45049343380528173,0.4679763435515958,0.47436594172982405,0.48277907141979615,0.4863885375201358,0.47030623848448894,0.47726218652208763,0.5016285132183205,0.5350420695426967,0.5656570565015286,0.5861285373727267,0.575293903320476,0.5424691263333603,0.5179082029942519,0.49506406854373664,0.473159870899142,0.4675533245645851,0.4816769511608716,0.4743816850391882,0.4741399554037211,0.46714195430548866,0.4743627189666286,0.5259550901462808,0.5773038226071132,0.632871959128857,0.6920308791585623,0.7599357512598424,0.8166650177393273,0.8760463536385941,0.9441072082952013,0.9999999999999996,0.978585448836303,0.9140108559045776,0.8554969231059211,0.7979477719012831,0.7299243216183631,0.6660374837601637,0.6149400216845224,0.5648224858100899,0.5184969893694031,0.48866358470804894,0.46838535646615753,0.4510830783504036,0.4467004602089064,0.4459184212886531,0.42566204030229304,0.3937904195095472,0.3856733303262807,0.39254863328095935,0.4066478798271027,0.4225764901866609,0.4339731748303395,0.4617822652376984,0.4673979909096482,0.48070506795861867,0.48741721549680905,0.4892594557455592,0.5055368824200048,0.49434291418767584,0.4933498518462387,0.5074601921982209,0.5077972960141315,0.5082006566180604,0.5249670554050438,0.5574430139621822,0.574905208715462,0.5765826269526744,0.5542278993763325,0.5282802233659738,0.5021924807711993,0.4728913965705912,0.45152172101511523,0.4615743123842906,0.4669476608543248,0.45516265763171315,0.42904034237694155,0.42797730751283813,0.4541138327039196,0.505629022784853,0.562148988031415,0.6170158237930399,0.6782566482634467,0.7463696627677119,0.811955825630486,0.8635688104024442,0.9298381536638014,0.9552573427015036,0.8939743077680902,0.8298630095351274,0.7773147769003277,0.7126760028882382,0.6617877086916919,0.6113913857137407,0.5540687657518815,0.5027459463720314,0.4642345236303118,0.43912153065268855,0.426567980057885,0.42604973809375046,0.4113294697007479,0.38990910853817073,0.37905782890588346,0.3511747244614747,0.34720677375004527,0.36392207955308287,0.37658077403346146,0.39882228937392217,0.40956623096354194,0.43081843052369884,0.44629946267239395,0.45594884472892216,0.4669432679549934,0.4671271352043411,0.47410232475183456,0.4743416974454635,0.4870674129007382,0.4885906947920029,0.5004637196548631,0.4887516734294337,0.503245793030362,0.5139462904304248,0.530771220660899,0.5575468082251254,0.5643027282360173,0.5352195364532228,0.506769900376979,0.47825664185308314,0.4546190872002147,0.43846130870995736,0.4265485458298257,0.4295708297685037,0.4370684829414029,0.4145024033928113,0.38828239839643786,0.392548748276778,0.43349915097868985,0.4909074241343059,0.5432118388490021,0.6079295127290036,0.659524568775574,0.7263249005667296,0.7944503590532239,0.8585431792670604,0.8980974410144511,0.8714520806750699,0.8121346107662037,0.7481405179575438,0.6955779364358281,0.635812054301188,0.5843747271933943,0.5376757694842045,0.4923199151304347,0.44238776999036045,0.41406097889132987,0.40292529345140426,0.38686600860207365,0.38529451624619293,0.37125652088285044,0.3640204142621246,0.34754149379883215,0.35029250547022306,0.3778522003438729,0.3864612329792072,0.40247845598041154,0.4194056356334679,0.43543947798182847,0.446574472275707,0.4492157802028318,0.4659198423129882,0.4777084071406459,0.47104635497335323,0.48010031430953903,0.4686278333687044,0.467063678917778,0.46826354540678405,0.4831637877122672,0.47075577299247806,0.4829247491659161,0.4895323604500943,0.5142128946407709,0.5273235630823332,0.5123354137919396,0.5016304288972107,0.4729191618032633,0.45108569140517485,0.44667063380132355,0.4386015671470087,0.43950207374399053,0.440310177430534,0.4232911923342053,0.4094934929651153,0.4349289053148637,0.481422254528288,0.5354930527328232,0.5965465335807556,0.6534018378716344,0.712635105394769,0.780716831627887,0.8488468870485613,0.9168901333207096,0.9600926906861655,0.9226518838773559,0.8596354618340833,0.7990155420977194,0.7436066574095532,0.6876143199273947,0.6306524192732486,0.5829829878206954,0.5332747310941857,0.48555364055307937,0.44701577882775423,0.4209647434422483,0.40664309521331266,0.41876117017878967,0.42445411659233656,0.4045989251869111,0.38673900972263997,0.37917577647948564,0.3659088024193422,0.3789834001164718,0.40168278775960653,0.42427549291911637,0.44437896647027175,HB
0.7801618329065043,0.8277355071002148,0.8560183612716958,0.8089360841912345,0.7649267710676106,0.7625276485732986,0.7625276485733092,0.7625276485733199,0.7625276485733306,0.7625276485733412,0.7625276485733519,0.7625276485733625,0.7617805888572136,0.7230101684949943,0.726441548155428,0.7620370315803537,0.7625276485734052,0.7628101641915208,0.7947166222265949,0.8170427343623583,0.8170657648269959,0.8170657648270048,0.8179185052756459,0.8552803766578343,0.8824677273853627,0.9250987020585129,0.9252452547772272,0.8632318123995244,0.7684810918290683,0.672801629159931,0.5818495620359556,0.5450264919569587,0.5819453295331893,0.6215017775796117,0.5029964540582554,0.3843720054414277,0.26845683397988296,0.1579650934946546,0.11253700192339089,0.17885245894862578,0.2777709383589002,0.4078870974505584,0.5098781754179758,0.6154823535267848,0.712010906192651,0.784445589873723,0.8543391428276674,0.8710834694267113,0.8353107582034518,0.8163139130104824,0.7761239871054944,0.7625346109464477,0.7625276485736379,0.7625276485736485,0.7625276485736592,0.7548235076074175,0.7109327522008986,0.7079966768073405,0.72092177730282,0.761634681790941,0.7625276485737142,0.76479790589757,0.8075087514688217,0.8339175480432655,0.871156149100127,0.8942535705885106,0.9261279177123747,0.9559229963489138,0.9785393716726603,0.9331969164024656,0.884902687627303,0.8716107033657376,0.8716038810809135,0.8717181479641027,0.8909355729922908,0.9256991540862316,0.9071220406589227,0.8259297434003727,0.7118575830944707,0.6174299604099325,0.5978772371579169,0.5235850662627275,0.4187857980161951,0.2903473368803233,0.15225858401872294,0.055411285952377654,0.0003272100734026395,0.03138566985247593,0.12041575621906198,0.21873355274688677,0.3493579077509086,0.45079148289002013,0.5791020436763965,0.6554230934842895,0.7308708126977415,0.8148219513172528,0.8723624699407626,0.9435882161373357,0.979495493994067,0.941308011528232,0.9261727450616029,0.9261255790228571,0.9092571048758558,0.871353944698015,0.8283113582335755,0.8237855489905961,0.8686790466500263,0.8829664504020407,0.9251817671118836,0.9421532215000301,0.9801535357241296,1.0,0.987537595569087,0.9395616041979942,0.9261488756547553,0.9263615709800632,0.9535150217105706,0.9794954939942286,0.9270550138012403,0.8302817640343232,0.7335617992154013,0.7083153788673862,0.7343435057323884,0.7913888858836504,0.7140426525993178,0.6637850969509866,0.722570593007898,0.7952469460826936,0.8615907817859405,0.8718528974260842,0.9016627233233212,0.9261163892513053,0.9261419973348541,0.925655801768082,0.8900903630209722,0.8716809733438264,0.8515700987104573,0.8161205040479462,0.7717168208250609,0.7625325656625215,0.7625001352941574,0.7364783143606335,0.7162657326116175,0.7604944472069093,0.7625316971170655,0.7698452844591834,0.814542985941161,0.8105076837383187,0.7724649525136353,0.8140605529090621,0.8283075898671601,0.8706323871610469,0.8865925513298656,0.8837390648864965,0.8722054893332398,0.9072969794459613,0.8795629630776052,0.7729865131080533,0.6729219816882122,0.5565910767156375,0.44795299568509606,0.3825202422492957,0.3580236890259023,0.24244186231591414,0.1404048784353975,0.039718144444231385,0.0,0.03355238595276511,0.13022656510964303,0.257013483154493,0.36441375012407207,0.4858078002463717,0.595632248055411,0.6845958969880677,0.7519418065211827,0.7625204200345017,0.7620502958602433,0.7265967585422857,0.7080892741335116,0.7079920398959043,0.7119867004598355,0.7577423130047389,0.7438914201672784,0.727137593972655,0.7620374024117087,0.7449018408423704,0.708641815837824,0.7079895323210543,0.7079895323210632,0.7079895323210756,0.7101738795312844,0.752661206898031,0.7625223252312452,0.764540175557558,0.8074479392627119,0.8545270916165801,0.8715902225033059,0.8766273756148575,0.9220688896374263,0.9261419973353568,0.9261419973353675,0.9261419973353782,0.9257486517200793,0.8915399032320082,0.8369979204507825,0.7219026810215521,0.6132234228215161,0.4944348527840585,0.3961830744089134,0.33235485217256233,0.36056808917398975,0.45581648241717687,0.499206254559871,0.3714458257543658,0.27192165746677155,0.1616763623400974,0.08870391985662351,0.0806267718257061,0.17701390132257977,0.29391620149433173,0.39500390793605433,0.5238660119719221,0.6200521534797527,0.715848077418606,0.810565501128524,0.8522095886607755,0.8175477998238438,0.7915742374241432,0.7880094819457248,0.8169244405099576,0.817069701300781,0.824211393398647,0.8860158323892247,0.9249573777414657,0.8885810595007335,0.8716709414856041,0.8656818014864882,0.8065325320259582,0.7637257525603758,0.7625305764138197,0.7674303988263489,0.8131378970580219,0.8451135842328146,0.8912617237935319,0.9257401364242117,0.9349689367414218,0.9780588283456861,0.935995263135661,0.9221888324778558,0.8649936067894828,0.7421767785595623,0.6012044552786922,0.5130374560667583,0.4901600140328295,0.5103487282181511,HB
0.7319359042095712,0.7451922349849287,0.7916785066776448,0.8216805643538128,0.8422237117316471,0.8999667442956443,0.937748400501544,0.9505079919067771,0.9593185620983373,0.959391464744157,0.9502216672208443,0.967181387481447,0.968529693498374,0.9637086423446015,0.9860780098445701,1.0,0.9892013389041812,0.9652013065870095,0.9250427496032727,0.905983853247573,0.903429057471175,0.9033455549905827,0.9201183038526204,0.9483714333409874,0.9444502461062476,0.9171089113577615,0.8776625090060799,0.8783316188658867,0.89411675090264,0.901969502764234,0.9027831538960247,0.910407269565455,0.9016802177030967,0.9210133747114653,0.9052152232511252,0.8509565640271752,0.7850660451605553,0.7195447669312864,0.664957293515259,0.6019668487645853,0.5363478501622048,0.48137377951973903,0.41887405923978704,0.35270937951389736,0.2909161749833109,0.23541233166215147,0.1696028219762713,0.10505204727710105,0.05119329935602379,0.0,0.0038558797346095464,0.05977962621255184,0.125805526854752,0.1847808074973727,0.24289676861777787,0.3089080639791879,0.3685147881156461,0.4260113534986929,0.4896166697106361,0.5438234310873207,0.6089587764283562,0.6744262865340849,0.7292067745503577,0.7920542504959753,0.8558229941757669,0.8890060209887607,0.9038881080665115,0.9129210977377213,0.9047165208464709,0.9158277637871346,0.9340045094932115,0.9312461964067298,0.945434458966421,0.9640744308198164,0.9657120825561742,0.9564696725020392,0.9308436331229051,0.9074221533469307,0.8840614167769401,0.8721817048738583,0.8825447325814118,0.8906325954085146,0.9212341340777028,0.9126663825219632,0.8869511776547379,0.8712304349242483,0.8852499670826468,0.8854608173628322,0.88739677336623,0.8872885145840095,0.8804220000989145,0.8719318913447154,0.9038707392158956,0.8913464395697268,0.8395239522331317,0.7818673946468828,0.7158415908693541,0.652770325901622,0.598142123212694,0.5327464753379894,0.4665614252438042,0.4037681957573056,0.3489496364091982,0.2834637994853093,0.21727196810032168,0.15118923048661648,0.09562612174471052,0.08651026099602444,0.13042110189652156,0.18384265821444412,0.24854712773892151,0.31471891204091995,0.37633282745707586,0.43198069796613403,0.4914420246668829,0.5486702294880019,0.6098107676403108,0.6657751196877704,0.7316124228542411,0.7934398098663529,0.8412435251766035,0.8807672583488193,0.9088255461756374,0.9124861684653274,0.9040776866431122,0.902837024420065,0.9151310445308782,0.9326686353668294,0.9420566338174643,0.9523328846443309,0.9684166211035192,0.957821558867439,0.931302115651377,0.9054219304130529,0.8848493395813306,0.8800005386359908,0.8986110061383696,0.9028404370933512,0.911028726414878,0.9217484364134965,0.9087597210869816,0.8953677844916439,0.8872507277838286,0.885378338527945,0.8960151440904407,0.8889152305545873,0.8990262584999877,0.8995339165186116,0.9010504754611479,0.883338317075471,0.8268334823249575,0.7607752655756874,0.6945832438719952,0.628391222168303,0.5621994958247658,0.49709475852101637,0.4428975149772909,0.37910425063640707,0.3129207569573602,0.2499178165729663,0.19988177908962235,0.17361289701466598,0.1967157394623289,0.25499017616371433,0.30908044925828015,0.3707373740960842,0.42532426678984026,0.4908455839240755,0.5570364209150709,0.6218755452080971,0.675825325094888,0.7401292696653146,0.8048332388981092,0.8484540956991884,0.8964795929703508,0.9058559656532679,0.9042025247757999,0.9052281325600338,0.9134169029323598,0.916785575531101,0.9304291625105505,0.9541911041695306,0.9597824763036886,0.9477436291832451,0.9227976921118639,0.9001165916609413,0.8792614679256161,0.8723653586853168,0.8904128335798771,0.905752236840299,0.9261171767464003,0.9094068093606076,0.885556472099839,0.8818731331813989,0.8892740620771549,0.8884378022535224,0.8913859119506493,0.903136642265935,0.8987583860226178,0.8983232140669597,0.8850042588096585,0.8269391146738605,0.7608228298757651,0.7011351762168108,0.6436913041470484,0.577684482800032,0.5114924682421496,0.44530044653845735,0.37925937030477685,0.3218229769228136,0.26214986924168815,0.1960178302320179,0.1305200873139296,0.07604841640859683,0.024978283347060426,0.024970923983532956,0.06977191388736426,0.13045676746407064,0.19434302440883444,0.24851171445368214,0.31343660143031093,0.3719972767082602,0.43052244685439467,0.49545651726600504,0.5494877721382441,0.6135157605293178,0.6797051658605779,0.7455394022606114,0.8011610796832365,0.8576009445022437,0.8998874325616355,0.9047684400345126,0.9082183480390751,0.9278367050336964,0.9245289090533064,0.9197748569965829,0.9507705937556805,0.9612829411668491,0.9725778097479947,0.9569898116673277,0.933608042088756,0.9009317808445405,0.8750701776853123,0.8676636858124214,0.8724371772823751,0.8823886882027665,0.9215087084623192,0.9189258442317949,0.9010594125351075,0.8738296887685935,0.8703942982244031,0.8878029942845758,0.8936429364812883,0.8837267094639052,0.8941294705550802,HB
0.17770963395383532,0.23749897841483936,0.3058063284493877,0.36393127227373867,0.4182816754943728,0.44045007697000615,0.42318924868117413,0.3643263505028762,0.29749110925036826,0.24056774983302454,0.23865101901935493,0.20771619813642728,0.1961090418843221,0.18162164748632303,0.136962148609014,0.09001152096013287,0.05593371885190601,0.02923830386132842,0.06313325304203321,0.076473581055708,0.07820033625294487,0.06859398659173621,0.06576394135534747,0.08006633574359023,0.08637602545607237,0.13435283018793154,0.21682702880930593,0.31134965471052034,0.39576310177419893,0.4786104386071064,0.573093595862876,0.6594028739991296,0.7383466263887004,0.7940610705146329,0.7702012753323397,0.6861768460708118,0.602194056243309,0.5189995727711323,0.4244356045838784,0.3301559598613659,0.2502726134917226,0.16277595036922854,0.08286847412844534,0.1004640729724513,0.14262944714898307,0.190964579103988,0.24788446415928034,0.3065862761493867,0.36577907620032946,0.4228327995834289,0.4550346674878387,0.4244243045504046,0.38270797114986,0.3260014493062213,0.2671217195329718,0.21076621037847687,0.21968577013568646,0.23801692457376689,0.21736710727266528,0.17886809669456882,0.1354527035548978,0.0789656138108854,0.027629307870897346,0.03220207194839375,0.054546061729638495,0.06375760327474067,0.07557385368348513,0.047853159985200566,0.03404988655356256,0.021903636708114238,0.0578385112892259,0.10251945021939024,0.17144051445823338,0.2606641003958132,0.3508844910244471,0.4287688510705183,0.5221453002670544,0.6045709904795173,0.6792391983521537,0.6966820285313324,0.6285833253259523,0.5385538375458983,0.4611241069720502,0.3675498200928149,0.2728287840688015,0.1793870552693586,0.10177661343795741,0.015158456924316166,0.01588413047696946,0.0778176952339038,0.10627920823791603,0.13994876602823414,0.21263343017515401,0.2707824361267859,0.32666902680491594,0.36914664384572893,0.37106890737441534,0.3311773732281744,0.27395614800594403,0.2098946652478788,0.17129050692928782,0.1534217082929521,0.16940074435551278,0.15860699672652734,0.1138105311276969,0.0652292187597765,0.014305603011362411,0.014224739152056909,0.0,0.010092088641757702,0.023401755667736168,0.03968450751091712,0.05726097829338794,0.05183683077664325,0.0829196596226427,0.1478524512903534,0.23649978425231977,0.3140760803421423,0.407502583770448,0.5013040132802389,0.5791719212280042,0.6675765521433505,0.7367796287740442,0.7485116694748633,0.6880858011536017,0.5954228076451566,0.5162755077531238,0.4278529850119499,0.3331537643540168,0.2384323185503554,0.1437489287324527,0.0662464753748151,0.09031089482504218,0.10892694080424414,0.13569195100708287,0.1887436964862439,0.25365238670714874,0.322859829670878,0.34967406356903696,0.324486013018642,0.29094162498208664,0.2344133756846838,0.1915877206024339,0.1466000972278465,0.14239546295543448,0.1502745929004301,0.13043052974075398,0.08892579730564076,0.03533335433578477,0.036165532394165645,0.056661785346499016,0.05221691733353673,0.09244264559087823,0.10942839966905149,0.11408439598785813,0.09143751148188262,0.10028984581570288,0.0699165740591905,0.10838089603976009,0.19346678626480074,0.27134074980458234,0.36490137030278413,0.4564900411082764,0.5334877241676277,0.6265792694309176,0.7205954842250528,0.7994584916153449,0.8880258429740251,0.9671914837476732,1.0000000000000004,0.9497139976073963,0.8701244803130863,0.7759154896635745,0.6919518014673245,0.6086963698155716,0.514130625669583,0.42103908040629534,0.34404139734694006,0.2524919839126203,0.1650499138551762,0.10838895939658233,0.13887402128488935,0.16389207387551652,0.22550498143114028,0.2932634528521074,0.34443449629872136,0.3965418944078376,0.41642346569728295,0.380970026025357,0.3334637219679304,0.2802427447185818,0.23775405664437788,0.2132309031925561,0.23652466902775604,0.22313477398807402,0.23691481423586058,0.19603594034901928,0.15608755958915443,0.11338522428958875,0.07280169203258824,0.07910595685887989,0.0979020963368491,0.1207103987582605,0.1147027888896659,0.09464556115626399,0.09724460948719749,0.10284208829607566,0.1293341772950769,0.20648296716289716,0.2889472119909273,0.3734634628724942,0.46809213686754214,0.5628135826712017,0.6575051517671144,0.7450466460414273,0.8234658340776453,0.8827367397967847,0.864758852562749,0.7997288568434464,0.7093889005393472,0.6154190619895572,0.5366130971910281,0.447701114190485,0.3534254639730263,0.27340802685092136,0.18753609924443504,0.14709617758840787,0.16020028341238657,0.21387563762646478,0.27083804270650624,0.32195848282502837,0.36326912195467553,0.42816412387297254,0.45241385468114004,0.39584408938961557,0.34376659318236635,0.3012185194686485,0.22938008068901672,0.1950400978030431,0.16079952829925492,0.16379903842014754,0.21508409531863215,0.2295082448575263,0.17380181723906407,0.1216424431162002,0.07553662015586271,0.027644691064832472,0.008271799889814968,0.019674557405938486,0.019403581483842913,0.014367984857899252,0.056293013522998425,0.03782127404984248,0.030870651138565464,0.027621593962348534,HB
0.6489973543570988,0.6408941504542076,0.6549524653743704,0.6121200065271797,0.542305625031763,0.47114185807612596,0.39243588174322763,0.3225776839365819,0.23831407878166244,0.17237558180370316,0.1262418761768873,0.05661963065717046,0.04308774302082252,0.09924564062578245,0.1849094147537067,0.27151912247776,0.3444819349582935,0.40858056765831297,0.4499456209623114,0.47006427368460235,0.5271286538476252,0.5532462673669292,0.6000400615901742,0.6863833236837045,0.7686661386022253,0.8392677623153029,0.8970920014531512,0.8544672706479703,0.7922328867645252,0.749838265798652,0.7456957603448391,0.7375183451165315,0.7348925533350918,0.7325596246576889,0.6895290256598678,0.6621058684077985,0.6155116320264495,0.5807646087008025,0.5359747795515837,0.4914938403641349,0.4464275953922505,0.42373940394499643,0.45322916584840645,0.49750700298746775,0.5357663484875275,0.5947205159382869,0.6230461379229912,0.6497779373596879,0.6625684150928706,0.6867673226909705,0.6916180740456035,0.69176871025293,0.6866720072217745,0.7091839879998432,0.7311834097926533,0.726567936516687,0.7045051887693723,0.7064070417627675,0.7222962687102665,0.7073070104341501,0.7078454544633486,0.7266749677119488,0.7031567079099124,0.6647352299901601,0.5970009700289785,0.5145872639466886,0.44480181737807634,0.35949473467201853,0.2853945922294474,0.20700953008519107,0.1280006043205577,0.05573284457955596,0.0,0.02363200004712418,0.09691006465815644,0.1721076183082646,0.23512254960408052,0.29628736011526957,0.3509828397704404,0.43400070163056714,0.5183464542224558,0.5882836749101865,0.673177087640326,0.7601031996490155,0.8461300897162687,0.9154790087759328,0.928734090544316,0.877086680003345,0.8338959488911271,0.801026736357044,0.7891228528579202,0.7883499989096419,0.7725547009973699,0.7434221693627028,0.7030180418288432,0.6713036976454205,0.6364538479876538,0.5915839138440631,0.5359279375670636,0.4974013649901181,0.500738237335947,0.526312794523788,0.5687115233964213,0.6132828513985435,0.6614527170378359,0.6700248447519521,0.6968436268040423,0.7182629357494732,0.7008374178612233,0.6874098764100562,0.7156722635224844,0.6988379718706272,0.6900076727505211,0.6845966135092976,0.6829449254088567,0.696308468150836,0.6877058607349174,0.7110375634585111,0.7058851071935957,0.7025302131048705,0.6982413294030221,0.6776085491014698,0.6541813674192891,0.6042444093201413,0.5247013162047272,0.4378123943410839,0.3527010128752637,0.2826951938255773,0.2039218011021422,0.15034342040558668,0.12305730363172485,0.14778203196139783,0.2161111391717676,0.2890165435897023,0.3755391422685994,0.46246642346195577,0.5493886189186727,0.6327799325183583,0.702975435163459,0.7885711915974598,0.87549774682648,0.9600411336730077,0.9771651461077195,0.9164565079603153,0.8588488030011727,0.8130918428328928,0.7714254440069688,0.7378344138647792,0.728477764793511,0.744024194509981,0.7208561916244269,0.6900235233133793,0.672191542317639,0.6202149337106846,0.5680421996974236,0.5202996214106608,0.4912225791522755,0.4764088957483925,0.49237791416246734,0.5307466458042351,0.5756738516508353,0.6069269461897573,0.6384031343557002,0.6642375825418005,0.6656263359516958,0.6829282730672364,0.6958738617460432,0.6819063139073598,0.6809286382602373,0.6809284064611014,0.6811409329738081,0.6929880165770994,0.7088820311565609,0.7078269412193472,0.6850527621726821,0.6597368205163483,0.6434768005618059,0.6554619310681842,0.620955037291882,0.5559727555927849,0.4806344587724656,0.4087329629102405,0.3248879664092774,0.2558429804630453,0.19661374694689426,0.19684628748309096,0.2541395109102247,0.3376707812043809,0.424537459609013,0.5026277830606642,0.5770201314503351,0.663771706225599,0.7506989874189545,0.8376262686123104,0.9245381448272232,1.0,0.9760395729542322,0.9073555165881695,0.8763844111529928,0.8538271094447416,0.8324973174481904,0.8282119659501181,0.8032461195733234,0.787430717135762,0.7521779295669004,0.7067964320148516,0.667083824452273,0.6184932113828419,0.5734986783204037,0.5352760295983807,0.5120301713981101,0.5321324687964886,0.5743304787827128,0.6091349075675843,0.648906492133519,0.6709184704481772,0.663502021099355,0.6890948600761337,0.6677422383970661,0.6604478689300408,0.6766231871445059,0.6711359318653822,0.677353956747158,0.6917721099991323,0.6841861091845227,0.6981311226036153,0.686011813358625,0.6745230224275951,0.6650893976653296,0.6981618341351363,0.6929185698028766,0.6453717971142918,0.5776220762569517,0.5034161180808034,0.4285200155048581,0.3588651360345203,0.27432937071037866,0.20400414508336207,0.12446736805643388,0.058226853822501035,0.017857390501557102,0.05343649901627323,0.12810884117271204,0.21490159339682302,0.3018288745901816,0.3887561557835375,0.47568343697689297,0.5626107181702484,0.6495352976577693,0.7339517346498199,0.8038711427887657,0.8884079856528162,0.9392961539808873,0.8982946565344827,0.8488662330275858,HB
0.7615571900259903,0.7785628350551459,0.7622883843619839,0.7462217958289346,0.7234753309089115,0.6831835262379693,0.6299723628767042,0.5665701016125135,0.5106769387236305,0.4366597865474011,0.36094659329887335,0.263503748073151,0.1905181649835388,0.11162071281837083,0.04787917575779144,0.006263617814729727,0.0007330920879651259,0.041893792429459786,0.14397226818573916,0.22230655389866527,0.29674654417681,0.37503671435075603,0.4325178935272245,0.43808453449353113,0.506362150667039,0.5841201277038124,0.6551313501908318,0.7220508143741409,0.7600464525082078,0.7486300185675283,0.6639922887285419,0.5668350946469607,0.4828960338213726,0.39356328885591196,0.32940057731143035,0.22835978241406796,0.12175690295794439,0.0293524851458411,0.0026248246215230253,0.0,0.005120244222692527,0.04178218866138561,0.14144017412307974,0.21416903533790155,0.2007085165284268,0.26629077939799295,0.34807108427475075,0.44722982101625597,0.5274710186153362,0.5694896133700587,0.6167953926743515,0.6907837896566562,0.7616212924521681,0.8094245330665517,0.8098145614826846,0.7842266488363299,0.780626996703349,0.8218734082752022,0.8184583627813611,0.8398080089136437,0.892770101519103,0.9366317525843559,0.9634655950841475,0.9751177164095939,1.0,0.981496248896498,0.9195817222165807,0.8786098738478874,0.8514913609234211,0.8435403197490512,0.822643711325215,0.8118722637427904,0.8321748123358628,0.8343339877681188,0.8140023983002953,0.8386828245304114,0.8252417886239005,0.8114347509576154,0.8100678663289562,0.777664370303282,0.7242282803513485,0.6614104674525132,0.6273212949125799,0.6469099998534746,0.6813393711304538,0.747619453729313,0.7780790195778122,0.7662337276741145,0.6816553019868881,0.6009380332830867,0.514947808313285,0.43386976161191715,0.39271493464670915,0.4245742070855849,0.4641774242920995,0.4640908716181622,0.5365189413861513,0.6199288763869291,0.6960910898555586,0.7673979598210421,0.8295836420041907,0.8060390611698143,0.7958601108531296,0.7955328643210589,0.783150714613047,0.8094161236300828,0.811832442296156,0.8323986671264674,0.8448928394363637,0.8789706731603628,0.935904518985752,0.963738044376746,0.9616732966145083,0.912090344838524,0.8606539728863476,0.8341563555108555,0.7992161802243727,0.7792790925132733,0.7767107830733027,0.7562474408152964,0.7775616855216532,0.7788985470232186,0.7800169773798649,0.8047021523429354,0.8113327244798141,0.8027994397224782,0.7675736288000996,0.7215823714331284,0.6684738538172192,0.6208475263482436,0.6170049934737607,0.6400990855747741,0.713734925435956,0.7612286645329762,0.7641875737930146,0.7194921337447875,0.6206249160956112,0.5141005242797307,0.42507904765043314,0.3905298366944807,0.37347128686698916,0.30374498641443815,0.3039844977908386,0.3682818536852732,0.47057004114841305,0.5484339869848762,0.6238953093541078,0.7261011548917802,0.7956761854367178,0.8149330253213103,0.8317187405526818,0.8119424533440531,0.8114204523695321,0.8237036900749173,0.8452440819457658,0.8707389823378708,0.8874221977208139,0.913560519836043,0.9395807218983059,0.9342035194854654,0.8884786951404768,0.8473626327992809,0.8292708202191381,0.8038789959001722,0.779871892011827,0.7908692363009813,0.7814489005863958,0.8018152205428919,0.811365615727353,0.8187799090339132,0.8166471881469226,0.8165057579589661,0.8290301699140272,0.7939283077033892,0.7552645964593232,0.7513328506057446,0.7003936144343834,0.6356585180809606,0.5882931215848624,0.5846100057522303,0.6148833521848251,0.6850663000344115,0.7542238175248102,0.7726478428834893,0.7204703767635197,0.6402377628199574,0.5465839196788966,0.4644390651315824,0.38650213913903286,0.36405288541131764,0.3659628983028611,0.2718872470403495,0.1790729378341318,0.17232670979994236,0.23580482461868524,0.3298667218681839,0.4210761837009622,0.5104287680950321,0.5958631305182598,0.6903832887753971,0.7638798894867334,0.7905771930669427,0.7915996398996574,0.8114128449315983,0.8300003872872423,0.8548627011211103,0.8555857951671495,0.8687424209858294,0.9076589749228736,0.9095841325596421,0.9422749045775376,0.9994593135432703,0.998157917228994,0.9641279951356703,0.9415968690452177,0.9230922912326589,0.8786468691600309,0.8537907098190765,0.8602327948247055,0.855472165607905,0.8656566877135674,0.8443702033285083,0.8471279523567254,0.8737986362245831,0.8761645700007206,0.8599166200932089,0.8172832675065136,0.7977859588450507,0.7446804359946171,0.6975099753159153,0.6342054150783882,0.6170105804533623,0.6387522657805897,0.7037180066004369,0.7437606407500796,0.7221159668258226,0.67941585441298,0.5911813798619985,0.5062843040169476,0.4163704582190677,0.3636381436178766,0.3884000689402223,0.4586285335402662,0.43968091860838143,0.4400137035604983,0.5190579365955026,0.6091383939746216,0.7033499156944139,0.7580672164438989,0.7554890464484671,0.7464754427986744,0.7465409258515283,0.76228842950953,0.7792943879819223,0.8005435457583925,HB
0.9153383364846599,0.9153859943104496,0.9236331912917146,0.9375091311090387,0.9377108537263039,0.9377108537263101,0.9377108537263168,0.937710853726323,0.9377108537263292,0.9377108537263363,0.9376957149134584,0.9306426894184123,0.9215617562020082,0.9371763668063169,0.9377108537263643,0.9375618716568748,0.9234403351650848,0.887530363774474,0.8775490888506168,0.8956926527914999,0.9047327995704175,0.8782808190937881,0.8912574088346155,0.8885895760093132,0.8474353970783195,0.7832642423871854,0.7083695715720872,0.645270468147094,0.5803378831942547,0.5053075173553707,0.43178932390893054,0.3749055537780639,0.3023728276666122,0.227292904980124,0.16073353356525866,0.1006228595248233,0.0693612616588477,0.10535564962911215,0.17569114021755006,0.25064549429141314,0.3137511345913584,0.3786832935587201,0.45371873073269864,0.5288171256781071,0.6010475639185162,0.6580525963168093,0.7317523951922973,0.8067733236420667,0.8708503062785229,0.9342295360419293,0.9736642570506584,0.9449058182734977,0.9363764073674741,0.9182807837384841,0.9144084821896827,0.8973214674885392,0.9025375705242302,0.8987601120039672,0.8929805496061514,0.890163183046909,0.8788556913494197,0.8927051262902208,0.9040425812514474,0.9152362464943451,0.9153454226966184,0.9206606332734695,0.9356923025024293,0.9184272955073278,0.9274226147607547,0.9361823379108607,0.9181328652364216,0.9213296030145965,0.924706882725018,0.9154044359534681,0.9153417573076177,0.9183688082560191,0.9364027145368654,0.9381861809870897,0.9537804576694588,0.9502747727970977,0.9189722223290202,0.8937899024847988,0.8730160040898918,0.8837373326406865,0.877424034818401,0.8919770071380726,0.892718051233516,0.8695867280211411,0.815570591891853,0.7421920780866555,0.6677956253172765,0.6091972223942701,0.539255059415058,0.46415923877899656,0.38925284957868067,0.32787634110878416,0.261303349786985,0.1981359106936469,0.14375701893772996,0.14042994094893224,0.1858543605127334,0.25361011382254617,0.3286924627080623,0.4007863838454191,0.4578461798483535,0.5316279940788977,0.6067292015932568,0.681796537281282,0.7496280455103079,0.8099045667112832,0.8847599048717569,0.9563761082475914,0.9678532492228595,0.9501995734377857,0.9378779091572222,0.9377059139458379,0.9333196116692424,0.9161894617030231,0.9153384693796172,0.9153383364850693,0.9153383364850756,0.9153405026023651,0.9178019826952646,0.9360627242990929,0.9380501250348297,0.9507828613272062,0.9405259902856957,0.9437465481710015,0.9539213659920369,0.9384750340612111,0.9506886097314706,0.9627927630033284,0.9660333622839468,0.9605831637710205,0.9760994208687719,0.9824427136551592,0.9824600012839557,0.9860200494788267,1.0,0.9842285975722467,0.9986509054980082,0.9834658008142987,0.9371231289454252,0.9161072100892058,0.9282849591526414,0.9383068610903753,0.9543456678360238,0.9429451199072219,0.9311259559379894,0.8932040648596185,0.8536814265849269,0.7841247568687746,0.7091506498886684,0.6458089361713046,0.5811247352038564,0.5060967416870352,0.43099527204457466,0.35589380240211543,0.28079233275965576,0.20569154992210814,0.13361405206384003,0.0774885551652944,0.030305915906267522,0.0337493733367662,0.08611684890873406,0.16050714047618486,0.23527561531651342,0.29628465934461934,0.36345652432390585,0.43854051315352693,0.5136419827959839,0.5887219202732226,0.6574640343722704,0.7169618662378445,0.7916752932362079,0.8663175915743229,0.925857134422758,0.9761607792656353,0.970936089895631,0.9463762139565421,0.9341086123938909,0.916574556634461,0.9080890534568637,0.8933568970397725,0.8914296996562818,0.8655202046043531,0.8485727942903614,0.8482208012349663,0.8484649722161142,0.8616405315583817,0.8793810384694138,0.8895060133455068,0.8791997902979238,0.8927168293451233,0.8929658957587603,0.8935068481293609,0.9095591937809444,0.9114113100758825,0.9020311061369686,0.9145726330500099,0.90075804860055,0.9072573681268561,0.8981796935156279,0.9145108277527929,0.9153383203769554,0.915622008207789,0.9278807612430646,0.9163560383576015,0.8857810836321476,0.8595888277197892,0.8648740074075527,0.8705824694472746,0.8705933020021863,0.8699764732401993,0.8382493250046021,0.7655927299711611,0.7052091015362345,0.6374886428035533,0.5624228439190904,0.4880786196452247,0.42963012154598124,0.35948549792259943,0.2843894825908744,0.2094916333299941,0.1483092402604962,0.08154525270578317,0.020340479915133436,0.0,0.03814883182286488,0.11216504219582157,0.18726643715373603,0.2623679067961966,0.3374638355965156,0.407518476711378,0.46603359917674236,0.5404012681244166,0.6155026634484346,0.6900701905259781,0.7491631281298377,0.8184427537691148,0.8901474269883787,0.9150392388275383,0.9050084222015462,0.8809930500464493,0.8797051557282511,0.87133672380752,0.880196463590619,0.871066793261777,0.8705795071863385,0.8639856844292129,0.848666056534662,0.8487525108047032,0.8647461312191136,0.8722880588707445,0.8787594125878919,HB
0.7445835823198097,0.7200863463935452,0.6734312375852975,0.630476191592733,0.5879254717580613,0.5458010807135367,0.5104103575372738,0.448746760665212,0.37307577639744505,0.3139952183582615,0.25584604864465854,0.2214286788217299,0.22066691804618088,0.2768272149109454,0.3469653137141755,0.40695730253697704,0.4662933336892663,0.4897333773356558,0.5296273635076352,0.5946803658503059,0.6466664785519272,0.6938942749840136,0.73468351844082,0.7620054095675886,0.7671412046703834,0.7675096015947513,0.7806198294967674,0.7872251214799921,0.7686991567108641,0.7212422080124337,0.7073366146116364,0.7308385629039473,0.7600331921387888,0.7632181699736718,0.7243110244589634,0.6601394341690678,0.5920708434847568,0.5155642973207826,0.4452640124838618,0.37981922326019735,0.3142786819833243,0.23968888707033909,0.18567986664598024,0.21043013742296068,0.28157232823866396,0.3663248718927594,0.44121126031038305,0.5163726393851467,0.6013552323042992,0.6864472925898366,0.7672220772021698,0.8370472536838438,0.921340737706259,1.0000000000000004,0.9972938582236326,0.9383531283844073,0.8912370166740722,0.8614835658943374,0.8302934939464017,0.8051980587783403,0.7671066148907508,0.725266055660708,0.6910551884192704,0.6496888232296261,0.6058377150369458,0.5552389065155339,0.5182788048278315,0.4870761863800048,0.49699675920451636,0.5353265604487363,0.5868192282757847,0.6454608415204786,0.6923840237178465,0.7423471462223556,0.7818348497398162,0.8054663433014961,0.8074827350964915,0.7937407937655907,0.7911581918478117,0.8059575631448688,0.7800929302867634,0.7231920746198206,0.6928670135678838,0.7004932239457626,0.7371810327495747,0.746466022939436,0.7237722696952553,0.6618240256824732,0.5962489342629897,0.5239163403544573,0.4552021274348781,0.3871162082517996,0.321991007310237,0.25613402001014896,0.2213042322423484,0.27375991970942115,0.3506347104395613,0.4232381658357154,0.5080878157578188,0.5931586208625341,0.6720575022257731,0.7434661537364242,0.8280791152741847,0.9131693397306813,0.9893873535256081,0.9759631680570773,0.9155561143656246,0.8699740233865483,0.8274449980378598,0.7915553900259642,0.7675930006641876,0.7437561048151982,0.7133481104448798,0.67419817943889,0.6327101799840475,0.5816896475374023,0.5331764672855623,0.49690282810337294,0.48186475500700654,0.4969267009774492,0.5431446252671739,0.5984616863485113,0.649214490269908,0.6998267518638994,0.7476258729938401,0.7731786838368531,0.7718321787331086,0.7672478343241829,0.7766557887801944,0.787315562670265,0.7726516316320122,0.7173276461569897,0.683431362457894,0.6538772610595047,0.6281259928176457,0.6299663455399984,0.6321573174211981,0.5830233854104794,0.5197076419149567,0.4450254159037419,0.3757519441246724,0.3030042683077774,0.23884070859246265,0.1704121456277492,0.10056830043140197,0.04454004157055147,0.06795502460291702,0.14515699654145253,0.2153929124663203,0.2957859426374214,0.38087586306049337,0.4655006244318658,0.5366319031558038,0.6157867011802876,0.7008671625768579,0.7856403260503515,0.8551911284161426,0.8616748305671686,0.8079214202586043,0.7601994773172316,0.727223968154096,0.7057829630457597,0.6871384924733928,0.6699442297465485,0.6314214609070499,0.5916331195126223,0.5502962288448607,0.5020551315770478,0.467778770372826,0.44218275546839525,0.45341582009870285,0.5013936137876351,0.5478284375333424,0.5980295604115304,0.6461928210705374,0.6830342143998673,0.7001245763271564,0.7086251339956795,0.7245792926502728,0.7263224044800753,0.7223997500485448,0.6750585781378211,0.6330400772340186,0.6271110612927213,0.6508865184278676,0.6710098793851493,0.678309559160065,0.6620558655455495,0.5989890437602803,0.530734496468567,0.45760127843789045,0.38772448714346375,0.31938201854275716,0.25430617174559833,0.17722147322194415,0.10742241715920331,0.03295563739358798,0.03420503773864958,0.09717707839663348,0.17272748585828168,0.24693322834909281,0.3318800696871227,0.4158162982449922,0.4853365269311376,0.5667738492740848,0.651871747189384,0.7369395015894575,0.8156439776758613,0.8798787689201899,0.8732540263056849,0.8182998614183914,0.7729030800955945,0.7395399009713914,0.7246070269455291,0.7026851290124374,0.6723339126366263,0.6313159972078592,0.5890400422371842,0.5509781406859586,0.5043444276316018,0.47184110596730555,0.4504277776253027,0.4560192966756178,0.4936049513465006,0.5384967661173934,0.5886120951967295,0.6461717917489849,0.6777055964899095,0.6871161651430575,0.6995589963359636,0.6780067167934938,0.6603004615877706,0.6452439872519742,0.624328510288354,0.570123928426387,0.5313331288528582,0.5290711725556556,0.565515327135242,0.5993653652804647,0.6002142908231978,0.557301910703023,0.4936066419137193,0.42486508686943303,0.3518799995844173,0.2813749941485457,0.208091833959692,0.13661981867148665,0.05341540040790749,0.0,0.013976707997363835,0.07994102689250804,0.15700217935298832,0.24205551946258907,0.32715274054872445,0.4059858609523115,HB
0.34667918807732967,0.3074653197728585,0.27899723637150586,0.22124963352383897,0.1711246952192207,0.12838022061266496,0.15013274113906494,0.19002496372184918,0.21756251379976188,0.24879097122818994,0.2941600424078761,0.3294998120984225,0.3323426117135524,0.35064132711232965,0.34645488951899317,0.3340284674388272,0.37607512389247866,0.42433356180561344,0.4942300403991382,0.5673906653911596,0.657976212123141,0.7315490301209557,0.7957896315927133,0.8063298363776772,0.7578346586655789,0.6866421409507559,0.6416164738576997,0.5714264350090703,0.4875785743807697,0.38878985385681375,0.2901186828371731,0.20779203421321046,0.1229416788090596,0.08725320015671745,0.15939432442570922,0.25114288856306644,0.3163142255824152,0.3435457745427657,0.36318705189983014,0.3897195227535928,0.44286932511715893,0.501219542161973,0.4876015574435826,0.4345234639266442,0.45418282511910224,0.47957161729493425,0.4600468424658084,0.45191446052596174,0.442831556282278,0.4223779528722149,0.41604852085195265,0.41250443173288964,0.44969352941396945,0.4238876832438283,0.38325564624592534,0.4144791008351403,0.4178287276927355,0.4154467863154254,0.4446189171274293,0.43065763207516117,0.42028641525314114,0.3968155478447146,0.3811504795117262,0.3620918312887653,0.3431283804629004,0.29558448088545397,0.2585744627521045,0.2030210845623177,0.19766664420577928,0.23042653024015003,0.2624928476069517,0.26957750916227674,0.2641509130429638,0.30208890827641444,0.342817128890486,0.3620642041212294,0.38374351312284816,0.41193108232666287,0.39942816977553264,0.4237341349599628,0.4849128600056396,0.5610200180525142,0.6357688626482059,0.7108944921139475,0.7692848158887733,0.8596677968955495,0.9392600669837421,1.0000000000000009,0.9981151045420162,0.9363287606760169,0.8572393565460654,0.782098581413095,0.687665264203785,0.5887464215668983,0.49031510475200246,0.41091581299578284,0.3219423265481005,0.2316858610200967,0.17787081941479688,0.1365384125622109,0.21578044044402755,0.2924455019676131,0.37621917667198,0.43331716468416737,0.4929496172508454,0.511651978788163,0.511919173445297,0.5247106315021037,0.5484448497040475,0.5699445152033356,0.5523453508642095,0.5605727249287025,0.5380773187469945,0.49278694916073285,0.44481913098477666,0.43941006944628125,0.4502176980503547,0.4120662461268916,0.4180933533552391,0.4571414715523492,0.46568122033604276,0.4428205603025681,0.4403001250837866,0.4515576579263163,0.43448061972454344,0.43911179833717195,0.4504587334234147,0.44049367421305075,0.45100968056753743,0.4234599086012274,0.3513651140812035,0.2966006520729074,0.2608522961306159,0.262926774161647,0.2603929089322605,0.2063035347372031,0.21267997372067704,0.2398286226238584,0.24224537613105568,0.25233388031218507,0.29307040693732755,0.3014849891105369,0.28278884351838585,0.31070091252008947,0.32273621022218,0.3126435372159273,0.3732715373745119,0.45660713099335126,0.5231198001385655,0.5743572749844121,0.6562962896070212,0.7379995772876544,0.8183595983210656,0.8886123946018687,0.8914607605912845,0.8342321529175276,0.7378321623472734,0.6389150434784661,0.5436287101693997,0.46912933242757404,0.3721068742742428,0.27318631415881534,0.17441109321301784,0.09086388515969102,0.02584601102600992,0.06014574291121466,0.1435962876644794,0.22381761009827716,0.29768307592347387,0.32858005491792497,0.3254716186353823,0.32706225443621584,0.33261872610013565,0.3701328531622279,0.4348826488888431,0.4476710445711882,0.41290959403729577,0.41943573754564323,0.40337467237501023,0.41829432833497915,0.3972003660796002,0.36489930607952914,0.40721294454078194,0.42151974556149074,0.4031892309828953,0.39433410456971885,0.4170550286597505,0.3960300352768673,0.3712108882891876,0.36565111946550566,0.3896354400051649,0.39201456069787266,0.3856908296802555,0.33921538849577093,0.3314007204448597,0.2928242439830182,0.21998583352557688,0.1851697223076636,0.1528315319007616,0.1638282949377583,0.20554684801198597,0.24432475392043518,0.2751568045213695,0.3211019671525053,0.33200159182626976,0.3187220689959558,0.2829633552013524,0.30196455769625175,0.3453856673890572,0.3620867734047266,0.3831416713727176,0.46991765776151073,0.5411259051672168,0.6098302719729434,0.6664828633571975,0.7386778877677687,0.7995070909886177,0.8013858918695149,0.7438101656576475,0.6535235289889298,0.5771909856634432,0.4793695264920519,0.381887843127946,0.30617708767653706,0.22460255041583288,0.16949163015928104,0.0750243090659568,0.0,0.027417655128900265,0.10495965650743777,0.18701955666138392,0.23129410527198857,0.2790571423467272,0.30168550445795717,0.30424281797232666,0.35023647415979475,0.3892159188543234,0.3920188817139243,0.3920132868378321,0.385444894078101,0.36308342705328833,0.3582147044251318,0.3277780515790756,0.28783253679466814,0.3151156062616458,0.358309634769995,0.3598143934232434,0.3353051194034604,0.3102806029885796,0.3021598012514328,0.3021459407189129,0.30243354092323305,0.3218694335488568,0.3148705600542252,0.30220931275395735,HB
0.22927266962153858,0.19582999474441465,0.2142528352116635,0.1945312163061832,0.17027460879210565,0.13821400171367593,0.111681808467889,0.0781993737455684,0.05777198940497108,0.07749875835044495,0.08287305674389689,0.07170854181153086,0.06544915085375802,0.06618059649626584,0.03286144908979427,0.04343344306414654,0.055989242003095185,0.07335663225672207,0.06922395761939093,0.056944638536068126,0.07485263698322431,0.06484797967825706,0.07884079389091792,0.07542126352344614,0.0764820392419292,0.048563068578044266,0.0027559143544948483,0.0,0.08093667872012222,0.14859280673136332,0.2264353599278417,0.31246894573259887,0.39852381988154484,0.47691862940085894,0.5440796081905868,0.6296605575597445,0.7156022360819874,0.7799358942750381,0.7757043152804277,0.7221752290484016,0.6508938786974143,0.578407912589813,0.49244943523237783,0.40933809234960084,0.3457869002264644,0.2738092441137967,0.20836254481168393,0.14468404775270205,0.0926881659815022,0.06382349726154413,0.058200217718663794,0.07895029085570648,0.060532352113052745,0.061337520195962725,0.09681379227959752,0.11732372338218866,0.1393330037383187,0.16150853684049338,0.14809925542485125,0.12572478875142945,0.15193779990545586,0.15990046411127157,0.12525695064178688,0.11431676433567883,0.12865273964494595,0.13282280460743046,0.13724138933164642,0.1546682439538083,0.15030013752440752,0.15038694568816702,0.18555755056339862,0.1911662866734707,0.19331968476777028,0.21423639823958407,0.19033120569831308,0.18583564537344088,0.18833817816713694,0.16593173141679696,0.16671804304241,0.18849924106787697,0.1758083606032672,0.16980258521463654,0.19686673698554102,0.21690750764553446,0.2102965900788547,0.27437729066031924,0.3391098406848112,0.4220890333818019,0.48610344017166884,0.5685376638735304,0.654598673578124,0.7397026084878622,0.8052947818937559,0.8857286755510838,0.963796369256122,1.0,0.9805998342835798,0.9164584595976546,0.8414237893411594,0.7559889353780882,0.6898520549479281,0.61056670361274,0.5393640527591614,0.46521339305060394,0.38218233760915954,0.31925003338296953,0.2601855851686006,0.21725529789014697,0.19201832392135731,0.1911741942040086,0.19117419420400328,0.19105515802371897,0.1785427847958303,0.1893910445693825,0.23744129856668383,0.22650623376502388,0.19837467501339656,0.19118179413695557,0.19091478808247064,0.18028945940751306,0.18989840984919582,0.1906145838163784,0.17087348067603614,0.1739668826726133,0.19081992060073993,0.18879573059401267,0.16395010651721442,0.13870527401561716,0.12482961547734828,0.1085169860119164,0.09191953833917665,0.10861873403384159,0.10999243588514052,0.10999266759040882,0.10999266759040349,0.10999685682174754,0.11517438007277025,0.13540594183681431,0.11409130094183872,0.09367893306953778,0.14343957282684805,0.22704375486703654,0.31184310178020436,0.376302316029963,0.4581734209002839,0.5442342452406583,0.6294571866378664,0.6954879114612647,0.7691172256568581,0.8092427939954288,0.779851204959229,0.7168694862038558,0.6390340070243861,0.5723310893477667,0.48697934001219156,0.41190137856290576,0.346768736409266,0.2881369536207359,0.23106150894363253,0.18523261967766658,0.15416456018793223,0.14572830117918745,0.1622065832772872,0.1415796292558804,0.13706263003667996,0.14368865467535485,0.18218834909807402,0.21420782461109322,0.19624526943372445,0.19129804773568537,0.21135724208906126,0.24385543736976167,0.22392724585648782,0.19679938251724227,0.19117912489203714,0.1911804224415654,0.19755523271706465,0.21405527058036977,0.1801774865938297,0.168040400258179,0.18194683870704775,0.16465463345621956,0.15411752097784337,0.13721821040645743,0.13170879718657957,0.12254557413694211,0.13680095231216338,0.13849424800051668,0.16013181746881244,0.14330496107000013,0.14079932343085044,0.1622465115147511,0.16104270635321072,0.122121216158245,0.16165632811328212,0.24709924587081566,0.33316227604539694,0.41922530621997467,0.5052806993887353,0.5841383490539096,0.6508660433806384,0.7364169180471203,0.8214851510106165,0.8855301395176207,0.9202353104729495,0.896846468435248,0.8284710586670103,0.7568974185537751,0.683278410821532,0.6000950966150214,0.5364321137063222,0.4567042983148708,0.39226227020194315,0.3227984157304835,0.26549487846638176,0.21083161554067775,0.17126781973439797,0.1628661846878492,0.14604448580273477,0.1673870206391488,0.18099528142373522,0.16437958614486448,0.17305782648942625,0.209506456832524,0.2112212794015056,0.18360370287505212,0.16468520269662434,0.18089188199691542,0.18617480503683215,0.16493973410950868,0.14927370337924017,0.16041713658382495,0.1873688140679599,0.19104878555802518,0.17782989327500598,0.163895270157969,0.14499985667917858,0.11261120105837374,0.10667348603442939,0.10112724518527827,0.08811376360087131,0.09542281550224985,0.10979629646010203,0.11158844756291142,0.13396942829147473,0.1370514896468782,0.1371475866309977,0.15026167055936046,0.15413221962151713,0.11938448242093269,0.16387571780747479,0.2307097865383989,0.30888776341994983,0.39491701250814515,0.47184599394771887,HB
0.743605819230333,0.7138997277331747,0.6836493422376666,0.6857651189364127,0.6778481957283233,0.6726537955882428,0.671160509731199,0.6419385079908757,0.614967616941601,0.5867498686175994,0.556312128868746,0.5368064626746962,0.4985669324153239,0.4486773474934198,0.3604448066727013,0.2689397758085237,0.17743275339747955,0.08604890515043939,0.016491061320715428,0.0007685997820918722,0.0,0.00872617704591061,0.060003312023202415,0.15051910565325555,0.24202594568762814,0.3335329073064477,0.42439123693784,0.4816540612728222,0.479837468106485,0.46264988735002,0.4911882376228949,0.4950122696914354,0.49538853271503314,0.5239513464782757,0.58240434831795,0.6184686246060078,0.6494279575352699,0.6869929355597835,0.7247841265642032,0.726568121268822,0.7382019281635417,0.7274643325372301,0.7004449547495302,0.6995488336935898,0.6929501901264858,0.6786946844017834,0.7064807056817131,0.7184057052068695,0.70055125305608,0.7170482588695668,0.7170481980773467,0.6999620813985326,0.6914918750859922,0.6541803500050314,0.63130649170688,0.6189059896500817,0.6116112880506321,0.5514065475735208,0.4973345283685635,0.4287013642556756,0.3503111041067193,0.2786648561834588,0.2201425503516541,0.23182806735743444,0.29657716360778785,0.38134093839614813,0.43009487907843,0.4918557385673532,0.5811409347176735,0.6726404164868214,0.7588598053527162,0.8298380909465788,0.9149508262418236,0.9103225866665801,0.8500496782827804,0.7897053977157347,0.7355580466497154,0.6591781240979735,0.6105146552527563,0.5921745488178036,0.5919057372593679,0.5919050077526906,0.5896916194207078,0.5675392671084065,0.5505126040336057,0.5254534527456478,0.4865426305950358,0.4677589190841829,0.4385286384439189,0.4311760118023571,0.4522358825731736,0.490633175576507,0.5471686688092836,0.5933001507740938,0.6450100829918073,0.677898626697524,0.7142964402856951,0.7303693750353908,0.7475041035156238,0.7276736616188817,0.70896439369091,0.6996120149943623,0.6996757939782832,0.7137063050347408,0.7296964193568636,0.7515473009784683,0.7533875021403516,0.7511454078479742,0.7181433493567679,0.7092093650730469,0.7167786545484258,0.6944632945920057,0.6735214708556096,0.6680608580902119,0.6242793868845338,0.5588970112912675,0.4984745691501917,0.4250325764519509,0.3453227849140923,0.2765634224362925,0.24436001540217234,0.27591141690238086,0.3550932244937943,0.4465709330222074,0.5373547625083042,0.6092889480594526,0.6941906981448458,0.7856768762011983,0.8705241770240004,0.9365040031967897,0.9319778172249569,0.8759947816886626,0.8139305809273143,0.7508249688271622,0.7104498488597404,0.6659290618057572,0.6244376105501095,0.5967133137358447,0.6088920649035847,0.5933606754420282,0.5825028876494036,0.565392930794256,0.5572441458606061,0.5264656150387124,0.48952547365103793,0.46674649056927553,0.45738754390640857,0.4574516268514488,0.4735771891036489,0.5118875614062528,0.5690187022395508,0.5997738114005484,0.6225085852527901,0.6584058847330825,0.6707189020082529,0.6543428502486197,0.6715547698287043,0.6726460117777862,0.6682313293271216,0.6472189869954299,0.6472189869954352,0.6682313293271323,0.6726447959333344,0.6680735684774008,0.6327688907852584,0.6234863480489592,0.6270746651883234,0.6354585349345463,0.600509721106576,0.5919345229662998,0.587860360379211,0.5398330687160344,0.47874580441972725,0.3980663499024715,0.31323681672973436,0.242026188856876,0.17247831266640867,0.1362453254464917,0.1650006169694378,0.24139635092145229,0.3132368167297441,0.3981385668151374,0.48962474487149166,0.5744762111646926,0.6464567120108127,0.7372403591202392,0.8281760900059769,0.8996804604151958,0.908871872209521,0.8500268107822988,0.7829008096297283,0.7191315186889415,0.6524837106234136,0.596171467234706,0.5646655948398287,0.5416602090574472,0.5539078481087447,0.5649627148405729,0.564991420800971,0.5631268931249727,0.5312598666611628,0.48581947571309936,0.4559771735249978,0.42202803672649924,0.39716687035545295,0.38287292515085447,0.41279485696482343,0.4160117323450381,0.4586845123500609,0.504439756283146,0.550185272863704,0.5954373521024721,0.629248817933,0.6521754680069929,0.6726472276223836,0.6928499024177155,0.6867765109399881,0.6727619638576599,0.6726473492068443,0.673370542131793,0.6932102597954941,0.7153748648600713,0.7265604318012855,0.7406041711818068,0.746391233258243,0.7096806538965019,0.6938733029302258,0.6573802828802053,0.6413898984957234,0.6203039410302367,0.615411082739783,0.5795373396485974,0.5233816848944279,0.4513948747395249,0.3670653888550168,0.2985458911577119,0.2498070491367308,0.2730012241061863,0.34038162225590085,0.4271079916363849,0.49685736583089835,0.5865234575733789,0.6780215557178959,0.7628730220110986,0.8348535228572187,0.9255987304867492,1.0,0.9722174612332255,0.9078751292044833,0.8414417546431041,0.7803894567136789,0.7278701524700635,0.6839531530972689,0.6527433248619747,0.6242371862250415,HB
0.9200966718559624,0.9200966718559629,0.9200618164949228,0.9152773982107871,0.9067231048254674,0.8945108952655656,0.8852271525059385,0.9120718737790359,0.9213166221153744,0.9401942167821997,0.9210524466583054,0.8683188894611091,0.817506051658242,0.8052146771865236,0.7978127906725097,0.7530828455501744,0.6904024049419408,0.6274288978777591,0.574034769959261,0.5602202573269768,0.5607180208326179,0.5734089518694232,0.6256183241229509,0.6885700860035993,0.7513094128242113,0.7919805580029688,0.7538704118288284,0.6927384672399155,0.6401379460589196,0.5785246722242703,0.5154944742844494,0.45246270280536494,0.38943093132628004,0.3264004616669234,0.2649392912613171,0.21231350252742143,0.15072348020224346,0.09674178290069224,0.08662079141085988,0.1337696881117405,0.18624178573794592,0.2478722794428394,0.31089270552041204,0.3708719093844943,0.4242053565149069,0.4866485389979285,0.549507569898813,0.6047386580181906,0.6624417365332005,0.7246843733063808,0.7776609732474302,0.8331718366458714,0.8828994627678268,0.9223377204760097,0.9453914819959608,0.9467861787520206,0.9435865090861402,0.9254729828694881,0.9039061824498993,0.8794242532961789,0.8619990708857879,0.8536905000096726,0.8637578736196803,0.8893773195695172,0.9043473364790104,0.9079987850561593,0.9183495662391485,0.9200666617435256,0.9155154892492852,0.9070338843570038,0.9061716848704009,0.8964738504085026,0.8890891323962009,0.8815170906676775,0.8978540227130876,0.9071700524981026,0.9097678194708605,0.8636097508423526,0.8034827673869014,0.7503623553733298,0.6879940141302965,0.6249684218201406,0.564443502799383,0.5114774884795337,0.44921662544585206,0.38618510920693305,0.3231533377278484,0.2601215662487635,0.1970897947696797,0.13443577034357723,0.08155901100261476,0.046314206497030774,0.06636066068945423,0.12141940619161384,0.18166154570375115,0.23477508796158797,0.2970820568336794,0.36011382831276406,0.4231238538863398,0.4821592352252402,0.5361779470092647,0.5988911619640132,0.6618345057896209,0.7186291861545837,0.7733498027949892,0.8254665436645467,0.8757612985941678,0.9143604944134016,0.9278420549298079,0.9214548973700092,0.9311958163701646,0.9233421171272234,0.8963599271395801,0.8736996505674215,0.849769820771034,0.8380258238731515,0.8326863923710919,0.8532505998320166,0.8755175475983998,0.8902915326293894,0.8933801617007329,0.8906128216454259,0.8852226454249941,0.8767010882536121,0.8780427152763899,0.8735877288412448,0.8689931997334606,0.8579252662157435,0.8572751530724023,0.8758325497827371,0.913580750055464,0.9463804298004694,0.9605162412806378,0.9725990738043144,0.9451983274935714,0.8944724238870574,0.8518071296416059,0.793061821546885,0.7334850159302397,0.6798759932696339,0.6173189974070656,0.5542971258062739,0.4944457513427214,0.44105507407299416,0.3785416087226212,0.315509950156472,0.2524781786773873,0.18944640719830264,0.12647221236258877,0.06939251638936228,0.03154915062291108,0.053171534318708025,0.10394925142619194,0.1653135800448957,0.22831070015523158,0.2863157795022422,0.34127729714133204,0.40408948283306256,0.46711634191681184,0.527620873238456,0.5806266189901272,0.6428661626299557,0.7046490867506345,0.7573361031154158,0.8167785563889765,0.8680037533841345,0.9167650648106509,0.9604015087183977,0.9916318751179669,1.0,0.9932463376572338,0.970471424911092,0.9455444920705105,0.9262006026996179,0.902870187790195,0.8832190255119388,0.8830985438427068,0.9001401782197829,0.9256988313821726,0.9333676579672172,0.9334464241210734,0.9334464241210738,0.9334464241210738,0.9334464241210738,0.9334464241210747,0.9328779981355151,0.9206595195234395,0.9132636976098767,0.934267747512262,0.9473526827811889,0.9651229672958079,0.9518270790403789,0.8912973530506694,0.8379771308996968,0.777977309887607,0.7149554787157928,0.6520738231798318,0.596450528354016,0.5391443043955448,0.4761781450645437,0.4131728042013667,0.3546235279030563,0.3001335945275292,0.23740081141329483,0.1744639606586318,0.11826461177926562,0.06161148182227061,0.006227611146757406,0.0,0.05066355177574544,0.10673774998328844,0.16339566869626743,0.22635454581355918,0.2893651230506038,0.3484500381391151,0.40242428232527594,0.46513187946480805,0.5281609178019206,0.5894243858447523,0.642048073776089,0.7038873474229483,0.7628427118885228,0.8167626858502963,0.8712400810254421,0.9169286049651402,0.9507909300735955,0.9656222333733537,0.966695319776349,0.952894933329449,0.9321906048322455,0.9112968468784701,0.8837454570404901,0.8679552491581948,0.8668545499504714,0.8773488904040798,0.9019762989938109,0.9253619754495501,0.9333350787871972,0.9334464241210805,0.933446576885641,0.9340173534929415,0.9437837092136125,0.9432276476969919,0.9309944812937707,0.9208485366843431,0.9288554964013049,0.9451322718524966,0.9595798124983816,0.9687644712609917,0.9158520906009495,0.8608208106586193,0.8029223961766263,0.7399273682469669,0.6769040284535,0.6193280228785463,HB
0.14446244634531968,0.15915999116023638,0.16090546628010483,0.18186781852346945,0.21988853971580102,0.24577972238626877,0.24151452973602394,0.21665092162038757,0.19836388527126925,0.1826573990796363,0.18233838858011397,0.18339629746517794,0.20118954831793667,0.19475113913330766,0.18246618308566953,0.18227773364980404,0.17155563861991885,0.14128594625938895,0.13624932966406123,0.1167489727178106,0.09205761525131129,0.07721991719271504,0.0683584253389089,0.06898127638454143,0.08558491694253911,0.09267526173000595,0.11130876154961467,0.10872935459245481,0.11048230364993294,0.1309136644678226,0.16819086032624897,0.21779931728027746,0.2735037809019536,0.34254433611767654,0.4000814069671299,0.4677701090627413,0.527271816967239,0.6011320460038418,0.6584946000704748,0.7303352896590165,0.795446457644307,0.8569787449548598,0.8872982810286039,0.8498265047516766,0.7832397829488387,0.7225856359094309,0.6489869216346391,0.5916419820924896,0.5192042741877274,0.4437411635402504,0.3705219167427587,0.3137727140283948,0.25136027784896564,0.20104944496141153,0.1509868222394748,0.11814843232828753,0.13297310854150757,0.1220118773926111,0.13602182743395463,0.12537651990022258,0.13753026868934848,0.17979581478943185,0.21447589278592627,0.24304720453783535,0.22077948571448358,0.20391709842403616,0.17921237570409776,0.1599195571015386,0.16755316246251173,0.1819980991868002,0.18253930585006373,0.195975502095191,0.18651784673451655,0.1823423071186352,0.18149639414448293,0.16379434921650216,0.14533692644968133,0.13608198456631282,0.1137991000422609,0.08966293855299323,0.061638588398490235,0.046316697858090894,0.06259908192003305,0.06982661559020054,0.0874188181247324,0.0820597796167255,0.0774229223202827,0.08868171958614424,0.10747160360794616,0.1271390112287354,0.17259705037142226,0.2284152662170542,0.2854421244234815,0.3531992351039195,0.4124947820966538,0.47684407472844237,0.5403502189030696,0.6151454957496543,0.6743386777550842,0.743815462098556,0.8114626951673336,0.8511146780734804,0.8579862437646022,0.813099455722678,0.7392518572489011,0.6637869337203228,0.5883262316204774,0.5177826053673331,0.4593913902911937,0.3847263796422191,0.3092820195894954,0.24051748410622098,0.19657389627143962,0.1466995828881923,0.10347537384459349,0.10906613007227639,0.09745258084142128,0.11086038767671669,0.13293970335698857,0.11587023879261205,0.13363161846814586,0.18023308099333013,0.2105122181080752,0.2225518743972028,0.19270725677477607,0.17404587643327796,0.15548106836545328,0.14174168348590532,0.15842263634459153,0.15953761241030584,0.15953773042215058,0.15953763133424026,0.15877397524773462,0.14115854088198532,0.12276552770634064,0.11087581536837288,0.08765795387149522,0.07954053257393756,0.0746755028334225,0.04629392392668308,0.01073695075052905,0.0,0.007402208990789028,0.026188232268416822,0.04431250368726447,0.04553499394857141,0.04554175128188387,0.050661052406522966,0.08346465482137022,0.13104459174922667,0.1812801383414584,0.23455785787408212,0.27727181418019864,0.34989770285293,0.4127349966965701,0.47822261513027664,0.5496644924614649,0.6074480971778233,0.6813713495670215,0.7410104084287696,0.8033474646325556,0.8198514369248948,0.7842295676368489,0.7170907069449384,0.6571480462867583,0.5822021694031112,0.5198453539697678,0.45380327680628474,0.3783780669311505,0.30327741597602165,0.24255491145820063,0.1786756190886778,0.12139036663945246,0.06179589258622764,0.024565754226011816,0.022832698242621685,0.034137812920888244,0.045471521897745504,0.05480920571489145,0.08995735604016364,0.1146597046177642,0.1296703724375985,0.10814749962239212,0.07622288323346327,0.05860655313934959,0.06039082991583067,0.0482621881238714,0.05260231396759352,0.07805593008392364,0.1102821797437783,0.14931235192893233,0.18885326318006124,0.21609838482536414,0.2428266127010974,0.2709923277347621,0.2735356260832389,0.2707167219255928,0.2521634625818501,0.2485076924714673,0.2155535083886404,0.20133868056746396,0.18171276747483533,0.16378410062591575,0.17856590902070257,0.16434657913130302,0.1708309552148397,0.18224958837233318,0.18234342948418814,0.18793084134907367,0.22950479496368814,0.26855026553703354,0.3227166269052879,0.38023896119039957,0.4522811578936996,0.5093160937153027,0.5814290408076928,0.6383932874802105,0.7109108955397034,0.7863732725303554,0.8618217792872458,0.9286167587746372,0.9843396732349743,0.9999999999999996,0.9648526032940645,0.8968379443243744,0.8398188760388332,0.7667018116334154,0.6915838050522765,0.6306436724688287,0.5630922365873929,0.48764367763664973,0.41461292103475733,0.3611630968812731,0.30713320415883594,0.2530992949560291,0.20054805845429913,0.1763808902446149,0.18230485848584932,0.1838717127046614,0.20256059104488555,0.21625203702492746,0.25187950219408384,0.27296692278658385,0.2732158390802688,0.2564819774037863,0.22610138585143513,0.2062701530529285,0.1980123734864443,0.18259492105890907,0.1854214175886315,0.20351593311572014,0.205138266343023,0.2051387452676594,0.2047607870656427,0.19006349141605305,HB
0.7969865434574013,0.743781169814727,0.7136570786890912,0.693216607560279,0.7261919591565356,0.7657589926302641,0.7869535423271143,0.7997517310270785,0.7998377223611657,0.8007541246804113,0.8217583638961763,0.8274364675915908,0.813073005818608,0.7923613972466521,0.7544159631374621,0.7322394085777653,0.6943069756827827,0.6659303192588855,0.6613110686383727,0.671268964061448,0.6703158735848795,0.6740440039210664,0.671749990940878,0.6882608243816497,0.6692938657458658,0.6559642788736797,0.634722667984561,0.6446957706156642,0.6510791617078597,0.635911233838911,0.656273170268225,0.6286480698184542,0.5639234447148107,0.5503699200038215,0.5584908549361511,0.598725600207052,0.6316465460437888,0.6334167583865193,0.621695177411425,0.6060051860759961,0.5985941438635001,0.5497978506139329,0.482712623526278,0.4068549731307325,0.34543878534938166,0.2967190216958393,0.24253934713230496,0.17571950625300037,0.09971089668885735,0.03860265475484104,7.157548568503813e-05,0.02538220418351056,0.0988967163840444,0.17059835924008837,0.24999973514291352,0.33924990762263896,0.4285186979673865,0.5177874883121332,0.6064817855511526,0.6757692463789793,0.7563793921558926,0.8235433279960525,0.8571759922460913,0.7957241660707286,0.7361727448624693,0.6877826477371247,0.6634513717372021,0.6833539445803067,0.7360839064522722,0.7660501255330825,0.7721063362712881,0.7748153036135843,0.8008840051541837,0.8259603738384573,0.8337625845375811,0.8492240822183232,0.8224004140903656,0.798518941561654,0.7645943653071221,0.7201024825498248,0.6846829783045436,0.6462618946483678,0.6310313056801293,0.6143705140019495,0.6325768615572542,0.6427203268072486,0.6645198774286598,0.6747454492752798,0.6245815425422618,0.600443916161729,0.5790576662499509,0.5824024407101769,0.6198061977308793,0.6644365897821123,0.7045688576609006,0.674281851945306,0.6365593873141409,0.6400562133366687,0.6628838842345042,0.6894272656167946,0.7264646177908656,0.7499105947991138,0.7709748164648955,0.7577659023060086,0.7370103899954277,0.6958326656762335,0.6389864848692604,0.5676307888889971,0.5086645878856162,0.4845074000855636,0.4197968676808834,0.3478999852200326,0.26054193068715215,0.21926410930042817,0.2520584340565888,0.31766926221357306,0.40526804680342465,0.4766025420360389,0.556507762978816,0.6455523492815054,0.7198559543374454,0.7966543656840832,0.8852371525563116,0.9540547850728531,1.0,0.9493875088966615,0.873206500239947,0.8049384217576234,0.737728670980232,0.6926483743109886,0.6629300896288539,0.6712488940746901,0.7005153998306666,0.7165029035673589,0.7166579116258562,0.7166601906992129,0.7201561407504249,0.7441080635221091,0.7735649562853979,0.8070828394595777,0.8116034353201362,0.7976016671575445,0.7645337231997402,0.7399675797207568,0.7181472066525547,0.727187353983898,0.7442131044678613,0.7511181280873771,0.7866082091878566,0.7752909382910786,0.747783260219137,0.7343182859281079,0.7170302206865653,0.7164971521736696,0.698733307246604,0.6690496832932746,0.683733467933699,0.6566867266706398,0.6120005135944151,0.6169660595354536,0.6464796042279763,0.6614273665727408,0.6784616169182911,0.6886977033038786,0.6721895604165562,0.6795752964302082,0.6579302538120508,0.6182425572639669,0.5550680494479598,0.4665249663682802,0.38981716419455026,0.34270910975079705,0.28101854581418806,0.21016919169385684,0.13172600495572384,0.0626993677564478,0.0026536395140950297,0.0,0.057471554127370705,0.12501614283734375,0.21311911947215734,0.29923281609659913,0.3656498469331373,0.45320081174119764,0.5420925910707064,0.614007257188339,0.6933016619450196,0.7823599893626643,0.8435867591296127,0.7934812640052655,0.7411445586152698,0.6926639619786865,0.6700947692974388,0.6688141300811798,0.7145386438174306,0.7440174604434322,0.7355688199363835,0.731440490166702,0.746670628943443,0.7691918376591529,0.7721967030861858,0.7867129952998884,0.8215839703191996,0.7997238619775269,0.7553344746431367,0.7198667761819211,0.7020209154079717,0.658357394547509,0.6352983272884201,0.6536980621937083,0.6612128924347553,0.6680691640811194,0.6966061321519001,0.7145911844329884,0.6921906897582941,0.6881833109500866,0.6680949955129947,0.6612743976957889,0.6699252617438383,0.6426486704666656,0.6081310618590434,0.6057965321787151,0.6161952701146038,0.645246208566526,0.6151427681944668,0.6215097786747101,0.6334118286205657,0.6332647572673604,0.6147401164695863,0.5705160323773368,0.5045978316067607,0.4282993804389168,0.370091963826674,0.34201087146128106,0.2769163451378498,0.20437723701125332,0.13787903945339375,0.08382098948547911,0.10966710575867822,0.18425409963019712,0.2639407574957726,0.3352235335027389,0.4242773910330708,0.5115045516718002,0.5786797379754569,0.6643589652154072,0.7525734283467331,0.8186214652916339,0.836145308740897,0.7798249517516158,0.7202686618749325,0.6709674056424682,0.6632181853487484,0.687863231242444,0.722578087004262,HB
0.07888567241944422,0.06822880587648772,0.09916698532251722,0.1799771022106249,0.2931528845627227,0.4087546560781705,0.46233705961959526,0.4359057003725857,0.45755057658313536,0.47585078957242555,0.5522393293455696,0.6211355160460856,0.6865947648316215,0.7355541935467027,0.7616254984467137,0.7791990317567601,0.7704893196067308,0.7617150106146058,0.7617783100899116,0.7785338271814757,0.7968537144709096,0.7682243705249769,0.7291863452805503,0.6985621140890856,0.743148398605034,0.801863371307511,0.8569332015818016,0.8712205240266337,0.8671276110492041,0.8060097059102498,0.7109336770662829,0.5941439503437271,0.49877272182082866,0.3954858169318003,0.279342376748847,0.18920734475002643,0.08000927424517901,0.0,0.004755040242950592,0.09373815951962072,0.18817966795900354,0.2924652413700599,0.40987568261631147,0.5272794984191993,0.6343108482809567,0.7263580347136873,0.8431121892384086,0.9583595008518548,1.0,0.9629218973023805,0.9442086296209435,0.9210517653782127,0.9068530328133555,0.8739054898596379,0.8346678259753482,0.8008099519112992,0.7527639105992128,0.6985019838039523,0.6534618930038683,0.6082091813031107,0.5568505500644951,0.5178772477288573,0.5065593678244964,0.5324904448640941,0.5902384003609216,0.6490125022643163,0.7134690540075841,0.7633303883472378,0.7941003986291424,0.7982130831941916,0.798213235465357,0.7982132354653588,0.7982698679427411,0.8110985081773485,0.82325331324739,0.7739183294369498,0.7645604900579652,0.8058830237261221,0.860042687460747,0.8712415338647022,0.8711346366912647,0.8457539661522464,0.7419526337663456,0.6544298797827732,0.5416373977156352,0.4299315635297214,0.3410995369128633,0.2260927520385687,0.13457815858151356,0.07985123298140451,0.0809250502444927,0.17508885665812812,0.2924326415855365,0.40358674823702234,0.4923979810123704,0.6082336065315115,0.7256729549866794,0.8430024547144068,0.9410368971752918,0.9637831515502233,0.9446368156953371,0.9421080133772124,0.9120031908913235,0.8938736404276542,0.870266257878594,0.8398705807064077,0.7931929523275585,0.7345997851856669,0.6864163150009421,0.654276517419933,0.629907098847462,0.5836682499539663,0.580997667098675,0.6190598604091981,0.6741108605523598,0.7065030701850255,0.7751711752358332,0.7980198038041015,0.8012149873052516,0.8306211716244212,0.8347184768021245,0.8222739840790672,0.8012338109552584,0.8328902901127657,0.8656243767074123,0.836231874860152,0.8092378160212084,0.8333847074962328,0.8383338038157211,0.868306513269685,0.8559902124001235,0.7957751095963541,0.711068261440543,0.6135911430525605,0.5129073116889504,0.39632240359968485,0.30470530638436344,0.21705087447546134,0.17950677099758394,0.21136245889577943,0.2874870210976379,0.386391206260301,0.5036839426629545,0.6202905282555333,0.7107234617546583,0.819490808116452,0.9361302832367508,0.9905865819811259,0.9261119595993872,0.8832783772764667,0.8713032986159064,0.8695257889913526,0.8382680928347108,0.8024876189613455,0.793262318509087,0.7463323852052932,0.6940673943428717,0.6471098603468173,0.5923376645906053,0.5791357407270574,0.5720281746320035,0.5448149289233291,0.5705889678374056,0.6167926269423578,0.6902784867066947,0.7356191080912193,0.7612161652907021,0.7616924624702905,0.7616924624702923,0.7616837830140692,0.7534560125530776,0.7308125081381451,0.7758242617292064,0.7660565940092985,0.7097053440868368,0.6896126803628526,0.7211074692476194,0.7672908474439684,0.79685228575722,0.7904048003019435,0.7511205437935473,0.6782096174995909,0.598787939360645,0.49218766647353895,0.37676662831909713,0.2892403565994641,0.18997763854716432,0.14648700452530683,0.18403719667803475,0.25647743523285094,0.37049053526874776,0.4876047790564586,0.5846779557457475,0.6863755672697645,0.8036260917229523,0.8847344623000284,0.8571900311981695,0.8351360310365479,0.8347213699543072,0.82443875999917,0.7988097531008673,0.7813546875262469,0.7315723754257775,0.685248534930472,0.64161753550977,0.6023222225078255,0.5779374112041014,0.5304139708083264,0.5062473280941768,0.5226477967326826,0.5427926944808492,0.5682618567486015,0.6404671791741245,0.6863225625797567,0.6886767107514142,0.697961375853005,0.7242360706910969,0.724907372579052,0.7030954142680326,0.717874763551162,0.7236863838653491,0.6955063867956408,0.6887414585461586,0.7071484351218809,0.7547534350574026,0.7616868284373952,0.7614309486436852,0.7246454371767639,0.6134212513864243,0.5221122879154407,0.41414482681050213,0.2990047227782604,0.2117468951091226,0.11287842179941432,0.04102184154383259,0.006056173892264205,0.06132974908039124,0.1566054177695415,0.27381790086974434,0.3906552401873853,0.4836741706595573,0.5896293344580981,0.707025481296812,0.8142624843978261,0.864901053072094,0.8398891096117191,0.8310665452906969,0.8014333150483397,0.7912924641431989,0.7547396450862571,0.7233803352827861,0.688136199797329,0.6490365833295115,0.5992795076514046,0.559164391511489,HB
0.839266891929853,0.8315838012459034,0.8040032168175312,0.7704809837664612,0.7306125112138223,0.6907513851728756,0.648041310556243,0.6082680954772863,0.5656193255968653,0.5220815719294998,0.4785402225006765,0.43499887307185325,0.3914575236430302,0.3479161900392773,0.30450043048779174,0.26398758520216725,0.22258428403867467,0.18433784880930051,0.1455619997380395,0.10214152765036807,0.060804457295003445,0.056580482034501584,0.09503518261786842,0.13852131495455391,0.18206266438337707,0.22560401381220038,0.26914536324102356,0.312678133317572,0.3549577221393121,0.3949189444067842,0.4381540042070181,0.4816950996539038,0.5252364490827269,0.5687752475360184,0.6115523786917791,0.6512902961852887,0.694246236519495,0.737729686042816,0.778824270858154,0.8197787421924364,0.8628332941161211,0.9026524350072497,0.9445074556694378,0.9787590219359198,0.9768344652874844,0.9468709036754249,0.9092715150197079,0.8707802330412631,0.841966220175247,0.8424729026444955,0.8347757582031148,0.8116986283591106,0.8135012485303422,0.8277332682959732,0.8265334953570591,0.8229559732736083,0.837633378843023,0.8612221731861519,0.8852187694402373,0.8818225362113677,0.8637447817129145,0.8503359223248304,0.8395742664197808,0.836775252590808,0.8328980212840682,0.8225069116751124,0.7949910100226409,0.7614315355187821,0.7262339366976881,0.6848041587486788,0.6450764190067312,0.6021453432890471,0.5588018534404309,0.5185805079877169,0.4766626256521451,0.4331383044942634,0.38964366769773395,0.3483840015081845,0.3075850718161466,0.26412991751020576,0.22058856808138225,0.17721873250589848,0.14917069666400903,0.17781153549013895,0.2211952752262358,0.2647209066190943,0.306682840901654,0.34686917283848084,0.3902037584626613,0.43374501163911616,0.47727829363087404,0.5195954747702553,0.5595322153099996,0.6027536975692169,0.6462944637192434,0.6895349809253413,0.7294973801576093,0.7717706394090749,0.8152752556695326,0.8568620532768674,0.8973044875903647,0.9381202279025617,0.969677338018173,0.9634599458039196,0.9280420974234042,0.8855968533726711,0.8474161718548061,0.8297144568919613,0.8215331588326208,0.8069295444232782,0.8054895216122924,0.8161022388449485,0.8181775910894471,0.8201963169502532,0.8360820650994347,0.863990717342756,0.8849765359547757,0.8861912063858423,0.8674625592932165,0.8491981168636751,0.8437854216255612,0.8434545143098408,0.8370038606534848,0.831756706546683,0.8113791868389107,0.776198004090405,0.737009622458911,0.6960030339635398,0.6555750562276035,0.6139707689336037,0.5704577616796398,0.5275027617839073,0.4877650468101574,0.44498677696817335,0.4014479679614885,0.3579583695172651,0.3167716047762722,0.2759019638346445,0.23243958097743075,0.18889823154860727,0.14535761252335425,0.1022660145791115,0.06246795590653481,0.020821739834836622,0.008264968954177943,0.046035878411393866,0.08956004836496864,0.13308371202642408,0.17416141456274944,0.2105537509210124,0.2533991927218129,0.29544836522831586,0.33556467013336944,0.3788786024839311,0.4224198116018473,0.4659601808717877,0.5089979585137399,0.5487611230352855,0.5914316896139015,0.6349695480147275,0.6785108974435512,0.7220522468723746,0.7655935963011969,0.8091307589785441,0.8516963100971693,0.8914992538991745,0.9339687393624324,0.9710003667292605,0.9832478440482918,0.9542951973737758,0.9152494997274642,0.8760944396112876,0.8433905248327598,0.8356246998841362,0.8296644924474592,0.8089874623019095,0.8150845754585598,0.8271822759681984,0.8349928806552369,0.8296333479827587,0.8388973521259143,0.8644407474205026,0.890580839919543,0.8927166814295338,0.8743424044705297,0.8581140920130096,0.8539153670566123,0.8421979770937598,0.8389054553267812,0.8373215428273738,0.8159969564302086,0.7805815182127881,0.7394897539647616,0.6995157717866617,0.6568325867279682,0.6170908760604552,0.5743365186291531,0.530798841748609,0.4877695472135094,0.4480074964643851,0.4053275195482905,0.3617895442596687,0.3182891882524148,0.2769467690672054,0.2362281061990261,0.19278115727560988,0.14923980784678767,0.1056985925606761,0.062381768751806566,0.022550411286192534,0.0,0.03190782256998105,0.0753631011754046,0.1189044506042281,0.16244580003305156,0.20598714946187383,0.2495274847123151,0.2925587237127153,0.3323181672126727,0.3749989068557178,0.4185368858747541,0.4620778377402749,0.5052727766518761,0.5451652405758747,0.5875517332545293,0.6310866222876346,0.6746264897699613,0.7175416098902415,0.7572761019021274,0.8000971697716751,0.8436172340536094,0.8854594920526622,0.9256649874430282,0.9662772893653843,0.9999999999999999,0.9990405312608875,0.9655481714231996,0.9254331161886251,0.8888947547204985,0.8574543858019494,0.8397311948738124,0.8322636654078249,0.8182342200897993,0.8147509570421946,0.8246988612117527,0.8316429412704845,0.8275263582203187,0.8408218468098626,0.8655597348512932,0.8894372679025163,0.8903488751330005,0.8734988123378054,0.858614245207894,0.8506933887730025,0.8460790044088496,HB
0.8027559529707033,0.7819795556196862,0.7653333946121923,0.7607048722563348,0.7679097057289805,0.7729347178476735,0.7848130326029337,0.7957783143385573,0.8014873857210714,0.7983071978275433,0.7994511036627363,0.7926652036783275,0.7867684103807289,0.771268854706568,0.7683706734328513,0.7787636684455601,0.7894882659809797,0.7916589354180368,0.7725742929347819,0.7449731426345592,0.7179748093260627,0.6853584827938519,0.6529122747014104,0.6173480141155847,0.5801687134954425,0.5475965492089716,0.5120883116109062,0.4759014287498594,0.44377926570919435,0.40699172943656514,0.3739918476425218,0.3389888021968399,0.3015718446149075,0.2646724842168755,0.23256163459513968,0.19630684306176538,0.1590723485468155,0.12631622381598578,0.09588405951809492,0.06734071021046562,0.033810295754107766,0.00268930932712802,0.0,0.03276955880231208,0.06918800887066129,0.10121121760303725,0.13801528405947294,0.17544770678207033,0.21166684188059015,0.2437960965256526,0.28071236813852307,0.3176027143495308,0.3497041457809681,0.38597700588168093,0.4234094976941477,0.46015627442357177,0.4922038036710147,0.5286735272340469,0.5661012806936242,0.6019130599150293,0.6342539723283354,0.6713641021349797,0.7072287591708655,0.739380387734772,0.771724719706637,0.8012111407340814,0.8248819523457662,0.8298941854977382,0.8300456011938986,0.8362430418449458,0.8505095411189203,0.8636415668815007,0.8858150019622182,0.9081782975278372,0.9282788093465193,0.9483852504815988,0.9561414759041464,0.9328983265875539,0.9051921523854329,0.8793040318837235,0.8517594550923779,0.8258564075629908,0.8019153860327752,0.7828379713595648,0.7753256198963454,0.7753017166277361,0.7742489664570529,0.7906639136730718,0.8024808221584132,0.8095888644284481,0.8152556815411804,0.8155847284752633,0.8106686664961844,0.8033656328547774,0.7871223398553251,0.7823068272386435,0.7987453974919259,0.813587602059894,0.8132638366139446,0.790403958625246,0.7621427157003802,0.7340326786820608,0.7030043246201345,0.666510435253675,0.6367716102028049,0.612452206518325,0.5867848082692706,0.5537922801033216,0.5209083562852603,0.48381751006643414,0.4509145774843697,0.41579933225024557,0.37935932561306507,0.34730765004377673,0.3105498266176018,0.2731271548866995,0.23781730247958188,0.20507831912487373,0.1678526812748371,0.13041699624233427,0.09298127566346609,0.05568810406435948,0.026752268317278005,0.03100752200415824,0.06065726797481974,0.09430252154661084,0.13165810508252912,0.16805846808921465,0.19679354620375122,0.2236828214746719,0.2602680135096471,0.29710264359079763,0.3291833434130068,0.3655318518605517,0.4029646604191698,0.4396562036648386,0.4716830013030535,0.5082288176143023,0.545661827550974,0.5822097637388793,0.6142088810492753,0.6509262997228726,0.6882249013162864,0.7213637525069672,0.7544234175565923,0.7805219924239357,0.8106978076465767,0.8444591754081117,0.867956289539908,0.875064864106303,0.8745139047538046,0.8836118044846586,0.8946302442695269,0.9086222464004352,0.927349565915889,0.9482335503149728,0.9695386221894611,0.9858773172817898,1.0,0.9855347534943755,0.9618120708106197,0.9353946725644064,0.9077072055101654,0.8797382116017458,0.8540027515128503,0.8301674770246763,0.8071678950493393,0.7921163556212345,0.7832676516591046,0.771891168939119,0.7704522732397896,0.7679822259857443,0.771072048870963,0.7619226752891093,0.7545002705635624,0.7544207631280466,0.7445394083759698,0.7287425027403045,0.7184679272799694,0.7242977053516853,0.7332319264742897,0.7349848882644838,0.728945276563211,0.7125737767443279,0.6840171796006103,0.6496684939812776,0.6162797612678858,0.5790479168276871,0.5455969827057128,0.5110932697257752,0.4739557137431192,0.4414390617970244,0.4058570615810908,0.3684308211774304,0.33099510059856063,0.2935593800196925,0.25612455447307836,0.21942444504383907,0.1874301460178398,0.15086021799747862,0.1137167711848619,0.08134676005427016,0.05105083662998561,0.04867603009666133,0.07871576007137498,0.11532757301104407,0.147362663292951,0.1838773212712589,0.22062291839508996,0.25267044764253266,0.2891395922358223,0.3259182637791359,0.35797823199211587,0.3944023887864938,0.43183062423324325,0.46769542937898756,0.5000087342573047,0.5370934558307022,0.5730111548714277,0.6052968522147567,0.6423600668643119,0.6790608449615423,0.7101247915765794,0.7356264094867075,0.7495591719008328,0.746861034672047,0.7517629322955217,0.7561404771499378,0.7652221330950129,0.7802086683918239,0.8003067518271172,0.8150655305226508,0.8353792120076395,0.8453565732079411,0.8299592488816339,0.8108576216577714,0.7888461116227969,0.765541089931074,0.7429317053875946,0.7236845779464904,0.7142255075529758,0.7147488935371733,0.724846247800236,0.7363621624035075,0.7521190498774213,0.7646905127677719,0.7666076192461297,0.7704563966911233,0.7712795953783185,0.7670145532933224,0.7559147187400719,0.7589804217460037,0.7707354801437383,0.7784511409946759,0.7749875507691821,HB
0.10470545879201909,0.1400303798854008,0.175416876853558,0.24964886721708845,0.3417905289413361,0.4125611663905717,0.42459256331635986,0.45931927210670054,0.5504834433216224,0.6280184031071676,0.7142920800787955,0.8077266250462736,0.8996361611832149,0.9479720044754703,0.8970459337277448,0.8400745805926495,0.7805132985770729,0.7444511908027689,0.7440035292190843,0.7356599155874761,0.7507789739782482,0.7445576388249173,0.7301557781202499,0.6989448604377801,0.6524281608150715,0.6053396761572971,0.5497562895958374,0.4990252623435536,0.4438006716063989,0.4340429895238165,0.4129894067559343,0.33189379900784655,0.23849084823627598,0.1450389767836393,0.05351662308131244,0.005806011472326844,0.0,0.005271034283926834,0.05064845592987588,0.141520331779859,0.23496682047931694,0.3241051874561829,0.38113827006654466,0.42230254695434555,0.40196768574557273,0.363126121832126,0.38059219943269085,0.4189677779238643,0.43468639743151627,0.4815539669161586,0.49125955292761514,0.47580334492078036,0.4892397985505741,0.4741150138590715,0.4852289892133772,0.4734066741609304,0.45990822426136146,0.46931518526315186,0.46829626721687534,0.41464282433253175,0.35046043790077164,0.2748458485843699,0.19832788948144042,0.12253962783561878,0.04198817042673797,0.004010359225629756,0.04185211738114525,0.11473773314877755,0.206412424011023,0.2926550892524462,0.3702555702003205,0.463184448497004,0.5566126497202317,0.6437671728693855,0.7205657854915173,0.813374974911095,0.9036584725764922,0.9193871592110701,0.8651612748288096,0.7913579149372274,0.7400067511372015,0.6964319159551051,0.6819827921893431,0.6622585203382889,0.6442688296277361,0.657317535827942,0.6603958641013548,0.6290184128253209,0.5787692090780592,0.5320120387597829,0.48122265255879393,0.4308825446182576,0.3917608147816032,0.3584187076024157,0.3723015230443951,0.39284012931760337,0.4354727527191238,0.477575657105787,0.49574462827582044,0.49459967003725946,0.48176849868074223,0.49513000557241327,0.4956723068343156,0.48358818275868565,0.4928576242556555,0.49278148625531015,0.4499853998643917,0.36910602970271666,0.2924576880502019,0.21672438312430709,0.1355054806247722,0.0734493446490414,0.05732856715136725,0.11492103312598134,0.1934909861461085,0.27673358998513553,0.3700994268501958,0.46069844633089696,0.5272465226834009,0.583720499535993,0.6730612081277076,0.7642102068069696,0.8389126082467064,0.9296734711478778,0.9999999999999996,0.9621158149077069,0.9000233130478494,0.8465000357267045,0.7872282459285,0.7490065118760811,0.7367277503318808,0.7544564362667328,0.7531074120567145,0.7318733613945616,0.7040133735345626,0.6654660975537294,0.6152025636374558,0.5571597857789472,0.5063037195406728,0.46238194613245875,0.4328015182445357,0.4252330281334795,0.43723889122373416,0.4603432827693754,0.4781312708305756,0.4951941826770079,0.49464401859025164,0.47637101931163794,0.46408267894458044,0.44802795186164035,0.4299262079539288,0.4408089707746572,0.44042011808942716,0.3861724077241062,0.3136663666139681,0.23456109904319167,0.1586108532368833,0.09116491693716267,0.07563465696894589,0.12412210438343063,0.19962209300002032,0.2774930688477464,0.3704728681751468,0.4639254001879509,0.5573753575864009,0.6482175318935508,0.7230067367399737,0.8141185811634197,0.9064926478085646,0.9457989016196637,0.8954036525909754,0.8283182139772856,0.775900081956618,0.7390870076813485,0.7017957467394083,0.6666303063307373,0.6697465920184027,0.6663453284267127,0.6605040183105881,0.6362649825964373,0.5900866658492716,0.537858772902879,0.4960266126867894,0.4423278184088253,0.3769254935739417,0.34375607963119315,0.33079809384851266,0.3374919740648563,0.3665141272377008,0.39519784187843277,0.4074650984423971,0.4229870905680677,0.40539034980893796,0.40679427425452097,0.4242642038819797,0.426739545157373,0.4456515129167773,0.445490456877641,0.409528410051037,0.33729622769362466,0.24703913413285683,0.17252242429074283,0.09666137670703812,0.0764006280593974,0.12400226415337867,0.18972833794491395,0.27509793128229587,0.35007579552158186,0.44166658157415295,0.5281162944521429,0.6055345325987149,0.6984366103529167,0.7917357805682053,0.8734438670417171,0.921288160216871,0.8709537748730569,0.8038410663094786,0.7591499547705314,0.7361974529086739,0.7197811557835214,0.7290205616670908,0.7320550036636502,0.73127031798392,0.7060379504501761,0.6598366014687409,0.6105845604155684,0.5495800079160413,0.5072001761026632,0.45179122966468244,0.4145915277767114,0.40181242264309747,0.4144762237561834,0.4329350854308327,0.47290469112048594,0.4960874714144188,0.5117923763364334,0.49009114562777123,0.47318481121552836,0.48793351139219876,0.4760276141353592,0.45837129108728014,0.4640612513822937,0.45212255075690333,0.41798891962678164,0.3392573646301047,0.2655439577169334,0.19157725363687428,0.11676268905961207,0.07774694140534422,0.11265218283087686,0.18556058961258204,0.2608167407471411,0.34964144608133996,0.4420767668834804,0.5113362000985853,HB
0.17849808829737634,0.19603426250694111,0.2314511858725159,0.27877002496125414,0.3370813530563259,0.3923463353729315,0.44747377384526654,0.5139095671672926,0.5787664500037994,0.635910163049334,0.7060840012884779,0.7752083490672885,0.8301088119455153,0.8979043315346678,0.9496894778136582,0.953854633626039,0.9089159410831771,0.8550180749431804,0.7859787377012957,0.715356504194204,0.6447337517917897,0.5741113832114304,0.5046688631688352,0.4495674239973608,0.38194889116262454,0.3146376379722158,0.2733071235514273,0.21789423487561566,0.15853608332766456,0.11157889687410982,0.14395514656513608,0.1730354880883933,0.17536980451346595,0.17664588688607852,0.1948218738553984,0.21821955281280303,0.233871024967228,0.23136158107454863,0.20497882999740025,0.18660064924201336,0.16912059039337102,0.15888896009631548,0.17414351025930896,0.17537021513384632,0.17541508525803184,0.18466068967344196,0.19495873185075752,0.1949678639710486,0.18471813176172835,0.16130695492254565,0.13783360560803715,0.11440481609819875,0.09499766571536661,0.07360507685766393,0.044754946745962254,0.02512008497033147,0.0,0.0023527465048367446,0.017039265117827274,0.01774417867500988,0.01790704342391658,0.02905026869091598,0.04159535317712537,0.07100222031088066,0.110964745887014,0.16368256243905455,0.21689963572806548,0.2776541139946209,0.33270079122463425,0.3999365266105239,0.4581909394236465,0.5217641093657304,0.5923461958519525,0.6629689482543686,0.7335917006567834,0.8041314548771181,0.8645767758349412,0.900880506447546,0.8875881541980224,0.8322555959572484,0.7700359964899692,0.7107029680576247,0.6402522204575218,0.5696402866021835,0.5040764984357109,0.4573386628530387,0.41475739662868394,0.3462478031897449,0.27625694821254854,0.21997466691879586,0.1540756967314998,0.08401929140705455,0.04636992773538884,0.07623041228545757,0.11576812297833161,0.14077550570471464,0.1587488209186909,0.1878665889583626,0.21721807071486277,0.2528951908270707,0.2835923139782861,0.29192996531396176,0.27548030375630583,0.2522307892264224,0.2208083139417676,0.21479448871457274,0.21489854792107144,0.2246769540197402,0.219194722821475,0.22635546973637544,0.23567499982143447,0.2501490252405345,0.23746215631006473,0.2341236160622513,0.22047385955783172,0.19706893250199764,0.17363997473808945,0.15409936739630137,0.12670203106022226,0.0991729149410201,0.08436497256936537,0.05901843522112982,0.04707012024246504,0.05696105119756378,0.08035491406132422,0.10377533735580435,0.11606845364981089,0.12018170055451272,0.1357766932732587,0.16208085971074526,0.2006402610093314,0.24660659188720402,0.29997303028854017,0.3568743546055697,0.41826386620744405,0.47320666436996284,0.5407432995434727,0.5983312496023454,0.6626050110216561,0.7332053617484751,0.8032965183491583,0.8594920909054542,0.9252462471939951,0.9831159478182392,0.9999999999999996,0.9597148680671319,0.9141674218612108,0.8613605465289607,0.8057168050015182,0.7358324663236093,0.6652097139211963,0.5945943593135579,0.5276871859725616,0.4721846697013943,0.40242198862511724,0.33191824611828746,0.27177066174227793,0.210215574924971,0.1441700331265956,0.1489477581943368,0.1790221358142814,0.1944966557982144,0.1954424172123761,0.21341866922136754,0.24032552890827086,0.2585728582511275,0.27291460985220395,0.25792644577117674,0.23527000426266342,0.21712032493630318,0.19605549018807222,0.19507389664269015,0.19510924759529047,0.2031650414271975,0.21498512764607502,0.22909276990920624,0.23446864061913475,0.23447997713375868,0.2329372591590868,0.21717007060047822,0.21283564590323012,0.196752563143598,0.1832806477484068,0.1660604975655895,0.15030822429008062,0.14814739957808332,0.12273973455195941,0.12066945945480256,0.1475991829447123,0.1571311674083633,0.17290230431463494,0.1724146647654825,0.16069888499258989,0.1746547837017931,0.18980104825615873,0.23042084526708662,0.2756616469344011,0.32883611174797167,0.3876633541427119,0.44408774890909974,0.5069000341188015,0.5618075685941832,0.6309645290928945,0.6960609322786651,0.7530117874693238,0.8230751373162453,0.8823406173572819,0.9019526180230355,0.8636469700270264,0.7942072864339429,0.7369443410948966,0.672221196691269,0.601621149669485,0.5336079587857179,0.4786624957413492,0.40945313742561407,0.3393407852043424,0.288968282178768,0.24851775993288427,0.18610136758357143,0.1320292558779803,0.1575489828938741,0.17719502245128593,0.1932812876141088,0.19771620840844806,0.21368700420882858,0.2314576091428262,0.25880194470495965,0.2712823327172704,0.2471531076612532,0.2220457084792944,0.19994306946922258,0.19223088494677754,0.18029134161942606,0.19095375125171765,0.18073362514160296,0.20134278023207264,0.20785130473908575,0.20874246874281877,0.2147567018320844,0.2142740555526439,0.20053779615979028,0.19446863694264716,0.1801601022629833,0.17249689879548802,0.15645568659906006,0.14082763592938585,0.11743627227387066,0.09887591719535216,0.11202974483962702,0.119658599659211,0.13502775931449307,0.1400405326671752,0.15500689089136888,0.1650298083218873,HB
0.7932665184623313,0.7741984961589434,0.7528997776803164,0.7509011801387651,0.7178980849005856,0.6383814649760211,0.568807297710396,0.5037221416912945,0.4424893782896784,0.39142821061832267,0.372995644573602,0.3972897151273431,0.4584507341131232,0.4502698025969245,0.3849490134492295,0.31370726027143037,0.2432296153252287,0.17319782872724088,0.10461671166224518,0.035712663581501713,0.0,0.04147362093783169,0.10734048916752337,0.1760874573829554,0.2504485783798589,0.3128700974263099,0.36084130280025706,0.3737348062518302,0.4145474811963994,0.4780617405201508,0.5434476852356811,0.6070425749872737,0.6198691074723479,0.6285857991917103,0.6555594441789845,0.7191050040759182,0.7864210821173652,0.83911466748037,0.868789945955958,0.9006670924306159,0.9359686025863145,0.9808991156981723,1.0,0.9758117874768342,0.9177121865106188,0.8563467254577106,0.7998169900409549,0.7570712595831721,0.7345664295705996,0.7434745696684542,0.7492109646873901,0.7624435646654724,0.7580100535679524,0.7209523803548858,0.6521832729603627,0.5866390978809166,0.5276280758892016,0.45773072163256545,0.3810103935640605,0.3090174866801967,0.23423427762850912,0.1629543930494981,0.09784832788274933,0.08345344808935828,0.13201608328564207,0.19764584682763853,0.27036219077024737,0.3388959347827156,0.402762804926704,0.4687364367256692,0.5445289668388757,0.6133985042954682,0.6806774106462958,0.747096992191461,0.8011411580369994,0.829936522079644,0.8737066341931512,0.9114392520153292,0.9481658606372254,0.9943820286381508,0.9857474889239803,0.9445924974862328,0.8906248469285307,0.8406271653421187,0.7942485712740477,0.7630554229796833,0.7591400814624314,0.7626969752064654,0.755914093036373,0.6942919408331463,0.6222458700897291,0.5555101697956082,0.49810240906140724,0.4334471774398869,0.36286306587955663,0.29075416706480617,0.21978976107234915,0.14578186720623343,0.11357841607645702,0.1487480604974627,0.2125198370703265,0.27808641117465016,0.34270254155919,0.4088912874337407,0.4785088147533494,0.5473031957681456,0.6200083178659561,0.6884430969861439,0.7538737840353935,0.8104708596897883,0.8484744228428607,0.8894727867095713,0.9166014621590839,0.9519166501412211,0.9808337595157481,0.9622574837121984,0.9079314248498709,0.8539430317141745,0.8023590098630433,0.7658460608746416,0.7465764956860128,0.756615514967041,0.7555133353655048,0.7061646396913721,0.6490490701296516,0.57929554799711,0.52046995601465,0.46261406326969867,0.3882765838086153,0.3163155030070133,0.24445981767559832,0.1760666120262926,0.10917203222560912,0.07038316336677464,0.10775050402577313,0.17143156201144993,0.24074052416800162,0.3097160977268818,0.37668960541797003,0.4441633080289451,0.5124779109070934,0.5807902476337952,0.6497776636115145,0.711314417354318,0.7716502257123281,0.8201165798440702,0.8454525120377427,0.870657350388583,0.9077076208384951,0.952778184845545,0.9818087541952947,0.9479639345991497,0.8946719549323721,0.8392473543069654,0.7924225942460232,0.7546313520325403,0.7529016801964525,0.73828174668887,0.7247190267652708,0.679117593149372,0.6055049038942188,0.534625496573756,0.4638966625974281,0.39912700815446667,0.33004246177879204,0.2554608529692781,0.18682574759821136,0.11852141277681993,0.05603951054861622,0.042562175589095474,0.09205293926518343,0.16940822832696778,0.2444115536835718,0.3168181996510031,0.38199139881779365,0.4495816602719893,0.5199284127099766,0.5886150676968538,0.6550951633271094,0.7203766506370033,0.7833254245887691,0.83343098434765,0.8529402273961986,0.883734152575026,0.9298053666198007,0.9675970329766113,0.9600364551267231,0.9075541792132555,0.8606637792203715,0.8108161041564919,0.7745602018272684,0.7341843012038263,0.7042944526599451,0.7055299821961531,0.7043541783110658,0.643421619531551,0.5729891550345303,0.5087953018330524,0.4453886301641403,0.3754576238855374,0.29514587485185895,0.22156380320569902,0.1489460103287994,0.0845202023043583,0.020883701455137516,0.00031252870215814355,0.0478794412490009,0.11768250115232504,0.18413227707427215,0.25437293689787865,0.32642452980578174,0.4070711375856293,0.47822522522678845,0.5458931243956591,0.6136523759296448,0.6876881343169354,0.7479692733734788,0.785838993729226,0.8233436944836878,0.8692126180217592,0.9084059583965236,0.9465678485977551,0.980194554171185,0.9651615878634918,0.9099070623869197,0.8562340334217495,0.8105047624781689,0.7554476741898677,0.7130203987315467,0.7127910849603469,0.7275243065306052,0.6941729928647686,0.6239001096924994,0.5533617717814319,0.4863986170652801,0.4265837130852801,0.357010805958174,0.28612335271285216,0.2096162842362137,0.13850720267310757,0.0701589213513274,0.02002176755566798,0.03256451319144049,0.08857507697597233,0.14085231327373293,0.20115640716108185,0.2716773076476864,0.34409002660597365,0.4142482088121229,0.4826023854689323,0.5463964203420808,0.6174983829772551,0.6848895660167247,0.7468950490488466,0.7965370606742455,HB
0.7414643315484,0.7864392049140498,0.8346148793170256,0.838286462331574,0.857276587291822,0.8577379217093748,0.8619187273084767,0.8865664697097442,0.8884996606945537,0.8885000924007187,0.8884732938399145,0.8785884228689707,0.8426479089873373,0.8056557095647285,0.8252447688886111,0.818997068875384,0.81115763931599,0.7927031079974274,0.7039535810199702,0.6130160707673653,0.5227121448579544,0.41691267088318806,0.3135562324103347,0.2326615925076121,0.13223346389931656,0.0691531016076361,0.0818879379339581,0.1623304731328883,0.2646028428429954,0.3455560075137516,0.4490073879777041,0.5548010643257228,0.644702098797933,0.7360254677614533,0.8264051834161377,0.8758823771868745,0.8547866290233204,0.8153031856733781,0.8090014385954136,0.781529151993877,0.7373499365370879,0.7058268526210334,0.678656265463049,0.6525922304030622,0.6424098302866934,0.6440063254215485,0.6712289080503062,0.7076059459288473,0.7693519223956331,0.8353285256710139,0.8733958941994082,0.8883977805482965,0.8951639038276653,0.9181809234548197,0.9208628555693119,0.9384669880492531,0.9215005921449002,0.9468978819299849,0.9786678264642763,1.0,0.9803080595649014,0.9535954546874006,0.9251798613284334,0.8323445607917108,0.7513934784256442,0.6663243633145957,0.5724752455518285,0.4666591210876092,0.37297075474994656,0.28554576355456973,0.20513559651949453,0.18556651495963283,0.23930785819431488,0.3278318202325501,0.4288460523368176,0.5103716908099907,0.6146689181037486,0.7206055355864827,0.8255426405444339,0.8859785296086082,0.8919495627736937,0.9167894729635808,0.9050259973696395,0.8796642384727313,0.8397925427354824,0.7892929745390846,0.7450494299042756,0.7162937561930507,0.6770873505753539,0.6765477337330701,0.7071371790455947,0.751431668016469,0.7927728403778405,0.852417654521866,0.886026166687369,0.9124053088287107,0.9297850966314849,0.9495512809271576,0.9327611774306552,0.8632808353030459,0.7831680286782587,0.6825423104025532,0.60165811271371,0.4992248213602597,0.4148236735303481,0.35175273938419593,0.34304500381504965,0.4221744293440972,0.5226826283457564,0.6045787155514004,0.7090112982169847,0.8065770435430641,0.8581451525062578,0.8864915358128655,0.881212680020897,0.8548446220883319,0.8326430322627445,0.855233367206262,0.8516269977539652,0.8102218746882537,0.7962914318100571,0.7963237464428428,0.8113113654044746,0.8370694227668123,0.8573578394678227,0.8577399135061494,0.8627846789875306,0.8898740212822052,0.9283327594765263,0.9644817149027203,0.9558263096311927,0.93853899654773,0.9196480555340392,0.9088401244639392,0.8872448255875058,0.8621825385113819,0.8559622380327676,0.80541286435054,0.7260093125221037,0.623386617652212,0.5288125088469133,0.44182927741328903,0.3363202005284167,0.2367260936842044,0.1546859625725876,0.07311110309443691,0.029715940799325047,0.0698375659008299,0.15113090032839427,0.25615071798444333,0.35215273622159415,0.43769167402207465,0.5432397114021867,0.6491759666332637,0.7523189117472908,0.8174234436464518,0.8508047165327799,0.8412755139035575,0.826944849067833,0.8115674781765589,0.7861458627767579,0.7516610507638486,0.725793781505689,0.7045515938305265,0.7081369043066967,0.735036966921168,0.7653745072992777,0.8089109278401967,0.8490348782675516,0.8994943499275383,0.9220806042009242,0.9473366528480938,0.9369315788293688,0.9204837397941841,0.9429952884471886,0.9316593421033703,0.8924714387963144,0.8862819787145897,0.832194110021307,0.7524451249879283,0.6672029136863369,0.5736764737390896,0.46822109252512245,0.3827398493166898,0.2866780408094751,0.1816740720691712,0.09828030015082234,0.013347388460732468,0.0,0.06369785826463037,0.16908194747499827,0.27500873060806974,0.373987764002762,0.4571259440172737,0.5620621358996374,0.6672684681888885,0.7513911633818742,0.8282092538179384,0.858235630097079,0.8769142176918319,0.8513514623785587,0.8233362642732756,0.8084885096640191,0.8159721008380441,0.7898555271887986,0.7469476789597209,0.7065689531417014,0.6745285563799177,0.6892970174406141,0.7158237274139339,0.7651820215846996,0.828221284791419,0.8917485109602721,0.9273055182910399,0.9496130803083451,0.9500144243727808,0.941494912809274,0.9223897615665315,0.9384652666669115,0.915755051638933,0.8905587981042533,0.8736043956489477,0.7902785330710493,0.7077511774601453,0.6043544394540126,0.5225021729789106,0.4217304136435285,0.3161693749090375,0.2302670869619341,0.1420338527830607,0.09309830047052259,0.11947162806458067,0.20602578526246074,0.294094279962815,0.3997783823764962,0.5057153435916506,0.6116523048068103,0.7172157569458735,0.8045211026653165,0.8776552798468948,0.8915909907098758,0.9214070034404624,0.9484020985641788,0.9471939870667017,0.896537450703577,0.8355711964832313,0.7962098538240054,0.7725502213390119,0.7656982659067486,0.7831385413399152,0.8009664342913876,0.8424986690219844,0.8828333486645459,0.933335783712355,0.9692970049092784,HB
