0,1,2,3,4,5,6,7,8,9,10,11,12,13,14,15,16,17,18,19,20,21,22,23,24,25,26,27,28,29,30,31,32,33,34,35,36,37,38,39,40,41,42,43,44,45,46,47,48,49,50,51,52,53,54,55,56,57,58,59,60,61,62,63,64,65,66,67,68,69,70,71,72,73,74,75,76,77,78,79,80,81,82,83,84,85,86,87,88,89,90,91,92,93,94,95,96,97,98,99,100,101,102,103,104,105,106,107,108,109,110,111,112,113,114,115,116,117,118,119,120,121,122,123,124,125,126,127,128,129,130,131,132,133,134,135,136,137,138,139,140,141,142,143,144,145,146,147,148,149,150,151,152,153,154,155,156,157,158,159,160,161,162,163,164,165,166,167,168,169,170,171,172,173,174,175,176,177,178,179,180,181,182,183,184,185,186,187,188,189,190,191,192,193,194,195,196,197,198,199,200,201,202,203,204,205,206,207,208,209,210,211,212,213,214,215,216,217,218,219,220,221,222,223,224,225,226,227,228,229,230,231,232,233,234,235,236,237,238,239,240,241,242,243,244,245,246,247,248,249,250,251,252,253,254,Target
5.993723480631277e-05,0.022701233458308757,0.04689507874675605,0.07109002975055798,0.09528498075435991,0.11947993175816181,0.14367488276196375,0.16786983376576567,0.19206478476956756,0.21625973577336952,0.24045468677717147,0.26464963778097333,0.2888445887847752,0.3130395397885772,0.3372344907923792,0.36142944179618103,0.38562430902220135,0.40955201455114215,0.43002634951728375,0.4531711811753322,0.47736358202273166,0.5015585330265336,0.5257534840303355,0.5499484350341375,0.5741433740696849,0.5982141572660338,0.6190312575301384,0.6416966247288584,0.6658825752606882,0.69007752626449,0.7142724772682919,0.7384674282720938,0.7626582622386957,0.7856516931186608,0.8062143614506322,0.830206683275303,0.8544015684986446,0.8785753963347435,0.9006753153445554,0.9218449518564857,0.9424156310067044,0.9618402122323382,0.9695041382514543,0.9573704382661106,0.9362816240177312,0.9159455134194531,0.8980935317933659,0.8912228029571257,0.9048052069151378,0.9072253413990349,0.8976854426525389,0.8857437754820033,0.8695589785642986,0.8519600492582109,0.8461338335016385,0.8588520045067424,0.8696673269933617,0.8627756977007587,0.861854855909856,0.8734946025285713,0.8749469028219975,0.8807055929677569,0.8919354992932733,0.9091399974322489,0.9238331844009239,0.9413966108798593,0.9609355308329696,0.9810493769791254,0.9983933890114429,1.0,0.9895620776241989,0.9731306151375714,0.9533840611652573,0.9453220798847118,0.9324757862490376,0.9161956155024379,0.9009218110888673,0.8848048811137283,0.8842128648292551,0.8818296968122618,0.8718465923568051,0.8588969712670997,0.8543318364900371,0.867302516541355,0.8665780804073083,0.8531675139445505,0.8423955505116583,0.8247888037858734,0.8040018199095884,0.7831202150927715,0.7608389006381882,0.7402861599865098,0.7172927291065453,0.6931019041161339,0.6689870958168486,0.647842689484529,0.6255421314969977,0.601362705917194,0.577167754913392,0.55297280390959,0.5287918214846584,0.5065010338362762,0.48534396913659855,0.4612336146868407,0.43703866368303873,0.41284371267923686,0.3886487616754352,0.36445382563195106,0.3403697846683678,0.3196831239891471,0.3037075079823546,0.2872487998890791,0.2709238760728849,0.2549889375702566,0.2391930986544753,0.22306334837734743,0.2065989632097394,0.19027403939354515,0.17433896339080876,0.15824372639209539,0.13560564848804535,0.11147021665717237,0.09131569492942261,0.07294872872198682,0.05528253621593891,0.0691907037844407,0.09326874381354278,0.11746368584115414,0.14165863684495583,0.16585358784875753,0.1900485388525598,0.2142434898563615,0.23843844086016378,0.26263339186396545,0.2868184151874736,0.30930235882118823,0.33028841758334065,0.3543725960470326,0.3785675320905161,0.4027624830943177,0.42695743409812,0.4511523851019216,0.475347336105724,0.4995422871095257,0.5237372261450729,0.5478080093414223,0.5686251096055266,0.5912904768042471,0.6154764273360763,0.639671378339878,0.6638663293436804,0.6880060117805142,0.7081599210340122,0.7260039283096241,0.74607088628183,0.7697198686861365,0.7939141072113336,0.8178418127402748,0.8383161477064162,0.8614609793644643,0.8856523735042469,0.9090645645869619,0.9294025997679283,0.9526297312673561,0.9711668224446046,0.9736853940240343,0.9551083368992966,0.935687267951169,0.9152542304767473,0.9014760533427503,0.8969853332344733,0.8960486727365488,0.8893473939462779,0.8705667546221376,0.8581568007821874,0.8524718184019304,0.8566200229925299,0.8719436760074525,0.8786010340341912,0.8666099717473482,0.8646760525915785,0.863623822031194,0.8704141288753853,0.8729747163875259,0.8911397301787798,0.9057198393058713,0.920484869166663,0.9374142923808488,0.9540853285292318,0.9722851374615542,0.9801871568054266,0.9651642683424104,0.9479446518435996,0.9343011290780279,0.9227450818257789,0.9232735963540033,0.9081576067077978,0.8943787688709943,0.8815032541735581,0.8616833110799921,0.8493556013442591,0.8419441142275924,0.8430757469427663,0.834747220497879,0.8319213715065628,0.8306323162195355,0.8251324595970908,0.821124995758925,0.8306693613519996,0.8402949209930944,0.8507030744100371,0.8621168340097038,0.8740393651224793,0.8760001746107928,0.8875586645013556,0.8986129694280888,0.8822903437489295,0.8584339109541033,0.8344531371128209,0.8138979342606389,0.7908857897485648,0.7666948711098388,0.7425005325802878,0.7188697736140579,0.6986040625191452,0.6749550531862656,0.6507607308832881,0.6265657798794853,0.6023708288756847,0.5781801284778428,0.5555416979147404,0.5388688468722997,0.5156747222127075,0.49268294060262935,0.4721202722706571,0.4481279504459856,0.4239330652226453,0.3997381142188424,0.37554316321504194,0.3513482122112391,0.32715326120743626,0.3029583102036357,0.2787639716740847,0.2551332127078549,0.2348675016129421,0.2112184922800624,0.18702416997708496,0.16282921897328217,0.13863426796948164,0.11443931696567884,0.09024436596187599,0.06604941495807544,0.041875587121975616,0.019776737922755885,0.0,HB
0.6353095663794142,0.6723656207387132,0.703550354539124,0.732607664276606,0.7380881650247204,0.6803269227446167,0.5836161520160361,0.480030323391329,0.3720756537477037,0.2600573033217368,0.17190371781598834,0.20764930490680356,0.31518389260492863,0.42386798115476143,0.5362125489574272,0.6453367164793666,0.7583486923214429,0.8666381360775903,0.9578440815625784,0.9350441963360276,0.8378627674066934,0.748479201520426,0.7011041165210297,0.6529953533562367,0.6188402864631135,0.6518559690566621,0.6872041058220268,0.7156590117619077,0.7354451854289152,0.723252185768483,0.6473242733778422,0.5489653956802754,0.44432070126442724,0.3389778730334443,0.23617356284939617,0.20566827898909756,0.29744232166719997,0.408808246672854,0.5176625456347121,0.6319206716166723,0.741082081791997,0.8518467182765146,0.9451140943799177,0.9339472479986566,0.8324035403814367,0.7372557363658097,0.6832594487510264,0.6361377398197365,0.6134626393144442,0.6508627659516608,0.6884891258480681,0.7222514706655898,0.7574579217439337,0.7481306199433793,0.6826543414698514,0.596249781994844,0.4916331140988879,0.3847331478185809,0.2785839069207783,0.17387978343099264,0.11710568732986859,0.19587366208677492,0.3086122851861435,0.4244555978698463,0.5402312763742634,0.6518515426051981,0.7623500315261418,0.8731990829703578,0.9747078566206697,1.0,0.9145489520168304,0.8121823191712347,0.7276052157419863,0.6851615134892108,0.6269230763201115,0.6415066348601299,0.6856873163540507,0.7208021779185501,0.752662592048873,0.7679801999289713,0.7246476890691969,0.6334549154122884,0.5288621262370137,0.4233689201294042,0.3180217463896873,0.21340407058641553,0.16835742164573375,0.25488596900891247,0.3632811147528592,0.47680860902154687,0.5859283685027659,0.699463555493476,0.8149266031199367,0.9222905487086017,0.9761758293832661,0.9070661340472363,0.8085229431030945,0.721728368631944,0.6733679593022737,0.6230615947821647,0.6366420054931599,0.6691816787426381,0.6902100679097105,0.7161424543035169,0.7283748313875293,0.6875930043477192,0.6010475322163644,0.4943756328046194,0.38489400064030566,0.27928159519406326,0.17555105277664063,0.1432860108020355,0.23552443719027538,0.34754292271857956,0.4576264179787708,0.5692405630848669,0.678493705003969,0.7899255529150024,0.896761544978157,0.9552354084558614,0.8876797065935191,0.787979026377424,0.7044471590829617,0.6637660781165888,0.6080506540772388,0.6146597310894795,0.6526471005741363,0.6893690181890924,0.7247833953224285,0.7402263767414927,0.718099087493949,0.6930481083683877,0.6578121067393261,0.6198262951639593,0.5813018034249802,0.5614796045786941,0.6120418051089644,0.6552671427055903,0.6992741552137163,0.7730584337308668,0.7260291863822841,0.6123919857864197,0.4965872429950664,0.3852117160959112,0.29153835713081566,0.2040882313570176,0.11219367536203761,0.03265202344852014,0.06460803808674931,0.1681489008041126,0.27731038068500014,0.38250169670535605,0.4872082592271365,0.5906714697749191,0.6726257746408792,0.6893856449553548,0.6639689002645619,0.6390697133800416,0.6024209864183316,0.5716742891568958,0.6143837992613748,0.6640316895847396,0.7205087350614052,0.7931413321256449,0.7421606113134112,0.6339259283047831,0.5199127277972444,0.41113441454945665,0.29825241040322314,0.1897616818996164,0.09023017636517383,0.07890470630376978,0.16905729712584638,0.2747938491246178,0.38195117113369026,0.48660904972154273,0.5826259416329411,0.6784170753517982,0.7309137447776679,0.7208660017589872,0.6933750134799253,0.6583408978399203,0.6164693105839365,0.5796431529690018,0.6208852672816296,0.6770048478166106,0.7281805261076921,0.8029335347946813,0.7593589676157115,0.6469472149011393,0.537599037047152,0.4247506406215311,0.3147744592017889,0.20364107474244464,0.09608022412814576,0.0,0.0005326119258993733,0.09496950515504876,0.20100951865621863,0.3072865275431662,0.4130755873963077,0.5196096578055167,0.6258198996353808,0.709760650584198,0.7187003664506484,0.6792630473090666,0.6433642289418644,0.6007974657883086,0.5672530546780541,0.6038938846505177,0.651911672977769,0.7052125123275568,0.7761769534156213,0.7166063045802258,0.6083603868085403,0.49597125375532936,0.38680923541294243,0.2753646272057766,0.16904206433422075,0.07695925966890349,0.0828098229023777,0.17692791584213086,0.2818109298152969,0.383572261287064,0.47516323831453344,0.5783930508905837,0.668939731037713,0.6998901648259006,0.677698839507815,0.6453608039351473,0.6093265637818768,0.5766575810273662,0.6108542121847329,0.663877967246008,0.7115806611394371,0.7726422286579222,0.7141481710787243,0.6031542253617137,0.5030171296286163,0.40165281754160076,0.3058015294890477,0.19973864958755128,0.09948443295004727,0.062369717016670156,0.14481099257502628,0.24897272407330995,0.35401743119471396,0.45987741209651745,0.5639967918886934,0.6601092877299666,0.7039180078059568,0.6828944610896852,0.6549528065085226,0.6230651344681379,0.583956029110495,HB
0.9351963313020413,0.9856007545362928,1.0,0.9245240380313393,0.8252986940471536,0.7234492687971574,0.6894446990090337,0.776255486406443,0.8662358015811393,0.9072713217484232,0.8967825855430154,0.8625047895892632,0.8492180764801804,0.8733231508022681,0.88793431741095,0.8881629378183264,0.8639201503884015,0.8317331556915768,0.8095956401971418,0.8164110868367578,0.8488618743118788,0.8823767810951644,0.9050317191102257,0.9531871628289132,0.9562227997660213,0.8782785219865503,0.7750845602976049,0.6647935049607261,0.5591007344027814,0.46303069223712967,0.46609767643428346,0.565084866875285,0.6674134238455183,0.767116801195765,0.8509056534380464,0.8543598832381476,0.8223655613190184,0.7846457208580029,0.7705508179615199,0.8008633660101694,0.8385046252901431,0.8403612886566458,0.8267203335849658,0.7891034927921585,0.7642144512883182,0.7468717664305498,0.7802429009836951,0.8113397595370371,0.8303927846056496,0.8773630781880781,0.9278525457614188,0.8864819856840884,0.7969073117102896,0.68988931065569,0.5794474236223448,0.4852087921373036,0.5155219719357913,0.6177563562194639,0.7190081098067578,0.8156601232506153,0.8707987016631438,0.8846226871118583,0.8628426403750633,0.8374618023748348,0.8646466126045231,0.8860532656918587,0.9054828193448663,0.8994673349651694,0.8824882136832977,0.8457411158492651,0.8208039969491643,0.8407295690663275,0.8751325838231634,0.898636308510615,0.9255287683384643,0.9747764094489915,0.9582900799076466,0.8602132771876736,0.7586065544578302,0.6528688456001217,0.5815682564701012,0.6407508531279189,0.7416274820863973,0.8401285749852239,0.9115667528096338,0.9098979292071223,0.882954817081469,0.8516255260609751,0.879229759188572,0.9129849157571641,0.9235143889690502,0.9245599647965772,0.9097328655976948,0.8716287946271444,0.8394251468768443,0.8273272053482916,0.8515840157487697,0.8782203532463067,0.8789615420758405,0.905305950904586,0.9425146433412861,0.8897084324466165,0.7919984839283014,0.6912456692447131,0.5894222863046343,0.5862488544117728,0.6838059638296228,0.7812026891985306,0.86675934874178,0.8803811932596264,0.8199475371288805,0.7359453297369236,0.6533483431730445,0.5472231830716341,0.460973586744414,0.3630864001999612,0.26028858846542535,0.1672381839099233,0.17074247146544486,0.2653095076583327,0.36988404985326984,0.4731683330166727,0.5781026881730817,0.6810722840283192,0.78658796343128,0.8771098064200342,0.8561545331065923,0.827627908396023,0.8305627396345407,0.8028961562531416,0.7771429176490687,0.7883117555508079,0.8066201105187312,0.8488764989400988,0.8693242724636687,0.870391940344911,0.8479580505708051,0.8099535819016825,0.8142994469635627,0.8446676925605172,0.856494487449412,0.7872466741122817,0.6861029263186817,0.5831282942204454,0.4784336205462527,0.37644582768267054,0.2707443111232235,0.17013647041048485,0.09943560986943978,0.15494262299664374,0.26335821178018937,0.3738892255640456,0.4839535791201133,0.5863510841531192,0.691279879534874,0.7920958861293759,0.884848657642769,0.8889407238241778,0.8588945633398017,0.8442460838749599,0.8135437439663873,0.7855169052043589,0.7818715891598198,0.8122802472667345,0.8443785416843714,0.8542755303273233,0.8456621812402365,0.824148035123915,0.800016109039539,0.7948601202325101,0.8324293194150525,0.8255110713322207,0.7589318028434895,0.6589299750908717,0.5579065351686883,0.4511075573729675,0.3497718926805615,0.24105128476445792,0.13947154092031422,0.043332750707165024,0.048433951626247085,0.14225340336932923,0.24984976606966192,0.35368916382601645,0.4584402696017864,0.56638602435149,0.667655429896389,0.7727066773145022,0.8373715731726006,0.810285340585311,0.7778388585307026,0.7531924011657205,0.71950407826655,0.6942624858618767,0.7083085260366293,0.7339235434510969,0.7720535739234924,0.7934442096967689,0.789424074551849,0.7597361278064358,0.7203820416407354,0.7137812757378823,0.7573227319590319,0.7936026182633702,0.7706135077110376,0.6783171028871608,0.5751878132323394,0.4737580122649916,0.36556505288537977,0.2644430482340594,0.15618931056153107,0.054557885119332905,0.0,0.07546209266881276,0.17967198873227863,0.2835877979396286,0.3931560061712833,0.4932819067601162,0.5831619265571777,0.6834574466008676,0.7848884287887805,0.8787843444162049,0.8831440350243991,0.8433195250480527,0.8395896520603157,0.8130719280561967,0.778061582189316,0.7502655790130142,0.7645394954715403,0.8026915735444962,0.8335724581691504,0.8367443217223252,0.8302578040239696,0.8002517102352376,0.7959227080643791,0.8393183319495634,0.8568132304365381,0.8361742921831472,0.7489407587583266,0.6471397039378664,0.5433085711418892,0.4367543929061606,0.3346395926540371,0.2279853211312084,0.15516556002164217,0.2044737283079665,0.3068905615547215,0.41075259223031235,0.51986696721308,0.6210781975436324,0.7285089811118959,0.8295728800720248,0.9193062409446964,0.9149666195564108,0.879496068613665,HB
0.5360127072423193,0.6286986806634651,0.74500533852967,0.8435295149761384,0.8434978386629477,0.733067060581722,0.599978360220093,0.47203253955091107,0.4500807746737765,0.5466825212584854,0.5891730703406926,0.5849678303706236,0.5783551356174965,0.5379833449517859,0.5413427112221685,0.5718682739550149,0.6029439623945922,0.6259991404774685,0.5964033293388749,0.5642630466141192,0.5105300600633886,0.43197693414876337,0.3816777316922235,0.3981697261308179,0.4655731718279572,0.5430815922402799,0.5941231329652239,0.6480559203781904,0.7523002744346576,0.8711797186401404,0.9551527746957853,0.9092416146670881,0.7850972190604355,0.6495392398985773,0.5579363720635904,0.6202736107439479,0.6800494477235617,0.6779848979980332,0.6760817720031742,0.6603618159956133,0.6087660156295711,0.6158382226898236,0.6193569760899029,0.6180307264232865,0.6280408719919031,0.5937579503099584,0.5524831568485973,0.4851411749787573,0.4258671601590365,0.36822654461150206,0.4125121248293655,0.49431567888463723,0.5615183526390206,0.6024400767916829,0.6694580385338127,0.7735704656422318,0.8850805548913039,0.954376895403902,0.8838831275784504,0.7546890687207068,0.6116885079882177,0.4890502312123757,0.5260668465112199,0.6323428802379647,0.6662488718452244,0.6569090152805219,0.641079724938832,0.5828337557503511,0.5693431489266851,0.5836997284912986,0.5866393209633567,0.6160599230336765,0.6278566556514762,0.6003443629857306,0.5435615979256365,0.4731776903583169,0.4139299138175909,0.4111114200934174,0.4735312546361947,0.54430557971732,0.612840370499609,0.6639338463067315,0.7579949454830204,0.8695380519267566,0.9770196546077461,1.0,0.8841102321562153,0.7517153823869887,0.6166362133592034,0.5372505749714938,0.6140542597174745,0.6721461781327136,0.7035939707590306,0.7148430123311105,0.6589447028673314,0.6003382965279274,0.6192345539535786,0.6581163487285013,0.6402408172616187,0.6518995668143033,0.6686308100610665,0.6418942909415546,0.5927855009020053,0.5262013202397648,0.4659070929224476,0.3927402901649968,0.3494081902829884,0.39169537364486917,0.4727313023283344,0.5231303641717928,0.5406386103030503,0.6141231168807555,0.7238996159150068,0.8446339363034223,0.9094138208535081,0.8308909426769113,0.7039899686124778,0.5678003203408939,0.4512404207201408,0.35576573545074774,0.38289880451612257,0.47582430533825226,0.5121188604458511,0.4609281939048073,0.3643981887248744,0.23927882625418784,0.10140942425003585,0.02289843391801094,0.0,0.09588912860493659,0.22841077842352187,0.3597235598142654,0.4896178389624799,0.6154413120603088,0.598773030192945,0.5131106364331983,0.4547790007045749,0.43802324567388995,0.3768020396198217,0.2978117126422073,0.2771750370865611,0.33046112385880777,0.39995475946984493,0.4732537176834204,0.5438166849420618,0.5863772665341065,0.5880754601704123,0.576385153678967,0.5683073737992639,0.53662787721249,0.5072891190200504,0.5594741777100665,0.6186504577980383,0.6158707681361708,0.5870252552158908,0.4864429463050133,0.3619740447234068,0.2382304429741131,0.18460525431406527,0.2868929718264699,0.42818293004934516,0.5584427644992878,0.6917843376809789,0.8042145731848072,0.7734736702931055,0.66792602326406,0.5816966224267119,0.5382272422908234,0.4791044284780228,0.40482299031909275,0.34856677522680757,0.34555400238081546,0.3899295296179832,0.4563137759393636,0.5151663030753912,0.5370086634537352,0.5134305545717561,0.5103968958242624,0.5175442039784337,0.4749301477460981,0.4846733522772375,0.5410250438877244,0.5839197610187337,0.5960659168525564,0.5147816266602598,0.39434857636504894,0.26666775275593846,0.14444914361020755,0.1287619640890889,0.24246542448918662,0.368722235066139,0.4805565068120088,0.6089539526257584,0.7328887466729155,0.7376403203930528,0.6394018494365041,0.5614925311372319,0.5140811230207958,0.48016181460870655,0.39792614350545463,0.3170611856516965,0.28346394226901284,0.3291662059583782,0.3992429837933873,0.4619543550291403,0.522641171406343,0.5553484975753329,0.5419420500406948,0.5547879649904641,0.5583901289432909,0.5146127089190582,0.5255068571288883,0.5818246202920125,0.6120489003629213,0.5843650534894782,0.4750355830104831,0.34959920050703674,0.22585793592752212,0.1699906517824874,0.26834560838560506,0.39706764344106604,0.5284109252849793,0.6618991480657677,0.7592935260966138,0.7193846156180399,0.625885138169548,0.5534244523822256,0.5086190342568893,0.4390873118660745,0.3685221872783626,0.31597078499024933,0.33695749404424724,0.3932037268798134,0.4562358295929947,0.5008889270004464,0.5282710310017396,0.5259627826804234,0.5005725591791745,0.4778671451300518,0.44969053740848386,0.47385415815459275,0.5116157047078365,0.5211805248332482,0.49060821299791346,0.3833551427019204,0.2588506342509116,0.15750005812053747,0.19273495525724105,0.3147749514963891,0.4442178777730752,0.5758601305043518,0.6844466280478017,0.6356066485265734,0.5334924772503231,0.4518519193780337,HB
0.7779884834410211,0.675367161413515,0.5931794119813123,0.6540887078366984,0.8177903348118036,0.9284985847180218,0.9130394022477413,0.8712884342122234,0.8365411196370482,0.7945109321034654,0.7734518807902822,0.7916033214055984,0.832147808931702,0.8237296368054698,0.7794157276343938,0.7729271031568228,0.7729159374484498,0.7724126540470682,0.7453464765035642,0.6846763916447403,0.6201850011549714,0.5888318679543376,0.6353236115687455,0.6814908296465862,0.7132925410694657,0.7672511371529573,0.7980176967257835,0.7853005525104182,0.8128088817930204,0.8300829938805858,0.8336939784154414,0.8200152553201843,0.8723500787570515,0.8025242299082755,0.738269106461261,0.7028959595197701,0.6820070347937737,0.6590437928206718,0.6862542727105305,0.693182172087246,0.7280538951522413,0.763171298380457,0.7501468314284185,0.6875163315377382,0.6278597212357804,0.5202868602784543,0.5396150575741805,0.727893630402983,0.8355751439066319,0.8389922104572038,0.7993442226207623,0.8140190919077774,0.8109507101800721,0.7742026881189075,0.7582762380544175,0.8018897039196196,0.8054341373357392,0.7818445091871356,0.7850168661039962,0.7382274506196014,0.7159086761095343,0.7655333830987177,0.7547352203672402,0.7685383293661463,0.7389858210813891,0.7321421470011318,0.7598121799677839,0.7323123869278838,0.6767411497038562,0.6025163330962453,0.6376683778039238,0.7922353276648417,0.8473888833997467,0.776056315208562,0.730477982741462,0.7011173176793086,0.690668818309252,0.7243954973949505,0.7644708405170642,0.7849414180846148,0.8263215701062423,0.8758237561942641,0.8743572915547304,0.8048581123420746,0.6781139421406115,0.5521331738680679,0.5917399483140269,0.7568389954223873,0.8807645291825823,0.8502662993571919,0.8157353106861462,0.792507086590641,0.7250111330166193,0.7062123151130919,0.7646032189764771,0.8140648273498092,0.8755042145279317,0.8885547936749463,0.8994335242295364,0.9000213511408734,0.8936333125323674,0.8454356378800272,0.7452263975350153,0.6240894298309172,0.6526241350706474,0.8188655898193975,0.9678914078601597,1.0,0.889511983439272,0.8858519123365953,0.927042267709008,0.9274321885011956,0.8994094145555573,0.8692688029828348,0.8577141823770233,0.8576606200172154,0.8576741539856512,0.864720509473127,0.8874783929005527,0.8734836497393612,0.8983314134564946,0.8698460585298733,0.8192102581952394,0.7663525346699425,0.6920307102452874,0.69492302183186,0.7509362854976294,0.7167964526905877,0.6857810461960394,0.7463237828574032,0.7559492567250956,0.7559670009337047,0.7558120562486863,0.7389292031815149,0.72199387852908,0.781293520559383,0.7975317025140436,0.7669849451659392,0.7318822938732392,0.7654116059022478,0.7086802478512917,0.5383360802601294,0.3656159747601144,0.2319838573266857,0.2640271412373201,0.41821276163175103,0.5764158338531917,0.6824736395170143,0.7528568710307733,0.7559662115927726,0.7558871006424042,0.7409799559456127,0.6837600236639281,0.6379400736476679,0.5928818535417371,0.591753226364923,0.6432119041536417,0.696693758200075,0.6884640386879681,0.6104685818524622,0.4482292596391675,0.2935531574533048,0.2876588532895852,0.35295622204554533,0.5041701670507566,0.6450803633084865,0.7281787898322216,0.7146746477376693,0.6877138445570727,0.66914005873178,0.632439730939538,0.5899325743156405,0.5610046595238725,0.574205057562903,0.5945648267230705,0.6332153481769778,0.6045619845530741,0.4467049327863686,0.2932900316567846,0.2704282647587295,0.3926370242196713,0.5094323253752249,0.5847929276153243,0.6021045164227603,0.588706439218921,0.6189544403798859,0.613050122583287,0.5592200716744173,0.5916139120886195,0.576812616438608,0.5635813199947322,0.6070223481364039,0.653657142586396,0.6425590866647752,0.6681829384968108,0.6373927235554184,0.5969460720596054,0.6070976345703594,0.6490257966290809,0.6708263038944606,0.6529943679937755,0.5219821947222831,0.33115910676850824,0.15316680879095212,0.0,0.015430837593312319,0.17711465613311184,0.35477251644260566,0.5063589255810488,0.5758185627614409,0.6194904624191127,0.5888218495260125,0.5621013073185779,0.5801251507172793,0.5572179138342639,0.5441918979732607,0.5489439388986801,0.5918346705912976,0.6292369912182538,0.6742248641442226,0.5946431590982639,0.4227520491245924,0.402557797514711,0.5460070413039029,0.6482833472105858,0.6959103421063695,0.6732774753084847,0.6666558672555478,0.6240489884535441,0.5835861231118722,0.5438192936111896,0.49598526685303934,0.46436847564372474,0.5020851262418935,0.5562210955851992,0.6290017120144125,0.670132052761863,0.6686741405703627,0.6410156483077163,0.665566073325353,0.6942828623343988,0.700788736299141,0.6725510734725955,0.6712229553332696,0.6729975704545392,0.71236509050543,0.7526471003334168,0.7214624964667511,0.6027200323872703,0.4298249609424296,0.2689692109772208,0.22283855120563256,0.34481675422055513,0.48563857192867577,0.5734254364122142,HB
0.634350331789566,0.5368755557396294,0.434313020727505,0.4117538056919532,0.5125560695433808,0.6212894671675051,0.7298443524424074,0.8435973305887403,0.9408453022319416,0.9494075456549473,0.9049531003917157,0.8876147253597662,0.8517026875806315,0.8614003705985436,0.8745487444047861,0.868203885764526,0.881514149003142,0.9322884823087061,0.9508386668362396,0.9531392984270068,0.9496700041679556,0.9461282892654328,0.8950475110226033,0.8014707995183405,0.6985228621532547,0.5905395895575325,0.48346561691443024,0.3789206104820384,0.3722933011581291,0.47743848970954694,0.5830828768493752,0.6956624476863289,0.8046109696867063,0.9122075764806827,0.9863199350432885,0.9489235134513181,0.9170397527893703,0.8997976803122323,0.856720388430853,0.8561609160235681,0.8692591030975798,0.8663692183947185,0.898733919208111,0.9529588953427521,0.9810683413543844,0.9900847822498329,1.0,0.9897543423031183,0.929910855660562,0.8341002350257654,0.7318893932038026,0.6263812708967176,0.5186997516052547,0.41981509542608064,0.426474664286977,0.532493418460779,0.6382818926627292,0.7504748966422652,0.8559802472717717,0.9600850041478837,0.9975236335198372,0.938257963902188,0.871729779441976,0.7968841827313851,0.7193796802834149,0.6401694849963382,0.5627087431568549,0.5504120776683779,0.5979060389869326,0.624806764291586,0.6421977814283932,0.6944262051028804,0.7440538216159163,0.7515787591244651,0.7617232840758779,0.7704702636926832,0.7727825303183398,0.7184865135679888,0.6225826912165524,0.5186167887439215,0.41823154011804786,0.39817942170774656,0.4959447475912506,0.6060166736075538,0.7118489834469259,0.8096170688197226,0.8330902208325384,0.8100502231905047,0.8042676007580738,0.780236671788495,0.7912345878491052,0.8141265579713077,0.8044157445474811,0.826158482108259,0.8752481182402665,0.8855325876456819,0.8795888173424782,0.8831071365190684,0.8558314369973563,0.784404560546216,0.684149294522193,0.5780222825231054,0.47252762043471974,0.37323019258814805,0.39334887452270406,0.49579502636828865,0.606462731412915,0.7167129346422929,0.8216704793646086,0.9032261147308613,0.8803451757465246,0.8408693602093815,0.8246512450149845,0.790541430728275,0.7779153264392669,0.8091883954391199,0.805314181052053,0.8143277564172764,0.8528788118430004,0.8714927618569988,0.8488617009728054,0.8101125928824895,0.8054864169751643,0.7888963709584109,0.7462359602388875,0.7373545607043694,0.7445866171042976,0.7182645150012985,0.7372082206081649,0.7756417874823929,0.7952523296655896,0.7955005542318823,0.703921276637234,0.6116563305084894,0.5125769320501485,0.4185119884552029,0.3152057099156964,0.20372830016847354,0.09828614233681576,0.0006414589550862715,0.0,0.09419445474476773,0.20449287723339848,0.3127460849302881,0.42178232797979653,0.5357770074743218,0.6421277895683317,0.7439889005751561,0.8049118551876409,0.8171501691452483,0.8199532442394801,0.8307966818192472,0.7958469477948404,0.7525322323265318,0.75638608382308,0.7490671453267075,0.7238345516071891,0.7415988887463887,0.754753565628693,0.7431416590439968,0.6502211284938997,0.5438430264118645,0.43286541918399335,0.32090465938358514,0.21496190846473961,0.10289321812830377,0.010912235571453488,0.017620446239348997,0.11349841460096788,0.22008902157547916,0.3290879468311527,0.43524972449691157,0.5407866101941288,0.647183906697175,0.7150133029697221,0.7063875673724738,0.6973178878272974,0.6874803380574204,0.6698602260055639,0.611350687879539,0.5776986299492815,0.5575508475554372,0.5097187098184721,0.48292109219580315,0.5315181184340987,0.6083729240901972,0.6874928219642167,0.7676800010532436,0.8381625671116577,0.894944239292006,0.8595546450630223,0.7486955430804327,0.6342300555771396,0.5260487264684623,0.41689502724174465,0.30444412155795963,0.19967676149067315,0.11996476805237855,0.15914681959742571,0.26125944021593805,0.3693449927311301,0.477506605086059,0.5845185130692165,0.6928858374054498,0.7980905655213681,0.8978657370296519,0.9386377057005908,0.9324472758865952,0.9229039915085946,0.9137578727499287,0.8737852401811539,0.8268142512024821,0.8132321933125057,0.8178723962816656,0.7902560392128151,0.8071313032777114,0.8449474929450238,0.8619477550711032,0.8789829864145808,0.8308333548924489,0.7253925907565586,0.6164188263001704,0.5038635944931251,0.39820021377982795,0.2848591477547351,0.17331585707416663,0.11840228419525567,0.18889949415527196,0.2934293489363293,0.4040609223253693,0.5022695066501843,0.5948661831916,0.6997542023130094,0.8042085483147359,0.8851763029522419,0.8976283592276113,0.8854330351873254,0.8871055572849005,0.8728905535662856,0.8258870193374324,0.8173451874193178,0.8194499032714839,0.8048148101735126,0.7939530774510417,0.828531889582572,0.8499584417683517,0.8399471399477583,0.7517323874438293,0.6432516647949955,0.534412977390887,0.42607114721960526,0.31386792997119506,0.20816968728963103,0.10489194765793974,0.09175056341792365,HB
0.6329961156495196,0.7774775661075859,0.8821488310850585,0.7991069146399647,0.6275517587700303,0.46460740864927974,0.3790138745660645,0.45047045139288944,0.43825266440323585,0.38600599482466613,0.36341354282809757,0.3493383625050983,0.3568783011934116,0.32286572855517726,0.26000285700379244,0.23846368559518272,0.19994128767589103,0.2626501749016681,0.3506634218227065,0.39460068950543903,0.39902915185818166,0.4643858736222155,0.5143325168293726,0.6490621298279633,0.8282176167649764,0.9215420272002337,0.8311865227446846,0.6666019479090206,0.49990688398165695,0.38348846335073006,0.4039019684919509,0.47360884459720154,0.4437081507263416,0.3639684350628807,0.34633827128872596,0.38037084821774414,0.4025197433273826,0.3485994107860666,0.27697508832307616,0.2068261776419913,0.20509277421093852,0.2719173005462032,0.3537604611802019,0.36599197429622876,0.3919557188616718,0.45662432792719354,0.5835509517116879,0.7426209197814932,0.8814159932797363,0.8579307385028052,0.6944210628546488,0.5296767601191537,0.3803428923159098,0.3981739441050598,0.43309317141157067,0.4228525208141294,0.34940226696835364,0.37820672349414775,0.37218282606660047,0.32714820865512007,0.28101137040045643,0.20057463733337322,0.12849149553288175,0.1689145290087195,0.2517617968474024,0.29400678720150974,0.3440960269903366,0.4315974503589217,0.471811441975035,0.5902393428558019,0.7408973035062143,0.8954405340232547,1.0,0.9083657907345968,0.737454840099371,0.5702084979744679,0.41420809866716635,0.43234743654356844,0.48277869667488993,0.45294310146664696,0.3997594403706932,0.4237236259767636,0.42535569208767754,0.37932021501721547,0.362274178778514,0.29736962032638736,0.20131254391742015,0.152913308247145,0.19767091377813184,0.27382408153424986,0.2947398525327012,0.29407215288206157,0.3548136263281432,0.4548933351869815,0.5963130965808334,0.7646667398712328,0.9070669914198826,0.8716132495890632,0.7217875445973636,0.5431984333354096,0.4044435649221345,0.36244910262611096,0.4194287085517825,0.4213672892497433,0.36973964761292244,0.37080993503566173,0.34584792647997453,0.32936826896847826,0.2821455841300686,0.2311061208302121,0.16599722240020576,0.1824584094915389,0.2508581037124795,0.27758755035264837,0.33531701551429194,0.33619913168775106,0.418739532695632,0.5757417423526245,0.7334849246205435,0.7737197752164819,0.6341107913505013,0.45031992831259693,0.322247256854185,0.3777430209719901,0.44752226811552553,0.405665961174547,0.391515454217803,0.3818453744558754,0.4337691784656563,0.4370052109805176,0.42885754529839026,0.3265070837713342,0.25431877409277437,0.23849567469572985,0.3034556356654239,0.3352545011054948,0.29066656628125465,0.22385204773276346,0.17971955478080126,0.07807453923022489,0.07301237919307635,0.15755591470282404,0.22915336724990887,0.26078311595422576,0.24591388869116937,0.24867318935364224,0.2637415404935659,0.26432736556885317,0.17710944301058706,0.08498018344935954,0.13322433497036545,0.28235462950479295,0.36751409380800837,0.258488227606402,0.1866349834179184,0.1913685993999641,0.1693337847821086,0.12467564363580319,0.10789598935991673,0.09587732186319986,0.004887091852959102,0.0,0.07981251634878195,0.15226590081202307,0.1991806979807924,0.20734204524098132,0.24456982447478204,0.2428086472997082,0.24793638964228926,0.216093151208832,0.20825540486375083,0.2452590688781724,0.39005389100077714,0.4816715290049274,0.36681789868627757,0.2525540624998621,0.1964324677440521,0.18202827223733564,0.14829038340572698,0.10551260365522097,0.04212349545914584,0.020159475553441553,0.08902631685234663,0.18035413681137058,0.23966949833187723,0.27976153787454905,0.24332770990448438,0.24151130783543362,0.3303035681866664,0.35147374367713535,0.3095403430692629,0.21868254101951923,0.2722520920365499,0.44578915169933886,0.5681218259021508,0.48607653961364505,0.37281609413530603,0.2998579462890616,0.23393661826748602,0.1978333530994245,0.15139659026649266,0.06210110811974889,0.007899927529602557,0.058160456720014686,0.14879100925752287,0.2064885346302141,0.2379931281689336,0.2553452905455744,0.21381344159346938,0.2615006608799737,0.3217816366458113,0.28923985180033807,0.18978454664627176,0.1909765621594559,0.32875223036613566,0.4602601096850565,0.39358526014733997,0.30922505952153845,0.276791317463867,0.23919271459735825,0.1984002457793146,0.13608756786900056,0.08979955395443717,0.08363542275977487,0.16172619715599978,0.22687767014625582,0.25320396481885954,0.2412439346210027,0.243744015986592,0.2988262567094493,0.27716638001357996,0.23443268450912846,0.19815964920618434,0.29679913877465314,0.43148277398245316,0.3939570303464661,0.3275014260701985,0.28362074872714516,0.2522959844399848,0.1813091407665679,0.10819433670604983,0.07399074692206398,0.10505859775037418,0.17580549892581665,0.22602387542222768,0.24485994280444423,0.24382631053781356,0.24524690125026094,0.2831012541810347,0.3273671707643526,0.25062254941730977,0.2300938038615632,0.3645082782111704,0.38284550666657413,0.254072059229129,HB
0.7313091998073038,0.7548492143394057,0.7810415002092743,0.8061184369548753,0.8073355833132123,0.8157562217095695,0.809439780847345,0.7668111000254931,0.7218932471629185,0.7395790033271374,0.7873393556553256,0.8305219771746735,0.8543058340138667,0.8870362526171311,0.9064635545868887,0.9431628418393079,0.9558640025869913,0.8719717460102785,0.755097136198075,0.6374704519310466,0.5433203331088767,0.5804589280943915,0.6898142702698553,0.788765495058368,0.8554655712373813,0.8739755425603286,0.8678956385381753,0.8117070233890569,0.8147558422256351,0.8495803019354005,0.8599512313932645,0.8773762407252692,0.8729570275286627,0.8538829604625915,0.8043552064044583,0.7713038059918651,0.807634553274277,0.8491328603699724,0.8876942152224727,0.913193459960558,0.915561439682054,0.9301875692061576,0.9514108485234292,0.9006739731153266,0.7973736813473267,0.6864143819656239,0.5761261216043352,0.5640893134322342,0.6702576870972832,0.7777986390179399,0.8650439945136681,0.869668128624818,0.8451333365187959,0.7971170652852495,0.766919331519804,0.8030667073805582,0.8154466574637447,0.8256798592014267,0.8207043196156307,0.8223672280542618,0.7998467239022877,0.7515317489638276,0.716308867818255,0.7404873438913315,0.7918929959443768,0.8445183245983576,0.8841518904156953,0.9084275732276981,0.9083632035748648,0.9453037764044534,0.9127532710634718,0.8088350243355931,0.6970575631636586,0.5821021944528628,0.46818946229502134,0.4700597108948752,0.5783158767701131,0.6887772353829271,0.7934232376413275,0.8594789464822068,0.8568948965542409,0.852627745138528,0.8038132124950275,0.7971598266571689,0.8518866888587968,0.8781157842417204,0.8857384836784357,0.898988235734411,0.8787905156736666,0.8340631532311014,0.7803529183178537,0.768906496969511,0.8231779012184923,0.8790976907564965,0.913318781042215,0.9425763424177867,0.948609319432318,0.9842516450805425,1.0000000000000002,0.9230448438495669,0.807333903096737,0.7261467313423589,0.7804292830500794,0.8757750189778115,0.9213149356673089,0.9351720689722323,0.9139063460415515,0.8741907911239271,0.892413105347271,0.9239954973405242,0.9454101668228689,0.9570215301138412,0.9681828036851579,0.9353169179249397,0.8915754251685628,0.8737838003360723,0.8536105365354401,0.8198415051557457,0.799202352194402,0.7919475874339772,0.8330441807349038,0.8324685411940747,0.7848217428761532,0.6862878826100391,0.5760264366692696,0.463897731256919,0.34922654691595123,0.2368403938442183,0.13352965778637627,0.13385334244957559,0.241233958287558,0.35112800350081685,0.47049662858282226,0.5916213746074759,0.7127494468036499,0.8321499243405028,0.896505943665648,0.8684783778215668,0.8772030943242555,0.856745493855134,0.8214614413504864,0.764591046425189,0.700016206991368,0.6715627788104255,0.711275591549952,0.7666271748374596,0.8076257503410453,0.8159309801872034,0.801031648380351,0.7918460838944574,0.7512942963935101,0.7161607765709304,0.7463798273473905,0.7777878717424411,0.7780978186314906,0.7324143166302399,0.6183945602828589,0.5074439476101282,0.3906409020891053,0.27543070249453727,0.1635283232954523,0.06161296291212892,0.05516869794208401,0.156762561784761,0.2725835245058279,0.3841508916872327,0.5047241900042632,0.6208080746679856,0.7323285813670191,0.8390825114201819,0.84820570153694,0.8198655244414284,0.8061660371809489,0.7915288981030206,0.7639561493315463,0.6964631866013373,0.6502633134559084,0.6515048854981444,0.6865617170341942,0.7316504057087927,0.7353773991198491,0.7071981522814028,0.7487251411099558,0.730936090038288,0.7170194628191442,0.6748133631468958,0.682919758737061,0.7475293403614478,0.7681872424130527,0.7171422835581283,0.6126739007291742,0.4925582656062153,0.3715315540624571,0.2567032173477346,0.14412201154471926,0.03288978067274062,0.0,0.08726007637229993,0.20547751977020545,0.3167170893533473,0.43322234997636433,0.5537076063647397,0.6607600952323411,0.7547492970102965,0.8539679265715254,0.8585169443077112,0.8369514849810191,0.824734406412307,0.8071618159127303,0.7645267760178978,0.712177998519745,0.6764041945722126,0.7065883349139981,0.7583070898315933,0.7870269942051891,0.7887443087355936,0.7700201658533035,0.7696217117518571,0.7794864929836043,0.7622911996556663,0.7295609120661146,0.7612747569726761,0.77814998338544,0.7939664444919468,0.7374673322052392,0.6246025937518904,0.5044846830054859,0.3940085920708325,0.27734253524600994,0.1683945565454832,0.09917769277317268,0.16297619914318862,0.27177147877316243,0.3913439673354311,0.5035432098351602,0.6189288440727878,0.7395870444805481,0.8449783129737816,0.8489194787202161,0.8189156208350645,0.8047977583503594,0.7694208831698492,0.7457118723481002,0.6908551451972109,0.6463146850669841,0.6349048326959623,0.6675532917569964,0.7142041412174158,0.7260228286492969,0.6954907723641786,0.7108823966717297,0.7038466055143855,0.6911268989428521,0.666538225033874,0.6498345899856235,HB
0.8359575641302248,0.8291911470610107,0.8133112518889472,0.8411748684992295,0.8840867629012896,0.9052962921092771,0.9062808613235678,0.9084581239046874,0.8702899098675565,0.7852576592099259,0.6680811025668403,0.5414999121265138,0.47327751143008534,0.5626538107458723,0.6630660150163927,0.778576300798957,0.8609159288863548,0.8573877486378194,0.7911925561740989,0.7757916935589173,0.8482345868802752,0.8986761977743787,0.9010043286606129,0.8966799268028303,0.8843828145820303,0.8715702803030161,0.8661517879066936,0.9109227337796608,0.933476575363891,0.9393546459567799,0.9389782836362222,0.908477706864693,0.8348540150865125,0.7193445804820886,0.5901507727695949,0.4665992166468911,0.3483198414911919,0.37943419329922845,0.5017023305488872,0.6198260493305052,0.7178309821872508,0.8318293244088601,0.8963240319240766,0.8701311762447363,0.7908186250451799,0.7532644819135705,0.8227771832322568,0.8783812164724587,0.9025299678619341,0.8764945954027574,0.854619543929676,0.8330870918074349,0.8158267586922867,0.847322699098739,0.8853975367170186,0.9081520039765945,0.926389120691256,0.9199101344507596,0.8749529600737631,0.7763199000094687,0.6566842123992589,0.5300157750327039,0.45871368263422063,0.5506528833025093,0.6397305643607241,0.7484365869365548,0.8344748164919262,0.8267370603722632,0.7581240482598766,0.6855873811056274,0.7193486734035135,0.7911259441599596,0.8310152477149617,0.8280818426838485,0.8181093317941608,0.8039633026444029,0.7955889964881258,0.821007834142502,0.8686152900210655,0.904695561191303,0.9179143411956998,0.9113337754466495,0.8762527711315014,0.773593966569933,0.6437996841628415,0.5216384635963989,0.4844144731239264,0.5912561426924032,0.6792002768359882,0.7851846479030953,0.863162505342093,0.8696361207366019,0.8018074784177807,0.7735153928576413,0.8344209837615644,0.8932865704242068,0.9065181930541018,0.9043369995428341,0.8928529151342866,0.8744500615661721,0.8531773811383658,0.8959683455823866,0.9325579477745287,0.9680475921923626,0.9980503640530638,1.0,0.9553491334708122,0.8553943281474106,0.7318099042650923,0.6022984249509724,0.4796982656613453,0.41022287998757134,0.5047881234779159,0.6205035981210383,0.7141999211954246,0.82976748516684,0.9179353641976142,0.9022134582882981,0.8122984642937228,0.6785789551715466,0.5414150230352162,0.40681656171690816,0.3245322518844125,0.2595503155320187,0.14726684538934043,0.11053980178480849,0.2077980155618655,0.34276497602247646,0.4745142748538078,0.5991510985911717,0.7240817277997649,0.8464116344344439,0.9238252589526432,0.920552595996861,0.8959297315924761,0.8635392933425594,0.8215847845147488,0.7902258630999217,0.7982626698385484,0.8252474942876673,0.8418670000573445,0.8363233771371239,0.7847430078800053,0.7127706680532491,0.6858929397747398,0.7408815318398632,0.7942645483548376,0.7209228677054074,0.6076217506512065,0.5224470887517394,0.4070817169884764,0.2832968385632326,0.18661557590472544,0.2183949568889756,0.34406557742991417,0.467008816238101,0.5901276413322196,0.7161070136700358,0.8216410948688395,0.8549594209317188,0.8531898978449046,0.8477277384982718,0.8088517499822854,0.7604921402894131,0.7329953668990408,0.7308643633857512,0.7500787370425934,0.7576030627957762,0.7661787906083308,0.7201699772049155,0.6472335384205907,0.6041955562699659,0.6566105020803681,0.741225528606972,0.7530971857769191,0.6490856978982107,0.5452219041007957,0.4488469516638469,0.3272317865879151,0.19737529546490995,0.07455248075240473,0.0,0.07387381063058962,0.19452147683387677,0.3151417450222609,0.44707116311940975,0.5773277758902968,0.7009011552791367,0.8108387907873227,0.8616365958090006,0.8636089763573058,0.8392702497949927,0.7956058129445092,0.7515506735634037,0.7593988438547736,0.7864347522952397,0.807877348522029,0.8299091422969562,0.8258517350454095,0.7723475960373141,0.6966067976306745,0.6833555706101784,0.7505160488057068,0.8211840903147412,0.7671647971098046,0.6504346371220815,0.553706355313933,0.447634826624165,0.3225422089353627,0.194897738868141,0.07406791715651062,0.01944344750928284,0.11087261017146366,0.23462718381076453,0.3633217979314889,0.49269482518878416,0.6177833910586914,0.7392044698549398,0.8383831670946189,0.8785716679713849,0.8738336214462668,0.8570659175110902,0.8290825710239904,0.8058559825420661,0.8057538716753125,0.8242830685089539,0.8335382668575857,0.8485767910111797,0.8254614906803215,0.7550790822914553,0.6880408465253409,0.7060398736605737,0.774172177074258,0.8012577900954607,0.7086706106911009,0.6027551609421304,0.5303183736645485,0.418656099114429,0.2935183515772417,0.16107084691966422,0.09068577379712295,0.15837517636429777,0.2769182477597498,0.40115090723353175,0.5260265023582162,0.6548647388706312,0.7713357462940742,0.8359707857308214,0.8507629314119729,0.8451297091362195,0.8139699205463038,0.7735130628479339,0.750035669058176,0.7724068489176328,0.7897059786386404,HB
0.9036002171788531,0.935603485324564,0.963998660633294,0.9823223549181357,0.9931002770779167,0.9544403614250991,0.8682059393851134,0.7768760265646706,0.6814454911313412,0.5836006819924042,0.49099548009676997,0.4209452652456658,0.4812530806283717,0.5799744084306386,0.6721872453179851,0.7715549658997067,0.8644690990216133,0.9570900920014163,0.9874679916689217,0.9610648037216838,0.9245559016731693,0.9174138880784706,0.9428162298347109,0.9558613669613978,0.9539283233944622,0.9560939799918464,0.9573336475385954,0.9429405280781857,0.9141302628846386,0.9044549667306581,0.9255264750134229,0.9572542475011958,0.9778255485363267,1.0,0.9815049762200188,0.8996716092705648,0.8088205541203644,0.7131198651449255,0.619853528258075,0.5226505870877014,0.5075752278217913,0.5939927207895639,0.6890153900210629,0.7860600318372621,0.8780195144230698,0.9620879129776831,0.986604398504086,0.9653978334192495,0.9276883690157343,0.9273027354352337,0.9511965007508474,0.9598310393332081,0.9534340691957879,0.9536491114290571,0.944460486102745,0.9186934015580213,0.8895537624412997,0.8931528308082175,0.9275780998694358,0.9587056663728197,0.9741857416212758,0.9778637334560707,0.9302819099276469,0.844449837393479,0.7526856678618499,0.6547381257357645,0.5665034136590721,0.5792435793251243,0.6758331525649437,0.7751260751360767,0.8667837727412673,0.9512711440080759,0.974926751180794,0.9497420377195711,0.9186801418109227,0.916103476510655,0.9353694554041776,0.9382683425165244,0.9404637906134732,0.9440654634645274,0.9323881262640081,0.906060219901685,0.8916209998415945,0.910041413338869,0.9435506923064154,0.9652762272643991,0.9847276815421275,0.9802956262928086,0.9072683681805063,0.8150813113123225,0.7197940462711714,0.6218268458928877,0.5291514273606335,0.44840296061494156,0.4925511736314696,0.5913845486851581,0.6836022058852176,0.7822144344014061,0.8750361081083067,0.9582665852664829,0.9726190531050918,0.9485725638626277,0.9136726293235267,0.9211738078347138,0.9438067450143479,0.9396478528487315,0.9358392812155274,0.9286621796561465,0.9303323461484321,0.9048432391987977,0.8723533084261077,0.8709400143621486,0.8590887132774754,0.8313018430782342,0.8290047446902469,0.8578391649850385,0.8897650663781469,0.8931830802887624,0.8963498947831257,0.9001309371106867,0.8984739424676254,0.8758669518387592,0.8743630594504002,0.9120260008435763,0.9173569769699381,0.839886377267185,0.7479788243845731,0.6496301725539233,0.5574682319239361,0.4579905771674402,0.36226054610998926,0.2675102946909844,0.16930309853935022,0.0969076289424442,0.12594345578994282,0.2207718323842418,0.31419219590402947,0.41139700954932223,0.5107846288471272,0.6029669348939919,0.7027753447138549,0.8038186745146578,0.8971716467288124,0.9447565943046548,0.9327405036540442,0.9101666736751017,0.8771580251781179,0.851075558799278,0.8567234271406454,0.8827061779579213,0.9054789161040424,0.9030916763999235,0.9055600472329663,0.9033872073829254,0.8917264197600772,0.870206260750777,0.8723208093402959,0.9105950599455941,0.914451448304272,0.8374814544538802,0.7444246869843132,0.6472209596511989,0.5467136361610849,0.4539403155037709,0.3558426738603131,0.25710861808472507,0.1647287525260306,0.06767262657188877,0.0,0.04165681262854082,0.1394825257559491,0.2360386587507488,0.33003897052824493,0.43082845640428036,0.5263679306358926,0.6155596139312334,0.6976545935706049,0.7879174999140559,0.8793593799151493,0.9372926035618789,0.9305614377995979,0.9066535640540776,0.8729531883938604,0.846134803407963,0.8545491758112167,0.8832934158960037,0.9087712230399476,0.9136901964386257,0.9207578427853633,0.9238061648795521,0.9113710884259647,0.8868428829888098,0.8833480448125657,0.9226991875276025,0.932575762574698,0.8649182691125141,0.772026481868038,0.6802487544247251,0.5987372018404753,0.5210153388018592,0.43365104476465133,0.3330569948352622,0.23633778103838288,0.14393868687636213,0.08152904639701863,0.12312586900375866,0.19694297099048907,0.27760227060266995,0.36541425002133243,0.46282296108825105,0.564004569239285,0.6652219921258598,0.7654544461981831,0.8571165742067737,0.9378790785957287,0.9526776631170604,0.9341663951548269,0.9068805042798478,0.8742252823434924,0.8611607382360529,0.8779297842470486,0.9096320919648058,0.9208586164077701,0.9211240990342895,0.9195985794190737,0.9047884596455917,0.8821156547545423,0.8819872455227811,0.9175532840434157,0.9303175899240901,0.8625358031383359,0.7707897150788772,0.6727067479633422,0.5775651656978067,0.4822393334124391,0.38115764945308017,0.2799388188571299,0.17872705084832852,0.07964594207297115,0.004573294681959661,0.022119143813329467,0.11403402746777513,0.20818829063041733,0.30450531222076216,0.40486671138802643,0.4974613843557434,0.5933823822208908,0.6756794990139896,0.7636170927076873,0.8581167820850621,0.9343382955884887,0.9429325365343062,0.9206822458452137,0.8934278954531361,0.8607869720514327,HB
0.9251123054910311,0.958791600382829,0.9422172637993382,0.8361523303760241,0.7143741076782844,0.583295432108629,0.5353016002477875,0.6492466881253569,0.7656215625414493,0.8470214315433497,0.8741465281210727,0.8517159282369877,0.7851282449782988,0.7755784018258423,0.8287357585071593,0.8645277307701993,0.8521452435256758,0.8298511683454919,0.8164940121431057,0.8369323320495492,0.8481016779911719,0.8661241479494617,0.9050668780941988,0.9398464688996828,0.9858586224253689,0.9883698530238072,0.8918743504551445,0.7662882661985808,0.655455873747842,0.6975203043495868,0.8134727797640853,0.8768133758162211,0.8826692132594638,0.8506245617358879,0.8022359167859276,0.842349019635753,0.8833497656663094,0.9048141680099677,0.8964903409727607,0.8760443598335192,0.852175901533923,0.8265007795068438,0.8374644791738448,0.8693047630782331,0.9022291579817487,0.9453729256370629,0.9999999999999996,0.9517912231520027,0.8324571602820918,0.7144476159112538,0.6236945129949953,0.653151342248,0.7703340060901458,0.8598133034277802,0.8846252071986336,0.8533071171443951,0.7815017007620022,0.7820649016087624,0.8449376957096941,0.8870774774297994,0.9190148878136886,0.9186589337304136,0.9009132388358099,0.8688824289439268,0.8444395167656835,0.8543519685766232,0.892420369160472,0.9281016943895612,0.9713545734134001,0.9911390375408695,0.8977864706073642,0.7781739146634421,0.6506222415365897,0.5470763236824503,0.6111463166858395,0.7295858949820846,0.8353561613374465,0.8849102723535278,0.8718829052605654,0.8087472919224616,0.7705088640636908,0.825452504815813,0.8782603419602166,0.8947098874513135,0.9132977738310464,0.9117243518519458,0.8789202099597491,0.8517871353210329,0.8230510935254927,0.836990250939952,0.8646065432797996,0.9076642483157471,0.9602583158313305,0.9081087089446709,0.7905831298133412,0.6622274928025753,0.5581845126685652,0.6235678226370482,0.7403593788008043,0.8310452704197941,0.8672623408208202,0.8521085453693802,0.7777572837195685,0.7933258030031438,0.8510489376750838,0.8895983349890839,0.9051958093402206,0.9017916521849383,0.8686035622934272,0.8359087622433519,0.811412366061822,0.7894510301187276,0.807001519372363,0.8452408191085485,0.8519473529468695,0.8362394162280551,0.790132658674283,0.7235916115042951,0.6943884944982011,0.758589906623619,0.8114525398896206,0.7998835761402234,0.7081570594721636,0.5907744832341808,0.4758433745664221,0.3733729613886201,0.24103049427661327,0.11785985885069383,0.018647722007662182,0.06479120898063462,0.18417315532878886,0.3196788629530509,0.4566709986037041,0.5908483711584278,0.6960894873009917,0.8084697515460948,0.8514437078468653,0.8181521097698683,0.7878445075111609,0.7653749911961722,0.775888193857345,0.8116925496426086,0.8241562092299901,0.8547956413795119,0.8477142668205988,0.8390507084025547,0.7954686038429144,0.7229186356616362,0.6752457794438045,0.7234464850324387,0.8040074227812135,0.8144778151269119,0.7288248058639315,0.6045683899073122,0.48050307144696536,0.34866746875039434,0.22044683830276757,0.09370298207335859,0.0,0.04776742980360149,0.17412894224425823,0.3068962318167574,0.43080309977136544,0.5665545389463453,0.6968997253146219,0.8197358717860186,0.8846577314525312,0.8585736086335385,0.8236920617306644,0.7886242122926337,0.787600136729008,0.8135134446904551,0.8455007048427112,0.8691130851472648,0.8611744986810863,0.8278767383353522,0.7809994010659902,0.7159445562792115,0.693185262351665,0.759565290556389,0.8173267018852441,0.7894850083333984,0.6864762452887541,0.5574939303672166,0.42105039899814445,0.2949385384219525,0.16575425542296607,0.05493408968116631,0.06373460557886368,0.17657669851897406,0.3108408005511514,0.43429035935412275,0.567888115442674,0.6959644307510247,0.8213523316605063,0.8896941690981337,0.8607615910479502,0.8283018507816,0.7941236013080024,0.7549752783797059,0.764193842223094,0.7949998060200931,0.8233632049082775,0.8454222460712502,0.8474082784332402,0.8245831922466258,0.7777851751346909,0.7240050091572927,0.7613682589110655,0.8166739812899659,0.7922734480825326,0.693376434691479,0.5729963681279435,0.44806177381464307,0.31882661902306886,0.1822899365146422,0.07694545975239153,0.11519614688545854,0.23309514423875077,0.3688473461691304,0.4965613418179702,0.6248532256442028,0.7595552511963075,0.8708399401511735,0.8915346508075706,0.8631272049528174,0.8243279232113663,0.7961380433423981,0.7809412053604592,0.7648639086887412,0.7695743898056908,0.7856228079634855,0.7981530471647145,0.784588194928475,0.7296108854839676,0.6765482211282601,0.7127315829877365,0.7827634939084396,0.8077878092133117,0.7459727521827508,0.6290433008622025,0.5049386283106903,0.3916959116308347,0.2827013944741781,0.16067643070969995,0.035184979190752586,0.018350829494727883,0.1261142120680141,0.26015741032327266,0.3917961557138834,0.5165325690961589,0.6506247632430378,0.7726870964614485,0.8641870211394642,0.8588046327768297,HB
0.5196371769769064,0.5047337362807327,0.5773824622875412,0.6517685222104612,0.7208974473582588,0.7528273029012582,0.7808550435299346,0.8426789712556513,0.928230781333359,0.9419457969672873,0.843818383725929,0.72708865807467,0.6057071190472532,0.4892092435215769,0.37433795278577,0.3931932646746401,0.5060364063996752,0.6247170292053501,0.7264463273312329,0.7502833472540051,0.7466720878082631,0.7009136179200199,0.6896284652251796,0.7308902838965485,0.7579946392148722,0.7519023116091841,0.7483473586178824,0.7363228089035063,0.7324259959591082,0.7144504533431468,0.6508729126493069,0.568922342656625,0.5529853727633736,0.6147365584600308,0.6878078943678441,0.7403560823494031,0.7802468848977004,0.8029136790886091,0.85855272784109,0.937376889436063,0.9166083324144041,0.8149083271340034,0.6990145430279187,0.5744905325583107,0.4830113320385223,0.5473199404043099,0.6618517892176059,0.761707018431343,0.7844387041068241,0.7536877322559943,0.7140647011584864,0.7155145910809493,0.7467010396047762,0.7541751082419204,0.7615270704099304,0.7699283484839841,0.756833814969267,0.744009579533214,0.6892278826167906,0.6083876262305363,0.5509551648701132,0.5776080952185789,0.6530515434877024,0.7191070433621478,0.7676255927230224,0.7936907039164369,0.8435337363042272,0.9325022885308769,0.9655803664817659,0.8833059866238271,0.7718971798235388,0.6525993901977807,0.587208016130369,0.666806622856221,0.7559806468039607,0.7585605552082657,0.7448441755416098,0.7183958315121379,0.7541159600027036,0.7737681048208329,0.7620936962761551,0.7554956056113249,0.7410792192363806,0.7611274555669651,0.7625272125220661,0.7310524036155783,0.6657317263770057,0.6058099791182898,0.6330520858906494,0.7090270560233844,0.7727456871170681,0.8100610171204745,0.8403840536836071,0.8935917856609228,0.9743132319209025,1.0,0.9129401799874803,0.7954948154472197,0.67463797825123,0.5877254958767981,0.6572190828704634,0.7602869485071833,0.8020756771044288,0.771332116290985,0.7297199682815627,0.722967499947933,0.7722634131837718,0.7869418922979636,0.7665803591248186,0.7860334660942221,0.7927790711772267,0.770274093475666,0.7227396317697807,0.6705721496805492,0.5959963839065323,0.5603073757823163,0.5128682177035562,0.4332957363579357,0.31722839211273834,0.2678518059450239,0.32389130028939794,0.4433937369825842,0.5215804970304196,0.5982583352663231,0.6559813365234182,0.691906339171402,0.719606715574856,0.6991777593209121,0.6899066192728971,0.7190712962450592,0.6984742700240916,0.6430034341789237,0.6596480597975107,0.7037023571418195,0.6916179996320948,0.5986799008093082,0.48454074181426554,0.36333672615022783,0.24652214666363692,0.16013678998771974,0.21173139987528744,0.32484971188407696,0.44737071643174975,0.5645728171577415,0.6875426816048695,0.8044971663432237,0.8873907939178998,0.8378434927498537,0.7804351279205028,0.7516590352811074,0.7177882157692954,0.6891038715824034,0.6161253117379073,0.5405710256249456,0.5349328666591049,0.5706543375413236,0.6368982632782965,0.6880376684434144,0.6917656753406218,0.6798196197514486,0.6696225283355681,0.6864018912287122,0.7152402584918365,0.687834730259592,0.6524480340720706,0.655698340006492,0.6842674198272847,0.6508681797194549,0.535513784154769,0.41915398896362355,0.2997441065390354,0.18738829057526685,0.1251541809586083,0.19845515789173085,0.31390452540355307,0.4381884728210448,0.5588468301707121,0.6789387815780143,0.7957872446915957,0.8274069218164346,0.7622025495389781,0.7106557468647954,0.7043314658917619,0.6617835054308769,0.6053903493110813,0.5287512310352858,0.4694618901172878,0.489810380927588,0.5414987257834132,0.6227441944983938,0.6615474506051671,0.6850969941054657,0.7019164301965106,0.6914631351143643,0.6905159877623666,0.6804811940943032,0.6715197733384115,0.6502952725702138,0.6704316363504885,0.6982798992026322,0.6324003542523253,0.5181362500181397,0.40190559919482594,0.28502333961877646,0.17040242634396163,0.09857159127491344,0.16347714386596435,0.28158859789910196,0.4019938027702663,0.5222909139901026,0.6454075614861261,0.7619705609770997,0.8251757840622171,0.7664723037054149,0.7322692225228224,0.7089924726361483,0.6780331932325199,0.6200358415061453,0.5466826407832661,0.48245173432633015,0.49307531325100795,0.5717741003063836,0.6445081797855643,0.6730117014352031,0.6794486978233834,0.6879186404576458,0.6791136950546361,0.6806408118227201,0.6496062947530938,0.606262811516578,0.6380329204796777,0.6652772850682411,0.671987619817096,0.591812640777742,0.4658860897024768,0.3488835745842582,0.22860744177960157,0.11239033829273737,0.006181970478887244,0.0,0.11032289989618538,0.22700476792465718,0.3520606958833028,0.4765295380930761,0.593354597903669,0.7112922890621394,0.7905574244895153,0.74371767885988,0.7016178194987392,0.6735901240709712,0.63531715721368,0.5770842531098399,0.4964386326859427,0.4244707961076184,0.43468395432914875,HB
0.9098581933589127,0.8334307663720755,0.7395289170914898,0.644849093897192,0.5557897645438383,0.5273980668967679,0.5266630024596193,0.5188571650476681,0.49796747865717395,0.4922928008076175,0.4859530039466824,0.5007579990973339,0.5176171417273543,0.519960379400791,0.5163957266627208,0.49210025193181783,0.47758156623897374,0.47607014941419123,0.4817094872044927,0.4996857501624463,0.5072622982553328,0.5144500250465986,0.5483939025240936,0.6113024781021426,0.6782513405660926,0.7544856738804842,0.8478287110928338,0.9051779435917346,0.8644558722896805,0.7711233582838704,0.677971224699446,0.6012170192427435,0.574796671736042,0.5826653394131118,0.6003312474312428,0.5955575000721183,0.5752593729159745,0.5642276657264165,0.5353026724511758,0.5527409418369666,0.5497926938733224,0.5681728417814753,0.5362929738246929,0.5267710327767152,0.5262654373167233,0.5193226105330151,0.5287674582982294,0.5564821610576325,0.5709715462486455,0.5929745236471637,0.6414394038842546,0.7094555389550243,0.7678751998198776,0.8512136659145475,0.9440303225052946,1.0,0.9507795591504551,0.8511793161527788,0.7545031153379473,0.6621895188573341,0.5753763140828418,0.5197893654320627,0.5029890724591963,0.5044178330760416,0.48433241236458535,0.4630644017782495,0.45489781786198824,0.43351762374379454,0.45433103403094943,0.44457372079988655,0.446338452335564,0.43166619181348675,0.418780944450011,0.42262191525374115,0.44561051670798646,0.4738548743983171,0.4800166095893621,0.49015495001332354,0.5083358065442267,0.5506893477723644,0.6098300435948927,0.6714663561853884,0.7473537814598297,0.8367251189308869,0.8833761903200936,0.8212809355503579,0.7316224742284483,0.6439278496354106,0.5731409517407,0.5339069639694838,0.5264547726985103,0.5119692376616598,0.48018266566271883,0.49584261710567823,0.49096041233883403,0.5059134338302562,0.5187510305833865,0.532584755945241,0.5319795411927499,0.5202251517234084,0.5088601607045309,0.5227019044479877,0.5322625884956289,0.5455263307770606,0.5531435827899056,0.5813275149147361,0.6328890173956587,0.6820079878513137,0.7571558361679638,0.8531145628937287,0.9215194810853391,0.8903664826524476,0.8060599000196538,0.7087731592255726,0.6284294534214623,0.5741247894383283,0.5419548377373822,0.5212052331014894,0.4785336149257189,0.4428752012393611,0.44196719012224106,0.4214360450717769,0.45308529969535316,0.45417461080865573,0.4547214875464749,0.4551693798152576,0.43109600529912884,0.4240260032583629,0.41483312702786757,0.36821477277956216,0.29540594575240453,0.18781201689388993,0.07818348132974418,0.0035459834815321223,0.0,0.05887803732670971,0.1668664700452389,0.2758834369150258,0.34895528222469485,0.3712023914598399,0.38254614818083077,0.37496716697622556,0.35283607785200477,0.3322663372820607,0.36205308608568343,0.3582845932779244,0.37590127530046624,0.42709807452729276,0.4607000437989939,0.4827054349035911,0.5215987107391928,0.5662987319430917,0.63423923771578,0.7186281148460947,0.723074990933346,0.6353989285904715,0.5842802696896325,0.5322480352150132,0.4846751010861663,0.46723763624460046,0.46876981519951055,0.4662632298586238,0.45990480461907657,0.446375899228745,0.44273740537148276,0.45748410059043687,0.46960621381267,0.4651843252378258,0.4406711673778059,0.40891095705068103,0.413257298087093,0.4077414130491981,0.42805966494373493,0.4467671262962951,0.4504003521246376,0.45876222190093685,0.4994095479491727,0.5751322437927064,0.6488978478895455,0.623922987761024,0.5643101900906213,0.5028900872440163,0.4531261011791816,0.43014552754347424,0.4207940218577848,0.40484494104538493,0.3892744566523132,0.36485040158681636,0.3489983178345084,0.3537136203136013,0.37701792038623605,0.3709234490068605,0.3635982192274314,0.3649809637195087,0.3862279501182506,0.39170855322005815,0.4110292348255027,0.4383678748578057,0.4295594136447254,0.42785528193800104,0.4513918515078399,0.5197902181939291,0.6163902204445377,0.7110747273757423,0.765571114134354,0.7076609968472405,0.6472005719639657,0.5877994396331618,0.5343858044074143,0.5092779264522065,0.4930120371642368,0.46649312451862945,0.4551361649210177,0.45551424458958456,0.43363930309934684,0.4418404725035945,0.46451624595000096,0.47913753768822964,0.47965506991421636,0.4679887021379714,0.4802667328522112,0.5024998194945183,0.528002724364383,0.5210165362959138,0.5047136358662598,0.5011638915527392,0.5235315172831911,0.5972565524587528,0.6797896852106455,0.6969169444462224,0.6296264704031396,0.5656481476777704,0.49900714815138736,0.4540367847999587,0.4391650426607625,0.42838197408567336,0.4286732759786118,0.4207605233933496,0.4065537743065839,0.4092173943142434,0.41605051490976663,0.44553102545575296,0.4532436483881499,0.4482133368733723,0.4234459035504048,0.40714503612716113,0.41486367355348897,0.42052537956161107,0.4479372199323195,0.45122488839650465,0.460558658311776,0.4721444414886147,0.5340094086731941,0.6163661201498458,0.7030315587998515,HB
1.0,0.9018426700353919,0.7627143429570413,0.6271808192485873,0.5701855479704205,0.6720747019536741,0.8013184736598129,0.9024728028102764,0.9351187326452335,0.9241413248948795,0.863053872179302,0.8083694396720809,0.8563867313153661,0.8996981717639496,0.9326135399951587,0.9337759319437504,0.9212458694225703,0.8888258312576411,0.8485801014762409,0.8026098239541337,0.7628137753801392,0.7264729660968889,0.7214825898744968,0.7600935895654688,0.7962422702738099,0.8392918447363851,0.8490292117255658,0.8730672517041524,0.9085920317527494,0.8440687856679432,0.7244345142408672,0.5909393567879029,0.49007452863657575,0.5576747459442042,0.6905521179649492,0.7745293508618181,0.8128268996169412,0.8123936937160083,0.7646730529560477,0.7026198058955853,0.7281282805841887,0.7901083855386055,0.8107469105368459,0.8077733109737002,0.8409051404523407,0.8504142176143423,0.8052919391938094,0.7707614166955974,0.7276750666849789,0.6827950939431462,0.7066047023574145,0.754488216259726,0.7874072997853192,0.8095777764911594,0.8122637386418292,0.8423954289919866,0.905597774075602,0.8978634129060126,0.7965180369664884,0.6697099835131293,0.5306618767679643,0.42051858214096693,0.4953492338685215,0.6175797754873877,0.7441539149326539,0.8160308831351006,0.7996455747869087,0.7652220405638595,0.7034260809309085,0.7059836185728683,0.7245902302794631,0.7360625929352871,0.7493703877214255,0.7497251711865696,0.7493572847192933,0.730852733225424,0.685368092831891,0.6965599625527998,0.7394334283930961,0.770624933842444,0.7958367055641702,0.8050477214316718,0.8214356139821355,0.8563720736448825,0.8778152902149579,0.8631285580069941,0.7585764281224412,0.6291506362948196,0.4952367901559729,0.4194293459973264,0.5267465147123032,0.65349218631702,0.7641321027061716,0.8163508545070712,0.7834947453417174,0.7396033852717023,0.6732493399314867,0.6732047527271661,0.7188088657005229,0.7112138927607621,0.7210417601693644,0.702568906605304,0.6778731562723292,0.6553560490742987,0.6055054809188247,0.5631029129148137,0.5844509197436292,0.6392428340806204,0.6895418270067202,0.7137782956942731,0.7125998002439973,0.7247099604807357,0.7590778111565735,0.8338863727206975,0.8164531912939159,0.703464246370407,0.5849267402489264,0.48144307361542404,0.3655613714722161,0.28889192595150615,0.16898328852814792,0.042107838080807536,0.0,0.05518001674971318,0.15453381632679797,0.30689991229564884,0.4392672980488115,0.5488007113043616,0.6631996720219555,0.7364066824965416,0.6683421229268331,0.6369126314980202,0.6179230748610429,0.6066286629846158,0.5777520316413316,0.5213182334707027,0.467774266188258,0.4550224548022026,0.500477418236629,0.5573801506583704,0.5787110115635024,0.5903072920623287,0.6089799219753189,0.6044071563375972,0.6225964752079669,0.5940964397742539,0.5681242209272122,0.5973419811815415,0.6711544266482754,0.7102534522661461,0.6926706531851492,0.5840167364588922,0.44077119592558534,0.3001299009521343,0.16950841264725502,0.11663266735821765,0.20234189050896179,0.33499695169373167,0.47546166834068737,0.6007925489654311,0.7320876013101589,0.7494469717418832,0.7365191941041891,0.7080577644089958,0.6908742768830454,0.6781486526109575,0.6243191608102556,0.5857726731224462,0.6043780290864333,0.6456998030440539,0.6657102792632821,0.6707571488038533,0.6641802678229998,0.6452311256200334,0.6403028125905772,0.6181235460525856,0.5982771518160188,0.6172257273270545,0.6887122671445152,0.7099980075377452,0.6394440083689688,0.5185802338870711,0.3962858634836186,0.261773698218259,0.13058596975453396,0.07254752589034164,0.17077498128465285,0.3069555500188619,0.4510091796694664,0.5825539089310188,0.7051997553805931,0.7895334016515596,0.7492854985869037,0.71585098801458,0.704925743661895,0.700132372569529,0.6827283021690853,0.6320398816515116,0.5808456062929768,0.5886586896861394,0.6349573647020805,0.6757287093564281,0.7268351532288007,0.7243171106226072,0.7064699984697587,0.7222257755617969,0.7044633636003601,0.6524126772958843,0.6020295665351907,0.6025235011388683,0.6574916592703794,0.6925996768018807,0.6782786440770012,0.5819211574027312,0.45110505101372267,0.31529761466738426,0.1827224922182462,0.14192175730091794,0.24369606988313697,0.3742837638447116,0.48092233538945983,0.6128056222606788,0.7393270646245593,0.7847772753769018,0.7459590962097025,0.7519651985756521,0.7192094165026157,0.6963399935389454,0.662941227194318,0.6146816231295613,0.6185862509286757,0.6599478876925331,0.6983930991023675,0.7329756542395476,0.7757982053989574,0.797967040726415,0.8268838670133327,0.8273073741161383,0.8049220281356115,0.7681326618763356,0.720889987672586,0.7401291179719145,0.7996076955510594,0.8268626788975002,0.767644835260759,0.6504021626133927,0.5303746802870482,0.39859196200427016,0.2705530934551281,0.2165611481348888,0.32310353102186484,0.45995006466604593,0.6030164884382518,0.7372109196583949,0.8538192276111074,HB
0.8281866370291182,0.8179419868321842,0.7799046703826222,0.7565354934982342,0.7921451661286345,0.8353415557301795,0.8602295162188811,0.8670871575375274,0.8415218545893681,0.7747315275208575,0.6867329423150146,0.5938161014374996,0.49364457738087375,0.4486852628196538,0.523801836108865,0.6255787054325426,0.7251027850026939,0.8199852841574131,0.9122072086672388,0.9648499990955302,0.9174166421886409,0.8493346228266516,0.8058342935611837,0.7843266331958791,0.8192015828961847,0.8395340944231646,0.8486454906878185,0.8573933571606294,0.8541155187274743,0.8241404199517202,0.7921371912332773,0.8144020099432163,0.8602236053422307,0.8886554142840424,0.897473871067686,0.8705049383596497,0.8065771191089788,0.7157924052838258,0.6148034732197045,0.5323169155915084,0.4632386840470277,0.40701925868586075,0.4550649383178753,0.5567808763707793,0.6549639876824618,0.7514321251888518,0.8478061817087481,0.9411912443000243,1.0000000000000002,0.9565157050481059,0.872638519062664,0.8094278527963759,0.7527449213303625,0.73953566665875,0.7759094832684068,0.7977822138234361,0.8073748389883852,0.8103004362684159,0.8145496546304742,0.7934020245598503,0.7698654513370917,0.7947556077814202,0.8248025673287471,0.8467457519280639,0.8466240956776028,0.8103145735156827,0.7300391342230881,0.6387139646333708,0.5455567778942456,0.4454766709415059,0.3858644292800084,0.4504226996900884,0.5447300822127812,0.6465526816899363,0.7374007302383088,0.8190039601230299,0.9080014484147505,0.9495392962970433,0.8899707563786208,0.8304715919648713,0.7822736056880213,0.7737530286299941,0.811220717239657,0.8339526388467398,0.8397013887855287,0.8501159358915762,0.861206310743974,0.8428876773719758,0.8143679717640477,0.8378640480066013,0.8797496771852142,0.9054887220917067,0.9084982488020372,0.8737534422641458,0.7992461491722009,0.7103072233159766,0.6164455755047498,0.5223058122345035,0.4249494033895047,0.40687301114276564,0.4985186368226908,0.5943941931510939,0.6934071298957567,0.7920952867105864,0.8859865512209522,0.9657686151862979,0.9546526714430141,0.8809418113628891,0.8316758133328925,0.7778816863373434,0.7692331882807031,0.8070158116334107,0.8270772257015391,0.8325152012618122,0.8298912739019098,0.8320473619148749,0.8045840384288823,0.7673748469274282,0.7370542261691888,0.7571163133794958,0.7905734892015353,0.7938254800009383,0.79762688808624,0.7896581693690767,0.7627526508190074,0.7210176699753241,0.727752241974464,0.7823594967895664,0.8223214957187737,0.79452875346837,0.7088015452045024,0.6332078317811696,0.547472062355397,0.4530567951290212,0.3530965598550526,0.2554582171789259,0.15857185886120595,0.06388674201962585,0.009451862193423421,0.06838689280552246,0.161667665455415,0.26254530841611934,0.3589011652731693,0.4574524114157754,0.5605265074477968,0.6589039279697939,0.7486581071087399,0.8255241674378786,0.86621798459339,0.8627750078581833,0.8272223007287278,0.7870886824399903,0.7726523666370861,0.8039320766084295,0.8251051827651681,0.8171314397175664,0.8053916688067211,0.7913146847077333,0.7603860087079686,0.7322514933912572,0.7522209127765365,0.7942229560607188,0.781101012235458,0.6904772834836197,0.5950541537433671,0.49370751275176206,0.3992444037394218,0.2978670522093674,0.19980285994670388,0.10348015770016383,0.016856087471116554,0.012563859194881344,0.0976796270730993,0.19209259823022795,0.2942772355000378,0.39749043188955113,0.498655770370811,0.5889448252708973,0.6676905044629649,0.7488978693129296,0.8077004486994579,0.8145109422188797,0.7915824673898755,0.7587506763076304,0.7348971404604141,0.7508077228961147,0.7809185462233412,0.7798899456802657,0.7687790451933165,0.7604477577733035,0.7305970723376587,0.6940808860962673,0.7030138340884868,0.7552540803192256,0.8172956227516366,0.8518362098063534,0.7829933074654711,0.6829474510887183,0.5833409025826946,0.4878722422261035,0.38522543290430944,0.28676038207646526,0.19051911612315453,0.09474093837600628,0.03348625024929519,0.08554921293552686,0.18684989233176053,0.2878284796421038,0.3824444414632244,0.4828661757464958,0.5771487215733373,0.6726880815293128,0.7631744178878324,0.836192107292405,0.8649326502350416,0.8482110090934911,0.8089080896157848,0.7668502335318639,0.7591965619078547,0.7932897256607581,0.816949186055467,0.8200775441258026,0.8176973494208635,0.8089459377042925,0.779107822613087,0.7463941055047376,0.7610041827860217,0.8065120543187232,0.820251115743412,0.7430485676137728,0.6478614929692799,0.5482277575058738,0.4470849115569002,0.35254443470367813,0.2511008429285577,0.15597801268317002,0.058295330809877255,0.0,0.057353274775564955,0.15349357636000072,0.2500520735060803,0.3398752456096199,0.4233748694628272,0.5234151605928414,0.6179774190240992,0.7114008811997692,0.7930147783515928,0.8302107965372263,0.8192583378437497,0.7846005473109521,0.7389698164437064,0.7124854409380841,0.7381160310448391,0.7799779977670167,0.798920732496782,HB
0.839583636420675,0.775509427818915,0.759920297422418,0.8018077483078052,0.8481679887800824,0.8886534376183692,0.8964374206569392,0.9220310499810696,0.9979059994954826,0.9741185059080757,0.8571879527910768,0.7282537508510583,0.6102813164168466,0.6531952563295604,0.7711207183158457,0.8625526875915739,0.8698699014820153,0.8143613014706412,0.7860764133920077,0.8204991302750719,0.81845830741175,0.8141795441659117,0.8186566540886901,0.8030216871677056,0.8104536602474215,0.8001795046864792,0.7579021926448939,0.7022625598408991,0.6570914374082859,0.6701518368502812,0.729950178413246,0.7889701783461431,0.8213266009116236,0.8382543112508705,0.8908931778764035,0.9651337960091979,0.947502819662672,0.834049398040607,0.7012169312698115,0.5773397441773493,0.5949490775819006,0.7160244810640726,0.8106809350298967,0.8385028680853095,0.8047736009048228,0.7725337102827421,0.8027069676574952,0.8167584972651976,0.8290010370755314,0.8236742780776956,0.8238870523533612,0.8378702247297407,0.8249753996126779,0.7779199042548974,0.7200091128449473,0.6682910790959533,0.6860676340170584,0.7482789842604363,0.790375818475082,0.8245959313425506,0.8665476772983092,0.9364610118531345,0.9521375154333382,0.8491563413534515,0.7179805618368387,0.5915142870411891,0.5896220054784345,0.7076462773291992,0.8001792679795212,0.841907856324553,0.8247413245071589,0.7703296320290716,0.7873071810412995,0.7964611242044186,0.8013303355284123,0.8020608668161309,0.7934254369163596,0.7945106750581581,0.7534478662729662,0.6929968390120633,0.6321608725114274,0.6370521324199983,0.7026945101085418,0.7641576258848533,0.7926046873231414,0.8192622690954798,0.8824547733770891,0.9008382433800395,0.8019434921198334,0.6668863023516933,0.5358840836000636,0.40840625861788515,0.44405803780651976,0.5702353139665877,0.696329235311643,0.7778919652289438,0.7835925955183121,0.7517251993591341,0.7300404432531864,0.7741028192159392,0.7987714884517882,0.8128039857404823,0.8298986631111176,0.8425408555052898,0.8143074788445124,0.7591078042384445,0.6950111078587531,0.6648769282884035,0.7222480095373407,0.7930169028728802,0.8466588701152564,0.8885136803079017,0.9257375077590337,0.9901988769845875,1.0,0.8933507626844581,0.7485741030542123,0.6154882020442778,0.47554298451257004,0.34250763345540003,0.2156079308890586,0.11143355725266169,0.04802224547239087,0.13864927503144298,0.20151632735178948,0.29504498417566705,0.4397158731426374,0.5637491779365296,0.6727467970480081,0.8085323357336276,0.885022940826047,0.8493578633971803,0.8090568473573465,0.7741808854709955,0.7087625136978968,0.6346813244453293,0.5983873792099836,0.6225993065198123,0.6862432063996242,0.746317772307131,0.7707110710144196,0.7632114046961429,0.7446409398452194,0.7299141174029748,0.7050489380707354,0.6489352216094284,0.6674653779243767,0.7054923393230301,0.6941496975145176,0.5933214838440213,0.48445113572077014,0.37045472566706694,0.22575785184280583,0.08272726670315578,0.0,0.06615195190821188,0.19724242539434522,0.3010456562970387,0.43630946991605457,0.5684940212230711,0.705799127900864,0.7783636225549775,0.742662381927953,0.722493746772912,0.6938982735497916,0.6437167978495881,0.5801968910107336,0.5437935644152212,0.5788623084387625,0.6440964704059664,0.7054350547275838,0.7246214131122284,0.7241409643576646,0.7303024186129226,0.7301798568047491,0.7250743483333122,0.6967679338149866,0.6994103690650699,0.7485696402829007,0.7321611148656433,0.6261525450678076,0.49755831364520997,0.3667538603279348,0.23941830553845866,0.1683675519966692,0.250932132086104,0.395386413126698,0.5421742685193007,0.6787181573657377,0.8008919827961614,0.8108219805947545,0.7636810781680365,0.735650150340573,0.6964949599044958,0.6323894201088023,0.5972959668778111,0.6242308750272505,0.6792600285656327,0.7406162467806983,0.7620075143190377,0.7623404070479847,0.7623397948503174,0.7610971780129359,0.7334877453745734,0.6877424530986573,0.7222796244168097,0.7550600839162476,0.6869205177939337,0.5628751567873627,0.43400272208421553,0.30321516231578105,0.17930832397573226,0.136569349747786,0.23118592049024755,0.37089519265686866,0.5022128420978533,0.639486181835907,0.7675249021401829,0.8141677571993533,0.7739073609823661,0.7477001569792199,0.7084049691554379,0.6455642801030592,0.5900433962002376,0.5834132108301331,0.634811047952728,0.693714768985294,0.735877867011657,0.736115415906724,0.7359867992966658,0.7505225632304913,0.7596719141286918,0.7315819578987832,0.7089178856476401,0.756099947672741,0.7852748259238505,0.7271434609727945,0.6036333816057868,0.45891188411266626,0.32190099796805605,0.1964259667031807,0.15140392576176964,0.250199968411696,0.38951955273243755,0.5220398821563745,0.6646222376829636,0.7936335787614501,0.8600852917496957,0.8283248563708008,0.8083721809365665,0.7720573215617117,0.7182528579044889,0.6749161976755875,0.6816479627522156,0.7336820847252943,HB
0.9061948185088746,0.7742074958157894,0.6332057761458803,0.5560747238464789,0.6621116909126541,0.7748351891901479,0.8678582525156942,0.9062396016749701,0.9305262923617614,0.9501532932671304,0.9130210770314329,0.8409510851552953,0.8442570444574788,0.8950891601958282,0.9644929880215884,0.9859149018399669,0.9697269215266053,0.9304129870309494,0.9189245350009219,0.94682779289858,0.976171323322887,0.9658339943846026,0.9642098573858315,0.9433606227771247,0.925703774341526,0.9737330165382496,1.0000000000000004,0.8906687057135065,0.7421983670009422,0.5918440656089947,0.486920314339113,0.5669204794304181,0.6933949172633453,0.8005912989998198,0.873583441674779,0.8704930435289939,0.867366351368045,0.8534244964169866,0.771303340708148,0.7284790079428158,0.7952901633220972,0.8724114471125959,0.934818038819826,0.9395847406608397,0.9078432176499942,0.92872177052412,0.9740906438610142,0.9894782077221449,0.9603424602438193,0.9188279419245196,0.8878369779283051,0.8517265088195942,0.8167218431616097,0.84399879707285,0.806705144985767,0.6753675970672588,0.5321265485995808,0.38695006210574334,0.311535180693419,0.42513914258079843,0.5591637812624426,0.6835197153619545,0.7955442927539571,0.8387614803725243,0.8393940731390921,0.8188184298519396,0.77242380117448,0.7123962343839421,0.7531211665962094,0.8104813667359241,0.8687942263381392,0.8892939017246033,0.8775280374490344,0.8535875051814013,0.8820399815669826,0.9578037754248805,0.9717354432389826,0.9834703594300636,0.9844752765207017,0.9703866915812918,0.9531607711379873,0.9228549268298063,0.9750301329059563,0.9424780793191343,0.8112445170466862,0.6679900155661644,0.5316270502206346,0.5054314788250527,0.6340316962394534,0.7368957122313717,0.8294694648107854,0.8880255824670553,0.9103021537431677,0.9274174437172227,0.8854801523410116,0.8082010645229176,0.7840747529692584,0.8448401866243693,0.9088446763292599,0.9340753528986814,0.888565923288239,0.8398480387920944,0.8578076295733328,0.903786364421165,0.915834366164813,0.8918867341509942,0.8589477726153176,0.8335811957132182,0.8024186870996801,0.8223791814169927,0.8345425121559411,0.7223955268748523,0.5793017199880124,0.43427336286005547,0.3586376823039701,0.4667337538118761,0.5806848076479443,0.6929548271690353,0.7668074436326635,0.7686873261415434,0.7075788658930775,0.6392742447741342,0.5685444166633618,0.43897665243586204,0.2726718038179632,0.14314157624582746,0.13084357459008755,0.2296303967908706,0.39395110238763875,0.5091095370798455,0.44188646408197707,0.30541944724226644,0.165548832773192,0.032210926179072175,0.0,0.1213887932120934,0.2732909135241881,0.42053974265564165,0.5640150225193175,0.6663717658878814,0.6791049330038779,0.7324233059918401,0.764618359514158,0.7788974127952746,0.8141565660655412,0.8357263205984151,0.8139331810920063,0.7615492844582961,0.746041947863024,0.7909863423712165,0.8274491760649334,0.7902882513249998,0.7263424753739867,0.6856599900282769,0.718513195876302,0.8029684483359278,0.8238419502815941,0.8112545070572321,0.7714696014885232,0.6841984050390448,0.5802903895009117,0.4470442694261054,0.3104863607832886,0.2011911638031081,0.25413629667048276,0.3943556536686992,0.5375893975749628,0.6622182814669668,0.7733032326948321,0.8144468885798255,0.8197424129520408,0.8665264255261955,0.8836293790414689,0.8968820623147651,0.884271363648161,0.862208812620223,0.7968159625132851,0.7653158672194036,0.7834813709680959,0.8046089616168088,0.8083247358984722,0.7441185902594376,0.6791560463827309,0.6248464081591951,0.6230214896007573,0.7052784480275798,0.7539540336206865,0.7656684117686567,0.7460797091946181,0.6499165652231489,0.5338251965037708,0.3859695719145959,0.2408914363167045,0.10164904410097764,0.038126582863137415,0.13053392208330195,0.2740809014802066,0.4209180634696881,0.5645079585062223,0.6676158328436164,0.6819058369881819,0.748721425501103,0.7855828289413727,0.8150314395904812,0.8536618664475548,0.8874504561601557,0.8955771717539158,0.8454732681752515,0.8117434524612039,0.8433088816464474,0.8635215247473078,0.8167902845482033,0.7362410067500087,0.6552922136648669,0.6329326874475032,0.6903639020389272,0.7682410234239136,0.780964712255209,0.7841116449193586,0.7445087917090691,0.6295308273072742,0.49810315815657935,0.3623343637919505,0.23741913490420608,0.23835586823624544,0.37969954469466227,0.5304465318220193,0.680865311291686,0.8061484670693182,0.8022368574140208,0.8182206609029108,0.849051671274299,0.8694343050359987,0.8787982403762702,0.8658418401406771,0.8389076338934367,0.8368046429936364,0.8418616682109561,0.8744004239103131,0.8919420300166636,0.8580651550538643,0.7974342213631904,0.7519410303723109,0.7592813214563718,0.8168956917563253,0.8551301398969247,0.8414253959495679,0.8044481990381231,0.7055067931916654,0.5910898441225068,0.45849469910043394,0.3153412986164108,0.20090282728921816,0.24665151945173314,0.3745110766252089,HB
0.8045735790199235,0.8423891016542164,0.8994833880236879,0.9482364622894295,0.8649558065900069,0.740980303625089,0.6070484386378561,0.4771723843906823,0.4771878561243339,0.5984563287407316,0.7195193511333882,0.7765105306509597,0.7509320299250666,0.6884752244508805,0.6418901358306948,0.6605825594388133,0.683430286777226,0.6625212615775387,0.6181339009370865,0.5357412437635496,0.4851263587567214,0.5411978524450807,0.6230908205951136,0.6968568494167586,0.755800114987816,0.7952351795313328,0.8446261416159997,0.9150749391029569,0.8753881598046664,0.7569309855700772,0.6254734658445598,0.574430485275454,0.675670424753887,0.749640396751988,0.7472660175882284,0.687746584360311,0.6408293928848967,0.6601146790696064,0.6861266596707911,0.6681084836578841,0.6197706589950629,0.5458697025020607,0.5045575363581847,0.554245877422411,0.632518777630898,0.7009949301298768,0.7588625399501674,0.7904705354291974,0.847014216071011,0.9002122041005411,0.8248530399547755,0.6999429770729053,0.5687703976080831,0.4554321112174584,0.5083940012273649,0.6324068652424981,0.7335573461473577,0.7427934636204081,0.6993556521921014,0.6412202842118471,0.6418988142412063,0.6683761445983962,0.6634439757069326,0.6347422884424314,0.5721938449401454,0.5064792954580737,0.5153692121373763,0.587301572836719,0.6704585343636138,0.7340089832124437,0.7755516162485376,0.8164605859209808,0.8946142848014924,0.8977715512329625,0.7890734764914575,0.6570590765266822,0.5342755029842876,0.5438843702709599,0.6644013410650702,0.7461065067367567,0.7409088326522779,0.6783440378167938,0.6295018663130643,0.6495097204992861,0.6664234374202871,0.6589659033468744,0.6366172710023199,0.5913521066738965,0.5686188557878027,0.6271759691728249,0.708170616481961,0.7770370727113218,0.8263404133023942,0.8690306321718797,0.933232272362519,1.0,0.9340425223198441,0.8073886850731911,0.6787698704497123,0.544633849052953,0.5124285018073658,0.6295968106374668,0.7513758044235739,0.8299764599707031,0.8275692029003836,0.7665046371472708,0.7236217648003334,0.7450807409472513,0.7565654225778617,0.7281484083416521,0.6997344334228979,0.6434123820005238,0.5658087619920815,0.4842700513697138,0.4175105530743237,0.309650806365386,0.21847350776532481,0.24062636565380524,0.36017179833190216,0.48219273784252525,0.5634067278383985,0.6318087288610399,0.6720171547354212,0.6906144664110023,0.6771245645598012,0.660076793626891,0.703899323659253,0.7652323438891542,0.7513890875434739,0.6348198165054133,0.4971348438612959,0.3687969463155989,0.2375681868893076,0.11369687513970117,0.04504094833116268,0.1230686952394624,0.25442228017799806,0.3807535893107077,0.5176393368233665,0.6529568400657362,0.7776155697416711,0.8480614401249706,0.8155753023622054,0.7716913743139835,0.716452214231031,0.6434756256160203,0.5632691078637926,0.5007001494599992,0.4969036349404221,0.5605562246160605,0.5971894722432993,0.6083326161709759,0.6002235710044692,0.5741095737405466,0.5807344551425233,0.6557477979045778,0.6917976021853365,0.6180013149144368,0.4876257493331253,0.3501291929681427,0.22296635568083234,0.09560300873801753,0.012100021982774933,0.07738279491625066,0.2016090803031454,0.33674672575159814,0.462949956851308,0.5985955672350327,0.7236221931587368,0.7654780019629723,0.7353311588436671,0.6908853374305002,0.6275371195350639,0.5460811084234933,0.47140139085452404,0.4268391080748688,0.4534321465904303,0.5261844879100757,0.5936118567672066,0.6212811541313719,0.6112387201467904,0.5853184480026181,0.5858302021598885,0.6548512481427169,0.6923707963128454,0.6153859426250916,0.4918580276797493,0.36085148606864204,0.2340070239034877,0.10020470510236557,0.028847386266230846,0.10671980745035903,0.2409679868495309,0.36750445791118747,0.5024228334498981,0.6346301421813436,0.7428304980005134,0.7468950047054213,0.7279271911231096,0.6776302386716893,0.6102573038393455,0.5339406476374227,0.465815934103631,0.4366910073329162,0.4937746155472582,0.5690922304757984,0.6243155581459119,0.6258059085995109,0.5940961047806232,0.5775503022901805,0.6301797548841503,0.6989112747215858,0.674912468349584,0.5597625314716468,0.4339935285072811,0.30176449132385663,0.17703002440515947,0.06847167919784924,0.08067271087232308,0.19698353803480284,0.33345747072927523,0.46286291255019973,0.5941133975655801,0.722457297693536,0.7659085104124457,0.7355386180145804,0.6915494150270929,0.6215225650736089,0.5415426023802423,0.4652817554469877,0.4145086031961944,0.4588507823795265,0.5519265192999421,0.6111409301030988,0.6283904375511615,0.6022984012393247,0.5799771967462939,0.6195607881305341,0.692472523486583,0.7090414261576798,0.6077838483187024,0.4821479363752861,0.3536579460943394,0.2238127269653014,0.09700816351860242,0.0,0.04470181163551379,0.1713767556925032,0.30357415730434223,0.43199851862315874,0.5692740476607479,0.6963498650248043,0.79181763214965,0.782241661059587,0.743150085491386,HB
1.0238337955215115e-14,0.023718564099456208,0.0490289647512004,0.07434005111379301,0.09944973860889782,0.12115103842740285,0.14523930572482224,0.1705460062969507,0.19585711690184596,0.22116822750674123,0.24647933811163655,0.27179044871653196,0.29710155932142723,0.3224126699263226,0.3477237805312179,0.37303489113611316,0.3983399402346934,0.42230133085640204,0.4441169897458663,0.4692408619036083,0.4945519326818634,0.5198630432867587,0.545174153891654,0.5704851017268024,0.5954581658323241,0.6169836281703299,0.6413825101076887,0.6666911954374044,0.6920023060422997,0.7173134166471948,0.7426228323104701,0.7670641788981315,0.7885628832497781,0.8135195829428166,0.838830458192945,0.8641415687978404,0.8894526794027354,0.9147637900076309,0.9400746339471965,0.9649449569188286,0.9858280663109515,1.0,0.993427971875205,0.9713140735010259,0.9499484806667218,0.9274495565983333,0.9158774180123008,0.9105508621157995,0.9044925403920239,0.9024377485911583,0.8848279618623336,0.8671184591899515,0.8589929963384952,0.8640533028757585,0.8718606693780986,0.8744341637799767,0.880227398045143,0.8768428232609905,0.8777246096417279,0.891472792960112,0.8974753017151991,0.9129593802053623,0.9294544342417564,0.9455492015134176,0.9499303077156003,0.9381639282817275,0.9232504982855946,0.9119146218675328,0.9001031247886214,0.8910686795276701,0.8818581853039318,0.8800025316398757,0.8783361749580935,0.8893424089387928,0.8954217265253359,0.8903591914116361,0.8862369277966047,0.8717974427770357,0.8536005021916331,0.830935953398269,0.8095614146148784,0.7848520861071011,0.7625971316878175,0.7391782323526199,0.7156386526566704,0.6978284901119131,0.6740017541690551,0.6526133763872028,0.627746195408608,0.6024353549322289,0.5771242443273334,0.551846457851279,0.528893752380209,0.5061863390974379,0.4809183133864785,0.45560720278158295,0.43029609217668785,0.4049849815717925,0.3796738709668971,0.3543627603620019,0.3290516497571064,0.3037405391522113,0.2784294285473158,0.2531183179424206,0.22780720733752535,0.2024960967326302,0.17718498612773442,0.1518738755228392,0.12656276491794402,0.1012549231102031,0.0769888050914803,0.056689085281931145,0.05648969453606577,0.07745010888387156,0.10261503875329517,0.1279261268474807,0.1532372374523765,0.17854834805727168,0.20385945866216687,0.22917056926706209,0.25448167987195736,0.27979279047685307,0.3051039010817483,0.3303678223887173,0.3529760035745239,0.3760252577169407,0.40130983202260334,0.42662094262749856,0.4519320532323936,0.477243163837289,0.502554274442184,0.5278622140865568,0.5520643503553735,0.5736882748790689,0.5987602668545924,0.6240713159879342,0.64938242659283,0.6746935371977252,0.7000046478026204,0.7252927394886448,0.7484852874676837,0.7709659772121689,0.7962105787434753,0.8215216893483707,0.8468326822049385,0.8718501489120745,0.8934327584312426,0.9177238197514842,0.9416134725723511,0.9627288313402144,0.9820140240269557,0.9869162114584525,0.9695546386117772,0.9476425132930256,0.926467063478479,0.9082347616886575,0.9006336484806337,0.9000554196371284,0.8932682887943968,0.8818522120657294,0.8641838382094948,0.8468626840223324,0.8467121884316969,0.8612407725262695,0.8679309132414106,0.8653528858480869,0.8737290172512425,0.8724865885826434,0.8752046888468906,0.8761406864700791,0.8845205615315539,0.9020965251580415,0.9171990756640203,0.9286239709908972,0.9299335263006507,0.9206964021123072,0.9027179397704497,0.89389759136779,0.8886753464447055,0.8774574097074765,0.8785983638243341,0.873038061233496,0.873738531491201,0.8775298167102483,0.8674048571702564,0.8561106691721849,0.85088769694454,0.8517115054495906,0.8493759279594002,0.8524398878358859,0.8564477791553063,0.8605632106493686,0.8779439595167182,0.8956911867851937,0.9097021540937414,0.9082313003933798,0.8965073098454783,0.8771907554307444,0.8624917472685991,0.851499075822946,0.8509225997127825,0.8497371761057256,0.8520083643738358,0.8435210550531359,0.8437415717995599,0.8382052830648268,0.8242547858601534,0.8211124000615342,0.8303951207255389,0.8454888639781378,0.8648641171259431,0.875168273378118,0.8761659781719477,0.8760512058865882,0.8840355261729299,0.900915665126682,0.9168674455358463,0.9045207524733597,0.8793932028254903,0.8560683453838326,0.8337163872011442,0.808480836109314,0.7831716246160433,0.7589253839981079,0.7411426497906756,0.7194510288773809,0.6969743084474272,0.6717297069161207,0.6464185963112253,0.6211074857063301,0.595796375101435,0.5704853960976116,0.545481591729433,0.5239165659583153,0.4995875723149427,0.4742793335556843,0.44896822295078903,0.42365711234589387,0.3983460017409987,0.37303489113610344,0.3477237805312083,0.3224126699263131,0.2971409958562497,0.27434537626506694,0.2514784918351943,0.22620673898545748,0.2008956283805623,0.1755845177756671,0.15027340717077187,0.12496229656587668,0.09965118596098148,0.07434007535608628,0.04902896475118995,0.02371856409944585,0.0,HB
0.9876920729684732,0.9848378706664939,0.9439675252331338,0.9111016655152194,0.9076792025380179,0.8823104016162396,0.8184077217857763,0.7415049096112184,0.6628113128248578,0.582159198696041,0.5027602873963603,0.4193681943341987,0.3355076335446311,0.2537724816476371,0.1781469948064961,0.1688139044850967,0.24091936206732933,0.3195039443115144,0.3980362598968865,0.4767527102157114,0.5562600208085908,0.633081567199174,0.7083500035560405,0.7751902811549566,0.8308825284996516,0.8276709226053153,0.8022174036532373,0.8245541406816491,0.8416965333734573,0.82818598153419,0.8098183484364135,0.833681353575101,0.89402766681549,0.9568253783739612,0.9999999999999999,0.9825591119136413,0.9411560020103308,0.9196071955121811,0.9155726333930435,0.8801072141451117,0.8131115775620003,0.7373049852659509,0.6567440037171126,0.5772474857628048,0.49378710238523027,0.41048339290857594,0.33124068998493805,0.2632743974298817,0.2879770627699154,0.36451685390826083,0.44363605749745794,0.5201735085550374,0.5901618641367748,0.6650970471092439,0.7406369211299532,0.8109681943232806,0.8300665051655273,0.8017830961692575,0.7985859975279196,0.816984875028952,0.804725695834512,0.7809868445576466,0.7825318702954974,0.8328015575069704,0.8947633610658717,0.9368766688323485,0.9207529424088267,0.8830025668797276,0.8694505419373318,0.8701315314354693,0.8341648155936648,0.7663692471619116,0.6886637243849945,0.6074599373036748,0.528237318772675,0.4452391540948958,0.36224875376347465,0.2835387071432325,0.23333618196824368,0.2853953615978785,0.3633825815121413,0.44208464064211783,0.5208420411928134,0.5994886034668307,0.6749353436328108,0.7502495458732886,0.8120434868292187,0.8170777700705244,0.787513415093598,0.8019165363965063,0.8286376619251444,0.8343500032013696,0.8086348963577806,0.7899303525917208,0.8203159232714398,0.8853370705415101,0.9476265261680942,0.9847749579276371,0.9578601082281938,0.91249394952535,0.8873621919906675,0.8746817399184003,0.8295945001362913,0.7567440439625553,0.678402670203462,0.5976464466157384,0.5184318018662954,0.4356169341657006,0.35590429024784653,0.28090337112011887,0.20229815280171692,0.13122246806195526,0.14999239304423878,0.22629113409814278,0.3057350387296205,0.3841348040607099,0.46286517543192807,0.5414533792834858,0.6191509088853536,0.6953651756557648,0.770749063014874,0.8113323600151702,0.793678166570709,0.7823203741552062,0.748434157748391,0.6778367732105641,0.6088573059114737,0.5283607393568913,0.4488337327748889,0.3701751515679168,0.29561224645658835,0.22360583884592633,0.14443800166162934,0.06802769918082802,0.0,0.009099500183468778,0.08516205066537441,0.16420683587185547,0.24328523535148228,0.32434005273580846,0.4042182020818609,0.4866989697976353,0.5659633665258381,0.6473814427854702,0.7254154385593686,0.7969461302497277,0.8489264432947828,0.8617753495959609,0.8802434826263416,0.9210734134730315,0.9585541063040136,0.9303141716074229,0.8679595590177193,0.8053139414572267,0.7652156097888926,0.7673954929275503,0.7980697856151725,0.8067776632423748,0.7780647960706618,0.7569126577542878,0.7844531337140516,0.779366783004208,0.7116399575982689,0.6324349953094547,0.5554734944090888,0.47525806476014065,0.39705773696680413,0.3194407357025695,0.2413276831625667,0.16375130689047196,0.10318034526486175,0.13018537230871868,0.20717568404508152,0.2871277970903636,0.367258170277016,0.4463827830285093,0.5267656595695247,0.6067009244872992,0.6860088569360462,0.7647730728515828,0.8278463178972727,0.8448903116240133,0.8572405179546313,0.8927955879388477,0.9074078725129479,0.858605502056999,0.7987806984025502,0.7567826497550402,0.7568373445501054,0.7791954637687962,0.7894167723621962,0.7690186372786046,0.7722763671224865,0.8025689971085005,0.7751735592238619,0.7033362444362498,0.6251888319917074,0.5449254832266811,0.4654447843492149,0.3869985037784732,0.3086401009427182,0.2301801804961603,0.15591596563183552,0.10642651601541703,0.14059925374593846,0.21827826912505655,0.29922407006065754,0.37836781542576947,0.4582700212626726,0.5387030709592295,0.6180384955181915,0.6990127065722335,0.7768872837897124,0.8491575309504434,0.8899749109464673,0.8963152911496085,0.9211444141070223,0.9608590302523218,0.9549758340624334,0.8958843424409358,0.8339236133045865,0.790221534398814,0.7865238576759589,0.8090661921288064,0.8155412570768977,0.7889931767565485,0.7764429655016006,0.8067232622133033,0.7890465376076422,0.718088473772112,0.6376913137614214,0.5599813372687436,0.4812291887070209,0.4026165502217933,0.32395298348444823,0.24443020044672636,0.16652186978796762,0.0911147557468317,0.042592231797739966,0.08906448121173688,0.16723360803747905,0.246133661371832,0.3266735236384961,0.4066352540417474,0.48800717472957755,0.5679787372075373,0.6497263777263341,0.7281513015347792,0.8047879134951438,0.8672492586978607,0.881522923344436,0.891164499774682,0.9314425196086186,0.9557360134031884,0.9159638537441922,HB
0.8050379327812007,0.8340542501232076,0.813933809925572,0.7521733183413093,0.7307574371855612,0.7589067301944561,0.7720855973998191,0.7527187739427657,0.7737121184208471,0.8412220198094023,0.9125118478372416,0.9457459536548054,0.9413249926777936,0.957991575625952,0.9682472733085596,0.9122960520000167,0.8134108601136467,0.6848258300841468,0.5487208154785832,0.48199284010762167,0.5850017475476488,0.7067060522450692,0.823343515516961,0.8736390253162756,0.8429195247778858,0.8328881897688163,0.7773678560600206,0.7467144521230713,0.7646771787953415,0.805966756789871,0.7862878203141608,0.8041477297723256,0.8690627372082589,0.9351479358361234,0.965112181164157,0.9658700849833219,0.9828206830167772,0.9494192216686779,0.8717710503997051,0.7561855928976877,0.6218052974326698,0.5317866057577327,0.6202449998878312,0.7436781358698177,0.8213789412319468,0.8397992785702773,0.8421143438907164,0.7781351827441658,0.7132317320853492,0.7327759016500845,0.7361962135519633,0.7352952272816493,0.7837590837544353,0.8541477371937991,0.911296025135782,0.936234785019666,0.9321199058734182,0.92675421192985,0.915321930275685,0.8281398751811948,0.714699162231748,0.5783614951526044,0.44709639706590965,0.3221817679243495,0.35146488175052015,0.4801396375884317,0.6097640892485727,0.7248745219997694,0.7898945902391605,0.8011173724031964,0.7606179644840778,0.6912266266077225,0.697222027973782,0.7212117812651537,0.7411422365761022,0.8048331970239362,0.8743977444812518,0.9244697406572131,0.946172982557449,0.9679217875598858,0.9906385086551803,0.9424536260492538,0.859775121729315,0.7431818907233714,0.6104578187795275,0.47426967152000143,0.3985366012342775,0.4929862144393198,0.6211080376469802,0.7510711591194967,0.8518471115028148,0.8538341699420204,0.858185286646048,0.8392596335205842,0.7701530325102279,0.7559918051189811,0.7831424565909071,0.781457941061491,0.8041525120354045,0.8716068483567154,0.9462395757536348,0.9874475569939234,0.9996874900687138,1.0,0.9973190450067553,0.9326417224966086,0.826701589712258,0.6979909639374995,0.5556083543787809,0.4388257509264921,0.4938864153105529,0.6205018281411965,0.7450220956674509,0.8581568024112185,0.8836941669342826,0.8332269056958217,0.7982896616858102,0.6996648099555989,0.6173197693833341,0.5357575330930624,0.3970126103316738,0.3030756538762178,0.3262093025880306,0.4502239729254147,0.569301139418299,0.5213253433262781,0.3932537169872461,0.2592448137129506,0.14153481771969112,0.14676522768991962,0.26547920195052743,0.40323101127050753,0.5355333491219332,0.6730402150615702,0.801753298682987,0.9050944356793109,0.9332795537934038,0.91146591472353,0.9235724862126666,0.890425180061134,0.8174656459859775,0.7477551741570836,0.7051541073242173,0.7050100802597399,0.6885181238237461,0.6610796961050185,0.7155184884325712,0.7759567764117388,0.7703674800679439,0.6915295808141244,0.5661402442394836,0.43853362123994355,0.2981801187987081,0.16418992255491194,0.10277963365519716,0.1853016729065291,0.3188062907350395,0.4498377237237041,0.5890151534708052,0.7195937380767887,0.8373240977825356,0.9046865018650392,0.8906939319917022,0.8645305671462111,0.862892509392355,0.8145778295887407,0.7435563267573975,0.680399691489677,0.6614766139717614,0.6404917655777562,0.616255450320375,0.643933034265173,0.7146894500477727,0.7397971686367466,0.6804985905458145,0.5617695114513155,0.4321468592615263,0.30024498965861834,0.1702155436488324,0.046346967781848214,0.0,0.09904864584869078,0.22968951698483675,0.3669025898627649,0.49829738930497136,0.6387247089025809,0.7677445245921444,0.8544538547238592,0.855594471946568,0.8503788929328477,0.8563712283385954,0.8348814122501196,0.7856294731336564,0.7182455792309645,0.6617720133355323,0.6666157950594984,0.669690572558022,0.6269785789320657,0.6406405573986933,0.7235666732072557,0.7541571160420939,0.7284126841347858,0.6256666574550782,0.49972231453498583,0.36983730993772257,0.24000673807902917,0.12987412627106654,0.1615593593215654,0.28664318870619576,0.42022392549332643,0.5557590218068409,0.6883013492976029,0.8160555197978074,0.8933301400740348,0.9021375800123685,0.8852755663438936,0.8838523549507982,0.8325554136491342,0.7616726614323346,0.7123799419918342,0.7040270917329035,0.6977493674643966,0.6667969327031553,0.6847970232487706,0.7495760256860882,0.7721755221514921,0.7595165410098819,0.6572955839842538,0.5251200800573694,0.3888845077781311,0.2564706245024855,0.14677163568286922,0.16730846807252897,0.28987225218528145,0.42032437956683744,0.5584251675349114,0.6896061069185544,0.8173995119099802,0.8771780683032184,0.8722475196992949,0.8692379375309112,0.8677460157147281,0.8172446116319998,0.7476194186036396,0.6881219348946694,0.6606673318312306,0.6786001588296484,0.6543088245166273,0.6252259687536532,0.6826701152522374,0.747658472896739,0.7433480850896319,0.6935017281512015,0.5760347165669888,0.4568063287558197,HB
0.7854532360447548,0.853686020552443,0.9511071941248908,1.0,0.9249767982027874,0.8045114187781763,0.7090194032320438,0.7515590640887035,0.8158806793442315,0.8533653874675533,0.8275404977346721,0.7849438201816934,0.7410147691357851,0.7665773516956458,0.7731569461834198,0.768404217477042,0.7760473159852088,0.7506183765392427,0.7301589435542253,0.7357756373651423,0.7433665874112414,0.7286308945030591,0.6693985098245445,0.618516037384047,0.5589602420067719,0.5070715132889627,0.525549782298607,0.5809735994039178,0.6298265697778791,0.6623922049401134,0.6909778683099681,0.7102559065936473,0.7716230559052342,0.8845701943060966,0.9703739154049362,0.9391470994606026,0.82773307215726,0.7097960959008072,0.6145998594041764,0.6518810055218616,0.7114776484303684,0.7159502743683515,0.6798062955438375,0.622927012324757,0.6257764747163179,0.6530131870587361,0.6677201443933765,0.6505080531497782,0.650758757754418,0.6598686296765761,0.6773747084007429,0.6766196771566779,0.6626118122343083,0.6055590268708748,0.543192526386505,0.4855498739170594,0.46675916841203646,0.5050862068827242,0.5547317104894263,0.6102619780767222,0.6568781157183654,0.6712887463457591,0.7013996936418456,0.7756897855175824,0.8782845702749142,0.9468823225093423,0.8808158986909955,0.764052588863688,0.6425840809908934,0.577934514012143,0.6373095729312075,0.688516262029685,0.6892874635564352,0.6453744896343316,0.6163576573475553,0.6532582338288861,0.6705310740906194,0.6851818799432836,0.6732604656095083,0.6682274074879135,0.6639403797349237,0.6804162176138426,0.690453067527061,0.6752979795672491,0.6591255018145139,0.6208908947195155,0.5558692804993459,0.4844073742115391,0.4194680142041358,0.41782948343829496,0.47866015608133594,0.5493474537220706,0.5841318350450218,0.6154546164883792,0.6489428105328514,0.6781308087247915,0.7564734308829308,0.8443641882419595,0.8288926711304194,0.7182478783025603,0.5953977731167965,0.5119606392966123,0.5771601851493671,0.6516598401498106,0.6869973818223158,0.6841745859141648,0.6529311870134009,0.5782231996214846,0.5783165421653522,0.5748480383068206,0.5865930223988824,0.5603941210196641,0.5577261470815897,0.5282584028720025,0.5512558012892645,0.5939507393871502,0.602001091030969,0.5675033935762213,0.5128511410972441,0.4518209187119413,0.39116417158893135,0.354953054083722,0.39532009230428367,0.45554953554831146,0.5222304373328055,0.4970384909531669,0.40840456339060793,0.28391449089767207,0.14124654809420134,0.02275055043069729,0.0,0.054709460491156214,0.18811307198126892,0.2725944268245324,0.2470362210366357,0.26452434032125405,0.3317492746044266,0.39340113839249824,0.44932518249836884,0.48311456889671867,0.4841164674047467,0.46248693836390986,0.4545463786511421,0.4504493380367469,0.4740810891513676,0.4910753788356965,0.48248741121617167,0.4566003567531509,0.48373720846842927,0.561196943583739,0.6046333985994421,0.5746692486340339,0.4882138531581206,0.38881069871320095,0.3303157384065116,0.4039351004758247,0.5209429358016675,0.6249889544828404,0.6085332022806988,0.5680245467955194,0.5406982213153606,0.5128724600890804,0.47329055287641575,0.41359194382621034,0.3533470162862309,0.318459762089935,0.339642087193301,0.39804736893809123,0.47211479435480586,0.5318250410261598,0.579481218107722,0.5979276988232374,0.5884467037394083,0.5762195738565823,0.5732252493968533,0.5837380932656715,0.5942192574351592,0.5853837131407267,0.5559533997114596,0.5265163397623449,0.5298850426663337,0.5876812380124892,0.5938457564223456,0.5788127304661925,0.4944075428699177,0.4115120363244187,0.4205753935382459,0.5289569077845817,0.6288159977562411,0.6955670104361484,0.6534360952945351,0.5945746802673759,0.5792245768558888,0.5857286095803427,0.5547244270932081,0.4924158537263761,0.4391991440113254,0.3943275072672896,0.3744795594567405,0.40702157139859363,0.4586538219549645,0.5175060041687649,0.5700278732269295,0.6008405888352568,0.5743910509202896,0.569524224811695,0.5533778122655613,0.5538992454430662,0.5640126843800606,0.5784866375342488,0.5486894274159306,0.5198071590336792,0.5585006113554964,0.6091821147918672,0.6268988845662977,0.567129228895122,0.47058876611458844,0.4388675239310378,0.5185633978834838,0.6320473776477149,0.7350851056343197,0.7111067220712259,0.6439280750024405,0.6060831321613991,0.591205695780737,0.5797282722349171,0.5597384767227473,0.50511844462314,0.4319467963483894,0.4016148020488317,0.4256838962063898,0.4795401762388156,0.5403068440358791,0.5904545105562802,0.6506768298611574,0.6751256164399715,0.6486220746445994,0.6267518945838026,0.6535152601533118,0.6816138876633744,0.6846440897137729,0.6830377704569113,0.6533130698613903,0.6498067159531642,0.7159501818674343,0.7540054786773265,0.7197099913858276,0.6359402223110546,0.53512830722021,0.515005387716815,0.6033949074120213,0.7214541042812561,0.7989411386920917,0.7466527298903065,0.6997598885024665,HB
0.8754231025553749,0.9336415254939991,0.9179776788652085,0.8782854289007007,0.8618836678086499,0.8059863168990686,0.7182039899659389,0.6162256019467973,0.5081329006535245,0.39441939846276153,0.2891085517157548,0.2441258449134478,0.34071323829923394,0.4382094610293179,0.539493007737831,0.6431437682228971,0.7369147345798099,0.7904067729917705,0.7915067166018481,0.8045443001651358,0.8471405493281421,0.8988510297074113,0.94504472421049,0.9606092136208866,0.9331731946847905,0.8910416280488969,0.8055635726537718,0.706298809553441,0.595950601794021,0.4821393194103205,0.37873380022144176,0.2917010553805255,0.3335518265887596,0.4442552824193404,0.5549773648105529,0.6574801640791166,0.7429215840696282,0.766196514178656,0.7745965502281575,0.8229648686412432,0.8890695999579727,0.8979729142202757,0.8558373457055084,0.8099928721688667,0.7425623428078572,0.6484742902856011,0.5481521746052747,0.4387460817084077,0.324658130154416,0.21712952799807428,0.11753486753796594,0.14666698426081348,0.25893588744255824,0.36993293998318655,0.4778596698108659,0.5835556748808153,0.672936271253846,0.7080827164268659,0.6785666823294769,0.6933957027441728,0.6848959203193439,0.7133418473792128,0.7902939373295244,0.8504777257094944,0.8314194304970615,0.7868576356265007,0.7530165110320586,0.6717033911983781,0.5722003813823298,0.4625904740340323,0.3493152436746245,0.23712121678670206,0.13705233484243928,0.14446965911855902,0.25563421357464433,0.37163598443108103,0.48411398270866934,0.595967621004835,0.6884695243274299,0.7213606707017655,0.6962385393481014,0.6735369748417499,0.6821973206404275,0.7405838123337793,0.8110878649671416,0.8375702977132282,0.8198388024689418,0.8007821532638002,0.7476835562795845,0.6578349323429622,0.5423363925523792,0.4313158556014487,0.32472717880246504,0.21095740621525327,0.12065900445157585,0.1648265161723108,0.2761180275293982,0.4015320237939106,0.5152297805273367,0.6232597428789441,0.6995002138458704,0.7558192212493027,0.7751904417177968,0.7769876444029573,0.8018333904479893,0.8198338133490664,0.8539328578094252,0.9372833541978971,1.0,0.9965026022098318,0.964736055711005,0.9089100486816863,0.8236746900216239,0.7181590603848047,0.615460823770591,0.5086394321380459,0.4015481887296919,0.35290370287650985,0.44102155528216613,0.5534842855152253,0.6622807902387184,0.7386716427995594,0.7308940320801232,0.7154698493832572,0.7215352777505863,0.6906341661331736,0.6610934342086718,0.6612371017031524,0.6505315085682106,0.6638987544225676,0.6181693910645518,0.509015631077196,0.3940183655567371,0.29014382612102874,0.2659510816174604,0.3444095076338447,0.45095287597286293,0.5586273654794986,0.6657269506625254,0.7743087428207809,0.8592128849839633,0.9113243957239638,0.9374497261047687,0.921344152034957,0.8450013989896048,0.777779195107791,0.7601778319501955,0.725525855143093,0.7092499376611667,0.715813123912727,0.6754732489879802,0.6009205733093812,0.4936377300593926,0.3800183683513345,0.26381519884609617,0.151721035253376,0.04360223396286722,0.031446825551119995,0.10924388633724003,0.21701254004858894,0.3310633879537721,0.44639346276966574,0.5582853203570006,0.6615567002961504,0.7288755278537629,0.7579671476251795,0.7538521640009788,0.7293919237236954,0.6583193592906338,0.6093865707217128,0.587396931006201,0.6219830819957606,0.6421375445936115,0.6299098247230646,0.5791799546570426,0.4774277685770332,0.3570612470583685,0.23636994959622304,0.12248831423781259,0.02145990704274392,0.0,0.09229952737248115,0.20276749658107573,0.30587576614316325,0.4178432822583351,0.5285704322975691,0.6310940134939007,0.6985295881015716,0.7316087049039592,0.7807825984458145,0.7576109930399801,0.6813737312393635,0.6179097942547038,0.6123062606480265,0.6072440254016063,0.641286779285549,0.6261435865389333,0.5332356242085612,0.41852492060921187,0.3114249276151282,0.1973488902220497,0.0822485505724091,0.026951968287757477,0.0916866960165823,0.19649983302436325,0.30325315132969055,0.4172930911906749,0.5256852337094808,0.6293346322098898,0.7208901709095339,0.7722416392448008,0.8083425782694262,0.8274695753273509,0.7583828584774799,0.7049111728925146,0.693930400585117,0.6857088456127212,0.6411003253819167,0.5428873130572844,0.43142125347580396,0.31625028053152016,0.2119291720869938,0.17979839780143392,0.25257686626119136,0.3532973496601448,0.4556702139791511,0.5672578888523652,0.6799536665474739,0.7830153817355909,0.8416150782142546,0.8757450712001869,0.8425088497298536,0.794345629653928,0.7522225933481228,0.7092173148731717,0.7107817207238036,0.7317606847766163,0.6740751689550812,0.5722993880961433,0.466149941488915,0.35273952282334875,0.23468883995621148,0.12573012339822665,0.11551084140282297,0.20440060653738934,0.30308315604587266,0.4089017710886287,0.5221312457380276,0.6288779153429132,0.7214208739216943,0.7643867763606922,0.802390998008844,0.8236211243978047,0.8509211086607582,0.8013136907190042,HB
0.8322434087900352,0.8821689576772749,0.9134513525505827,0.8800617397554107,0.7810614338654105,0.6389255000423115,0.4973187195636526,0.4329297584818783,0.5433668121073021,0.6895300344700837,0.8251356854706171,0.9161256415618064,0.9334481494787426,0.9110673092112438,0.8774348506498617,0.824950575557251,0.7936053151963791,0.8256419406304065,0.8673122506531432,0.8593572540973144,0.7716775157726068,0.6530730722514204,0.5174834946908153,0.4021002256157904,0.45447321865398393,0.5959940666187671,0.7403625180444022,0.882787922617513,0.9457625963681418,0.8969604239975189,0.8211418665497847,0.8220667062228202,0.8792514917576302,0.9123583593395881,0.8851740326788664,0.7879830536095471,0.6586381689792713,0.523812016775624,0.49302026031101365,0.6226436505215078,0.7625635789719922,0.8870295205922298,0.9296171705255736,0.9215440324109552,0.9244947359183717,0.897291025619817,0.8440606716504915,0.845773083006284,0.89765439483668,0.924327531912998,0.8911460113128888,0.8075556637377019,0.6882932357607903,0.5546488025308185,0.40360489859092175,0.3206907884473318,0.43087088195953305,0.5734413457737109,0.7145515326667908,0.8444207699968547,0.9243857596196601,0.926833732684551,0.9183198820879848,0.8666055337469905,0.8122808879763279,0.8440090510015117,0.9040850918723189,0.9428000050570433,0.9125876692186341,0.8222601455787584,0.6911369132617979,0.5552414851351717,0.46092859573283373,0.5588277803681407,0.7011920515743766,0.8405340646374211,0.9393911314949279,0.9551631540350565,0.96545895422696,0.946858442961485,0.8836739870434789,0.8110188306259016,0.7608763927942981,0.8011932264602075,0.8631477590847392,0.887171859423737,0.8578476879116423,0.766614173480404,0.6374345318926631,0.4977518946584585,0.4147343252853002,0.5145551971724904,0.6576689300519143,0.7969294767119748,0.8999995882455742,0.918656590297247,0.9170875904397064,0.8791162849503626,0.8292703330334703,0.8651338274663933,0.9085059844651653,0.9072121930864232,0.849399060530609,0.740235620453821,0.6051792622219092,0.4876835710455203,0.538319061472393,0.6813439929457212,0.8247855430891042,0.9548828797670459,1.0,0.9791488320722244,0.931089573492494,0.8713370527835012,0.8227381880278681,0.8647906459021799,0.9138528752602362,0.9331439537287114,0.8672350251604222,0.7387594218969111,0.5956239297971151,0.44730338545868564,0.30233575451103833,0.15615746869904523,0.058664975201118796,0.12361269790060003,0.2630073905604533,0.4081824839140591,0.5511155239812315,0.6932861454377734,0.8141550652465219,0.8603543039296109,0.8380619430967844,0.7861161888143151,0.7679078774769441,0.8258193873127957,0.8671067490159281,0.8671209694111432,0.8294727884527298,0.7119321619862715,0.5726192753492945,0.4304719128058694,0.2795767675234768,0.13820921054331636,0.05622472079602536,0.14311118306608517,0.284110380839234,0.4386703121050486,0.5850969720564083,0.7166690129924662,0.8104301385382007,0.8253914133085298,0.7760719681763142,0.7146583160622728,0.6979907199727657,0.7614542166043234,0.8331543508503834,0.8954112242374563,0.9070884166939708,0.8943704968605957,0.8412657692638121,0.7090217374653172,0.5671870620661617,0.41921350834127846,0.2758526089100757,0.1506750721894612,0.16240624386600633,0.2890933467777721,0.4409540202772462,0.5830427757970988,0.7157475622159182,0.8289754131714466,0.8794729393225991,0.8439729515973102,0.781543299779663,0.746587859725595,0.7884755155131669,0.8548686201748055,0.8757439734218138,0.8552023682164509,0.7452881603352619,0.6064754093237577,0.46642812310957993,0.31988362609017296,0.17598136937713305,0.03712228326639755,0.0,0.11549770251691616,0.256658325842233,0.40292987061393193,0.5443493242623911,0.6749700339216456,0.7912649948074408,0.8583802054552239,0.8485396138171915,0.7957629294908459,0.7800176114810213,0.8305153442785169,0.8672638543826419,0.8640191312230447,0.8750618046559735,0.8183990173002402,0.6826405398914779,0.541352704636195,0.39677705587825285,0.24842715530153336,0.1197809423306726,0.11927534083620239,0.24346249812235587,0.37498390016648964,0.4934035609570606,0.6425337623902156,0.7707861355646735,0.8464105769797161,0.8327281388180836,0.7745077498726531,0.7330735168078366,0.7698449044649398,0.8501106835746106,0.8461900335856174,0.7201424174086908,0.5773762078169655,0.43233419876507995,0.2842848408180698,0.13190403094122072,0.05809979944594357,0.15079025072099483,0.2914426760742339,0.43205511352311676,0.5695407084303485,0.7004839550160051,0.799800149568779,0.7968497323156525,0.7516091051472218,0.7391763648333405,0.7836654965896765,0.8357996926116504,0.8666882027886134,0.8687568000379353,0.7880923418800023,0.6489779213465865,0.503288248510207,0.3595628372556847,0.21174754707304944,0.07252228258050364,0.028637028926439267,0.14438341821664125,0.29933050032422726,0.44402117810303965,0.5839124392206987,0.7211261799208888,0.8286419176412214,0.85478629347622,0.8117347802866259,0.7574949385346397,HB
