0,1,2,3,4,5,6,7,8,9,10,11,12,13,14,15,16,17,18,19,20,21,22,23,24,25,26,27,28,29,30,31,32,33,34,35,36,37,38,39,40,41,42,43,44,45,46,47,48,49,50,51,52,53,54,55,56,57,58,59,60,61,62,63,64,65,66,67,68,69,70,71,72,73,74,75,76,77,78,79,80,81,82,83,84,85,86,87,88,89,90,91,92,93,94,95,96,97,98,99,100,101,102,103,104,105,106,107,108,109,110,111,112,113,114,115,116,117,118,119,120,121,122,123,124,125,126,127,128,129,130,131,132,133,134,135,136,137,138,139,140,141,142,143,144,145,146,147,148,149,150,151,152,153,154,155,156,157,158,159,160,161,162,163,164,165,166,167,168,169,170,171,172,173,174,175,176,177,178,179,180,181,182,183,184,185,186,187,188,189,190,191,192,193,194,195,196,197,198,199,200,201,202,203,204,205,206,207,208,209,210,211,212,213,214,215,216,217,218,219,220,221,222,223,224,225,226,227,228,229,230,231,232,233,234,235,236,237,238,239,240,241,242,243,244,245,246,247,248,249,250,251,252,253,254,Target
1.0,0.951237538906705,0.8977228426134768,0.8441924451747048,0.7906621766915783,0.7373580534040295,0.6872651728664606,0.635406708306779,0.5818955977795467,0.528367971987186,0.4755996023870436,0.42597538901500054,0.3731270384283537,0.31961097865569066,0.26748350912687757,0.21769862795097217,0.16925529253426597,0.13177547250245403,0.15363527605286076,0.20342166844697285,0.25341270981758224,0.3020742389149683,0.33389428410557953,0.3450120733075268,0.35151406284190323,0.33744250224714845,0.32264387619473356,0.31251324003467784,0.31954078410842146,0.30424117800774364,0.26932924038964623,0.26564783397743297,0.256516860468162,0.22376009777978167,0.18939667688002526,0.1753316242421855,0.2031006173248996,0.22732420569047163,0.1983271469523319,0.171215125198801,0.18159111721943433,0.22704422145958336,0.2670041131355376,0.28897283289109943,0.27930360420620426,0.2516006959212034,0.20361311069366972,0.1732414968484235,0.1886278197537662,0.23696047542371768,0.2714363467265062,0.2893765586881648,0.30458773352257607,0.30630841205409665,0.30888764189360873,0.3032148196533718,0.262581706590306,0.21344503733537756,0.16409174539335847,0.11171575289528413,0.060240924057071266,0.03616686923246315,0.06758939644759188,0.11552177737885205,0.16753680280323746,0.21721957821313398,0.2697278489788787,0.32324783919528477,0.3757961608217313,0.4254677781965842,0.4784899431275148,0.5320192957328275,0.5855447738804286,0.6380995167417088,0.6875388580870921,0.7223506168821502,0.6900666039634339,0.63690350287446,0.5845385780964415,0.5347849096386824,0.4818192411649985,0.4314956705135006,0.3806209699615162,0.33550336428556204,0.2980366812802453,0.26575385296189213,0.2600220493330665,0.2415136265014638,0.2370475083554341,0.22324550574233093,0.21650419749979843,0.2054896575501144,0.2159074871931539,0.25550300340855003,0.26818964677290846,0.27517673257914854,0.28208803932284243,0.2839801374049209,0.2917067857331702,0.27949726696242894,0.2820388875676213,0.25099208280120955,0.2071216032026798,0.16619570632124925,0.12481939419138777,0.08098481990467199,0.03640247130998997,0.0307658316920405,0.07266336932924422,0.12380606787950177,0.17348762869034617,0.22592437027383172,0.2778085245024773,0.32787104904955044,0.38117247792593467,0.43470275523412594,0.48823315130777745,0.5416078428916297,0.5899060046364303,0.6382634534278256,0.6916444628305832,0.7451285640758333,0.7949150186449053,0.828580574507568,0.807642536221498,0.7557131623169305,0.7021929679825659,0.6497585345687796,0.6000461226053736,0.5469629397700938,0.4953094071137959,0.45213004266553647,0.40388861644147944,0.3566897370067029,0.31251666787656274,0.27898140988412123,0.25713951313139216,0.2603029066119087,0.25763412446210665,0.24348240248757602,0.2129874887740667,0.20703861091694353,0.18735109900637847,0.1669772350840386,0.17979903728135294,0.2183289430724208,0.2536250504464179,0.2898358794904654,0.3372423231932299,0.3855583369365976,0.4243855238246975,0.4164968186401631,0.39111915986531454,0.36746413620456986,0.34733525499157447,0.32178919975904197,0.31315119639777955,0.29654353640110265,0.25981714277655177,0.21245335158614564,0.16268180991654857,0.11355097732896391,0.06986278543507574,0.07172533233889056,0.11444845956627792,0.16592384984127162,0.21916049514035507,0.2691376898236162,0.3211465508602205,0.3746615614509854,0.42778410771590225,0.4775335656824867,0.5299056060233099,0.5834286378004095,0.6369590352391811,0.6904888173555487,0.7435649762636555,0.7835889126445769,0.7615787353282578,0.7122883708741515,0.6604594578322137,0.6069503055301825,0.5539303010814595,0.5042614672537516,0.452218245554982,0.4026275228742633,0.35284844222976797,0.30631650544771716,0.26532405025388106,0.24616615451990786,0.23764574029406227,0.21720607745257992,0.21255404597211192,0.19999097324039605,0.19287842691859436,0.18923631249075812,0.178243304184319,0.19629349993564305,0.2334024635741705,0.25066338146645795,0.244252692187518,0.250583178176786,0.25950950659487904,0.2624720913105061,0.26722630002505343,0.2365116726549109,0.189386124335979,0.13942162778789435,0.0902500221178868,0.04161411679236471,0.0,0.008930787229852855,0.0567363670508354,0.1064101638089282,0.1593609885001257,0.2097350983650168,0.261249363627844,0.3143672038832753,0.3641564644459022,0.4164618576406055,0.46998367626091764,0.5235135432521435,0.5766670361408658,0.6264603735856943,0.6783968746868393,0.725448802522148,0.7742850135229028,0.8202315471496494,0.8712916934829041,0.9084005320443845,0.880044453991868,0.8275573606758174,0.7740296135376988,0.7205676367787436,0.6695905504060403,0.618714855794389,0.5652634804053392,0.5120423286977674,0.46215015524435377,0.410982262036955,0.3613279621579597,0.30914727428625877,0.26543139943487326,0.2320342744194206,0.2107815564745762,0.21774798526159367,0.2113880379408023,0.20881373008036241,0.18775598099329582,0.17150501882789848,0.15695629448002235,0.1522306426135659,0.18547128944294655,0.2120455642604342,0.23095981957211842,HB
1.0,0.9491812458201354,0.893847117936537,0.8389145171023686,0.781379054710323,0.7254992171025065,0.6709698801297104,0.6134876419420634,0.5559653224584304,0.5039336544898383,0.4614628216627986,0.4100571111263054,0.3621720581732061,0.3160017665001629,0.2680078826358293,0.21484605699407056,0.1963665934983646,0.2424061548854477,0.29506052720013587,0.3409747384924203,0.35548436127963734,0.3375137610819424,0.32872150822249524,0.33330073876331545,0.3116809260812491,0.3007241914984051,0.29189051740695404,0.2929347028677983,0.31289106738215033,0.3356733307227746,0.3278857451849104,0.28810286241201033,0.23613505279495728,0.2149450335213713,0.24723341527799592,0.2843894381503618,0.2595283235449426,0.22044934959850937,0.22637793395857642,0.24499855018075578,0.2187638981852612,0.2263904926374315,0.266060764736353,0.293624289691349,0.3088443139750464,0.2997813664007981,0.3163322836332626,0.3338304815738661,0.31650655415972795,0.26651387061966336,0.2133091402690186,0.1603776668201582,0.10644669433160314,0.05516421858068976,0.03810528776638977,0.0810142179731892,0.1357923873011495,0.19196888833639258,0.24620102524344523,0.30357396447387863,0.36116843423949374,0.41638079338853984,0.471517107761913,0.5291027601220823,0.586766520761141,0.6441368247213608,0.6983619432541397,0.7546451309159423,0.8116321264808901,0.8391018348555266,0.79513054004099,0.740051436649094,0.6849454478125161,0.6296492146686037,0.5746667043145963,0.5171283072746184,0.46130255267347653,0.4078075172513569,0.35848977762252565,0.3181839809617778,0.2876447979640342,0.25849540785960157,0.2426501843671901,0.2536034190586507,0.2794306026046982,0.29759738584207585,0.2854214893704846,0.30099550627055394,0.31686367228011403,0.2892835802399878,0.23770901536083244,0.18459084589866248,0.13104201201555443,0.07666725287993792,0.02558970375479075,0.011062992867042043,0.058220228129847285,0.11338519210470366,0.1684833125613816,0.22606369339213273,0.2831947028098041,0.3371697491622653,0.39393469423705585,0.4515941091009308,0.5091925389403618,0.5644526768592939,0.6195423097789288,0.6771218430617787,0.7342567308503483,0.7882283330050266,0.8414272926778035,0.8419922402638191,0.7892505103406164,0.735185386092104,0.6789107807568362,0.6249046052812766,0.5688502720202184,0.5147958429875183,0.459140760760797,0.40516767303394596,0.35233270028591324,0.3076433079709563,0.27511994266383777,0.24613582549239632,0.2246118442652667,0.233988438494393,0.25854309905769657,0.2858859042875157,0.29293881446128667,0.3031947200564352,0.30869974230055286,0.26753036113557327,0.21419320939461084,0.1607580997478918,0.10714072682598264,0.052230199377380715,0.0031894030875011525,0.0,0.049347214809905005,0.10322416178832738,0.1600806729964287,0.217741159677575,0.27540518331665964,0.33306920695574427,0.3907326046005598,0.4480070819853065,0.5020859266257565,0.5586065692233544,0.6162507437092457,0.6726127461105627,0.7267848202287357,0.7841277006234357,0.8413536699165747,0.873610486962954,0.8356762189614939,0.7800415403692007,0.7257992543419567,0.6696603830068435,0.6146651356743387,0.5593667605901294,0.5038717579812593,0.4499893726069931,0.40251118158096866,0.35684660969934967,0.3157300919659758,0.28420925018828913,0.2528409635486778,0.2374546628446942,0.25057420098797567,0.2782692640673671,0.2871073193829534,0.2736238641478764,0.29382115724752755,0.32470402874573356,0.32225074685525834,0.2761753212463798,0.22325842574350718,0.1674140475038859,0.1107339280685884,0.05864711642468434,0.028635008479026225,0.061486680685428174,0.11595474517885962,0.17307562280853506,0.22710604555507663,0.2837351877303531,0.34111242909018813,0.3953589529600191,0.4516083683827975,0.5092548057025554,0.5661323686523967,0.6200825208237106,0.6771250942493947,0.7347871959058547,0.7924393131078971,0.8449444250405669,0.8381400149400791,0.7851846942666303,0.7303513951561544,0.6744199391669838,0.6200256368229928,0.5635444881392193,0.5140355190804133,0.4690673111561925,0.42212223796772963,0.37271071121642574,0.331265670733796,0.30114007386125197,0.26751560681799746,0.2503164377726378,0.2594061305544654,0.2819110837557576,0.2967501298130827,0.2980031436059628,0.31575332689518665,0.31054430364829055,0.2665457330920631,0.21347440386172156,0.15964146612808272,0.10632026800654737,0.05196962400038563,0.01788096275550699,0.049920300783763305,0.10414224589174537,0.15871538640708338,0.21062810561325063,0.2607790649834606,0.3164523398681087,0.374085440318896,0.43158969616870124,0.48620517964300813,0.5419815757855646,0.5996145212456196,0.6572770873208393,0.7143906440694712,0.7683579832162606,0.8251312087399281,0.8769017920008093,0.8674677512189175,0.8149521021570554,0.7592415294408141,0.701612286908478,0.6439667370224842,0.5878768974325348,0.5336307250768515,0.4790519667243549,0.425395939206726,0.37326256562174964,0.32946939067216097,0.29818203460293,0.27115194898030504,0.2530825608980698,0.26376119818105337,0.288455666198255,0.299202806404851,HB
0.580926801689353,0.5378269636234658,0.4355409462358937,0.31938977805454716,0.23175668697813734,0.30062338537903477,0.4328284818277566,0.5678175821374007,0.7077850589387653,0.8360992897013038,0.9253318770557111,0.8687416266441423,0.7568603711769515,0.6519222761161294,0.5987650102152462,0.5762124497043568,0.5242297277326577,0.48506516620599927,0.521453975078157,0.5574396082557862,0.5714216669773782,0.5639978504429775,0.5453707552920712,0.5544855335380103,0.5883567703678683,0.6310025967393535,0.6376494936154646,0.6082984034301138,0.5877451349961413,0.5416467169383585,0.4541874128997465,0.34057702912146404,0.280123556490921,0.382956100161882,0.5173329519870755,0.6513777577419235,0.7945301134466369,0.9326855894467707,1.0,0.926373180041439,0.8062518755060544,0.6923700641156754,0.6192275695417009,0.5978553236186825,0.5406875432976328,0.5104773827874354,0.5337245114878146,0.5516600778240135,0.5536884705558736,0.5373766614143922,0.5338848400336591,0.5583677327681129,0.593011125413752,0.5740301784939215,0.5575895643057533,0.5419804598089875,0.474543279294088,0.37103421040062656,0.26657011452264134,0.2424866823102163,0.36021068336771656,0.5013459697063363,0.6311195059615842,0.7713246613075464,0.8967735073639496,0.9074218350278165,0.8072554763144435,0.6921552374520479,0.5818851349760834,0.5381465844998607,0.5231115195969638,0.4695700467808739,0.44379158254009177,0.4793031372667471,0.5174677129557614,0.5606846323202013,0.5725536398343243,0.5431551011295288,0.5383544865691623,0.556628153643465,0.5693648198545298,0.5852703226861888,0.5853638298572181,0.5715927125187754,0.5095850324252931,0.4187394540776057,0.30588618676434765,0.21600405186198746,0.2789196530397753,0.42047805640436264,0.5638653940740292,0.7024937402127485,0.8186181575567444,0.8695612751448709,0.7856690418845322,0.6732115017587907,0.5697034461241057,0.549986003280241,0.5478783774578742,0.5205504612520953,0.5479355939390933,0.5676094509080789,0.5700234812023668,0.5588311238286843,0.5560462235220416,0.5741171321273035,0.5736160295906987,0.6258037337174223,0.6620243260146625,0.6498112413106529,0.6298842039054118,0.5881386916656162,0.5187146511220022,0.4234456253985357,0.4306610702886746,0.5515861922493612,0.6915795874967028,0.8152148489205802,0.8749177022746912,0.8041802309937749,0.681047158095688,0.58097724460238,0.5692619581885241,0.6645194091466302,0.7299365207683004,0.6361714447988951,0.4956545878337657,0.3658772555300729,0.22691824095582858,0.1043330908483795,0.03424065190224912,0.05200509832104405,0.15124679888918457,0.2625073997659966,0.3013980715952824,0.1817221085912446,0.06105254229994461,0.030118224962219386,0.0774647005298652,0.20688002197896127,0.3350079337529528,0.41043507344701924,0.49870272146376315,0.5514617201657974,0.5575193053608443,0.5777631909890912,0.5772603439729247,0.5270806078851322,0.49083960683430305,0.47846880378535994,0.49300408680993435,0.49909122337654743,0.4903573532687173,0.4781317481279381,0.443520523934839,0.4640449622985945,0.4769212589156937,0.4828604234468741,0.5605428715067835,0.6519728794418174,0.6136351794623582,0.47726105732791124,0.3393415157237234,0.2084808953220323,0.07803073604388722,0.0009947391708702291,0.07343964183745788,0.1888228728254835,0.29669603900422636,0.40849726457483904,0.4864995166634376,0.5039927235812174,0.5054842588695947,0.4920534438411974,0.46939393604738466,0.45718155473380095,0.4561406927508811,0.4800397450469056,0.4713275888009911,0.4415867107267366,0.4062184612432307,0.36127547422069695,0.381802807503707,0.436635490622868,0.4680097480896994,0.5062751807599857,0.6005786702148521,0.7133212981019321,0.7268703334185891,0.5981038523075801,0.4679342429987412,0.32856128096885984,0.19269803320494994,0.06357386031772627,0.0,0.07963008282491435,0.19911286221666158,0.3085453432627334,0.4164997054824644,0.47685908436653834,0.4865256821516897,0.5032432210022519,0.4954205505446514,0.4724595507944267,0.45766763027431834,0.4646730398297425,0.47142801542458734,0.48091321456137637,0.4686296990473764,0.43262914712013956,0.44279642025774013,0.4992709260217838,0.5351775618532741,0.5442726689015176,0.623708643293138,0.7342487074172408,0.7530231012431035,0.6241101006967291,0.4845723446034058,0.3544351320398369,0.2143614877636999,0.08677378831104487,0.016570689079875578,0.09724218615581748,0.2168060556409941,0.32752119255176027,0.4404518111637481,0.5105973068593341,0.5362708469410662,0.5578374601463727,0.5454969384733936,0.5025947736855056,0.48342379490061926,0.4819170681202234,0.4982143185203656,0.4986504735625683,0.46151722082783664,0.4268927010153698,0.4388235583834863,0.49475271351271033,0.5190595952867749,0.547097840741511,0.6349128133055872,0.702134876252047,0.6092902668354441,0.46688904071335724,0.3300369877665683,0.19792975070132757,0.0594234002124705,0.0006715329783273383,0.08352328673868126,0.19825672662186333,0.31070400023823375,0.42528834034623486,0.4981444890840323,HB
0.9942346254377366,0.9359801124433338,0.8389884832512482,0.7306306668769722,0.6194899175858621,0.511355299674741,0.4971810655756268,0.6032579343932478,0.7190189238510758,0.8405882106549132,0.9483221376022579,0.9999999999999998,0.9665726515529236,0.9357218108290379,0.8680135173179024,0.7888117818925708,0.7903162226048803,0.8496783280071087,0.8771186285173089,0.880212290830362,0.8616207432331018,0.8156120222465046,0.7999263857455745,0.8532650608755892,0.905098110417087,0.9326384242765358,0.925834405772519,0.8636173722019185,0.7651325449589244,0.6563622175594379,0.5457020974843796,0.43519290514234066,0.392037557565593,0.4850663817762846,0.605132966650682,0.7273585154631885,0.8394355475767801,0.9199820907030085,0.9046225949694195,0.8715149103596731,0.8183779313631889,0.739080110400381,0.6958000003476346,0.7464265828544348,0.7873843429075456,0.8010086033910688,0.8182078136933886,0.8027790461334703,0.7979422954274236,0.8443191195894106,0.8797981715826431,0.8896502078261832,0.8463015854216713,0.7568518794350694,0.6580936982871961,0.5587502934888056,0.4437431702248775,0.33678305539273934,0.3389651358669885,0.45435168687828376,0.5716068677184494,0.6872154336436544,0.7997710851618252,0.8925385924613141,0.9091405696879582,0.877306202729325,0.8258561649362568,0.7490813940909842,0.7317992382867264,0.7979550088474217,0.8422861704016993,0.8639278815987999,0.8791484191623924,0.8590255816309271,0.8452587684629564,0.8872530309905142,0.9297410738133294,0.9415250594467881,0.9061785215226952,0.8206652003989163,0.7137534676849069,0.6024654844675081,0.5118349752593598,0.5581964423035726,0.6707969477131392,0.7849994682372017,0.8950279834235226,0.9630432314582336,0.9385293410854894,0.9014673452994539,0.8346007373574029,0.7652203754203637,0.7870960503762314,0.8286544820124868,0.8231021834920897,0.8062686250443056,0.7854475918135082,0.7699071583664157,0.812538408995165,0.8694711169664251,0.903524218756443,0.91346593465094,0.8624907470762622,0.7586739785905094,0.6824550851038989,0.5827718672082269,0.48229454086001766,0.392553607486555,0.3038133015325881,0.36202298938353805,0.4757929449368927,0.5938808756008849,0.7088231827730991,0.8231724411559409,0.9239034140269167,0.9552343330064896,0.8981458444708073,0.8600885081983523,0.7636936049000205,0.6747397769619401,0.5663142879204328,0.47236437576767676,0.38388426672948195,0.27021945604497044,0.14829525556688705,0.036450671125130896,0.0,0.08728065004816798,0.19958917647059704,0.3188941864906829,0.43339376806964114,0.5179860815710897,0.6224433520639552,0.7334574878743823,0.832906851398141,0.8731669769956516,0.8497818504909047,0.7931003463209507,0.7404881184667786,0.7276335511801628,0.7570258062972599,0.7778267014955185,0.7892228559594134,0.7546000229041117,0.7086376910160614,0.7450584912154525,0.8261284282871972,0.8809200769441128,0.8766280613372766,0.7885455272846109,0.6759120209562197,0.5588762869709007,0.4439524433984403,0.322510731768489,0.20823239199236654,0.09271294927354745,0.05511074219860501,0.1462366247978184,0.2568183982143728,0.370088739002592,0.4837899745097529,0.596362468152795,0.7071854559893602,0.8126773519859365,0.8921932602375311,0.9037988990729955,0.864064248483537,0.8154972947986778,0.8035137789020632,0.8324874080973095,0.8374105921723618,0.8166484019758384,0.777256093719574,0.7090885812386194,0.6701422554129282,0.7215608532712265,0.8048664285276061,0.8475405221167442,0.8152335233341133,0.7113384788215029,0.5943994883632393,0.47938173310017707,0.3609779261208461,0.24315200050884367,0.12760083707131153,0.015692512359992472,0.00036691207413586113,0.09747449453922918,0.21097742224423754,0.3257393724588711,0.438940256285965,0.5521977650079604,0.6646835619441978,0.7704135657905591,0.8452938602171802,0.8482769786016224,0.813109098812032,0.7680633404558634,0.7619107004493901,0.7827533619784568,0.7659724127487542,0.7485785431282566,0.7140061534447875,0.6505727471897274,0.6460839378682659,0.7192638044461572,0.7961687940130184,0.8400460083877765,0.827532619718031,0.7292742477774756,0.6141338189552388,0.4980535163243469,0.3821400253709972,0.2647815579632842,0.14331129666720543,0.046294812631278326,0.07157762985591432,0.17755589152456897,0.2894939197014055,0.4009633753606816,0.5009219539948917,0.6088065462034351,0.7181087516911384,0.8210735170508003,0.8829987899852136,0.8708963791350908,0.8217892582962436,0.767974351559831,0.7683668643431607,0.809587398745321,0.8380808089202245,0.8281071505827302,0.7824760227345442,0.7256650468597383,0.7499217233396411,0.8326885450058141,0.9003672549016579,0.9205470626060366,0.8813654197447016,0.7763789540774646,0.6808529583232896,0.5890145219047722,0.47515363559917856,0.3540702898472303,0.24031468721906002,0.12749816956081395,0.11446580658591854,0.21379098150356501,0.324025950536162,0.43645974480725735,0.5491378670927134,0.6626157031173674,0.7714086524382753,0.8758318599179928,0.9438582927646213,HB
0.8236912634585907,0.9165031143190068,1.0,0.9834954257878801,0.8877644150977821,0.7848072324334865,0.6759907544122252,0.6125500079864312,0.6576908846088858,0.6444323605627513,0.5698711500238156,0.5349437425938706,0.552457047593025,0.5452394291934972,0.5071025314510962,0.4829145575598237,0.48885859147531674,0.5293666208367647,0.5385737132612194,0.5214471242103764,0.5281975051648655,0.5277842995743871,0.5228636528513886,0.49123038527216245,0.4764007827972665,0.48326291836429514,0.4819019943061873,0.49453803349399905,0.5756976350715965,0.6559424784901524,0.6250989702205363,0.5529858281521061,0.5988799708000041,0.6590360333970993,0.6141682844817664,0.5349477342974254,0.4910802549938573,0.45522089778109764,0.45389297406591433,0.4537145221748857,0.4426579330271485,0.43000979314136734,0.4327849576473155,0.48411955006974283,0.5685573808871944,0.6653796511221572,0.7637701356964852,0.8601670218807334,0.8978254754241548,0.8301574310861102,0.7277354898388944,0.6277718609753995,0.525862789464631,0.508215938720038,0.5055303709314192,0.48248200507596817,0.4911839950511543,0.4993349885433713,0.5109194583323795,0.5042951016313983,0.49496879502583635,0.5122626013947871,0.5501549672080275,0.5865218524837412,0.5887027915400718,0.5583549204240463,0.5554241819197219,0.560801696068137,0.5395680291734699,0.5046204499623146,0.43610376051268984,0.3531739197755215,0.3684589139285057,0.4710241739924639,0.5706284246869848,0.6707071965157172,0.7283173549576598,0.6840040801103133,0.6261024214582602,0.6117698606474411,0.5680641980279617,0.5576268922586016,0.5878950668301299,0.6045481497556948,0.5880756429353338,0.564876510700191,0.5719931092812303,0.6184977093604918,0.6927362607881462,0.7749790545353763,0.7683140306780292,0.6808724798041408,0.5944929776143741,0.559876455037883,0.5843082605149355,0.6084251960523899,0.5926894159873575,0.5668685921874443,0.5540269438804568,0.5881695569632122,0.6079925131991222,0.6489186262814925,0.7388039468060748,0.8359989692171661,0.9205492577409791,0.9084282842323019,0.8135016853468358,0.7118661732927087,0.6075075916985568,0.5533723140106739,0.6216500964817788,0.6440126536805808,0.6025697965771348,0.5758196945380525,0.5261866218492601,0.5192607099925186,0.5588658983961801,0.5675689151250665,0.5420266837805272,0.5214093716477173,0.52422281767765,0.5280000639904667,0.5309724901818673,0.5124954844546155,0.506118503914136,0.4733123604515339,0.4528828339833506,0.4727734180577303,0.4780514959091562,0.4730144415645854,0.4696171490008698,0.48134593483773847,0.5065198866931913,0.507946950642951,0.4704833392837977,0.47043038166786033,0.5140160648076972,0.5458371955310963,0.5412864897503282,0.4692169941434905,0.3703873670305069,0.27523627904334313,0.2661395642259219,0.3525706384760854,0.4633921630852438,0.5737079719664511,0.6662398943010261,0.6618171554428081,0.5892172479037927,0.5574832065865243,0.5271857360776369,0.5003086903392,0.5037254767911987,0.5305841662557049,0.55350145649758,0.5390327706084448,0.5147551275324926,0.5260717467300564,0.593568456520444,0.6061371819411367,0.516405710158077,0.4235322069386407,0.4022572156712729,0.47143021368319094,0.5101728870856608,0.5276837591725942,0.5493802616494698,0.5404611851127537,0.5136208566290565,0.5138767542187201,0.5445585072900907,0.5630594699804639,0.5939618371741906,0.5778958578675302,0.48127925077644607,0.3759599893999299,0.2722165781698873,0.16877126902110096,0.0637909540561803,0.0,0.050940468273325656,0.14944034172912213,0.24709670245590276,0.3409347782685117,0.42956670985953904,0.4763188971224013,0.49962983078884005,0.49979713597130804,0.5044064529473551,0.5144089245721073,0.5017024899003917,0.4624373753439892,0.4347620949115205,0.4098480926949808,0.43112408855284956,0.4258922539437826,0.4299064575615663,0.4292248992479326,0.40923842576520997,0.4151544836698706,0.343806025329906,0.2405964406849037,0.21158718880561,0.29619634123998306,0.3960506210223298,0.5035152433553285,0.59857781858465,0.573870089873532,0.48805417394922923,0.4209609338937961,0.37568495587375006,0.3636928836799944,0.39493712114328616,0.4033057663667723,0.3980851168521138,0.3993060579206116,0.4382515761027377,0.45843677763268476,0.5043200292540662,0.4628875499951701,0.36462384427236927,0.2656538948503102,0.24405734859560724,0.322941750846665,0.42003405664495563,0.4579992790975087,0.41999774236230225,0.43278422700836794,0.43541270769942164,0.4313769800300937,0.4337876392641795,0.46602872265899364,0.4766044775578586,0.4685829819111307,0.47819376441229045,0.48682323584509746,0.4704779812007729,0.43241342480083444,0.429824472328042,0.45786677707504886,0.48462785337381487,0.49377242828540613,0.4867306035995318,0.4897599686981091,0.5366667129942067,0.5192591599221967,0.41965508740379986,0.32578915549662124,0.29129157891685376,0.3657601668527759,0.4665339410756424,0.5774818458667457,0.675563372088448,0.6562307102804632,0.576973278525251,HB
0.8184444893884597,0.7412108399725141,0.6378111755150069,0.5301471405534637,0.43229287475153355,0.3445939151132784,0.3196263564876307,0.32955184681226357,0.3218536418539595,0.3007258831473032,0.2559508915793325,0.26066281494469457,0.29946749749093504,0.29038573457019656,0.25941627809214496,0.23490726031600828,0.2552167021984859,0.2757063346485604,0.27746696244103264,0.2736222113521982,0.30569438837007135,0.3929772193325667,0.4855937765491387,0.5804478597734206,0.6837135388279891,0.7829384568335513,0.8600023743331116,0.8200460394022351,0.7208508250520953,0.6171360410725153,0.5178023312206974,0.418407164472536,0.3139272708559566,0.23829700244421748,0.27179242493437306,0.29776625920738087,0.2983915011538556,0.2823438733120358,0.25762371380441484,0.27564341169056883,0.29754055634367504,0.26222683442574835,0.20840399569505164,0.19217001065801065,0.21482743565281637,0.21093905803385193,0.22546773231854966,0.24676210840334956,0.3227411057282936,0.41692099488677825,0.5204866045651426,0.6202441714059945,0.7239089788458675,0.7922639505114584,0.7430567706280107,0.6431861802612191,0.5483809477398622,0.4549735092307079,0.35426181510841803,0.25307476146276797,0.20933230647721546,0.275143803821845,0.33801093763496315,0.40514480899335603,0.4833925626568625,0.550505320913979,0.5863268238830222,0.5583676215633739,0.5375283823664094,0.5425493280024989,0.5072420887593896,0.46097193208473874,0.44159543556892866,0.45903778825797814,0.4618237669923271,0.45361215393593723,0.47300948935615383,0.5512776666483632,0.6543367036134355,0.7543803897548111,0.8303076932841946,0.8041738422833238,0.7143330113793118,0.610094833816546,0.510261517502659,0.4248850514434419,0.4265336773427617,0.43188144474386925,0.4150683504202186,0.38499817934085345,0.33963149573863927,0.35708706009750646,0.36912359880437484,0.33800304745165444,0.29984144695160975,0.2854581991111691,0.3098647507846213,0.3371688311758001,0.34678797053688504,0.36844038239151167,0.4424828207930609,0.540654376669097,0.6439728238075733,0.7430498021325593,0.8421558506524749,0.9438068715636019,1.0000000000000002,0.93838472538822,0.8357639278236098,0.7340275170370514,0.6315940214881006,0.5339677352337591,0.43837305312301633,0.3570218214971408,0.36096911122474973,0.3675914843809325,0.36557079961940886,0.35333690734511114,0.31647289972109816,0.3318412470133587,0.36329492412180486,0.3558798018170686,0.316563795214712,0.3035058068164338,0.33235126831772943,0.32107220625673816,0.24613449900253204,0.15776082823324522,0.05775305847561962,0.002945558047862118,0.05993894862449789,0.13989109547833278,0.11378569769220559,0.025552649552644358,0.007722428980840856,0.08338342393409715,0.11984747561447451,0.0407001674959504,0.0,0.057275051075717176,0.15666954889690188,0.2013637028619113,0.18131513751938333,0.15985614595111852,0.19626346082511303,0.21325320605484133,0.22669420831340292,0.21171237563922962,0.15696050512550674,0.16485531769679707,0.25650052720958416,0.3560173757658629,0.45637489117463637,0.5510069889980962,0.6500593142716433,0.6715227295431843,0.583871347940468,0.4798995261121186,0.3801110966627601,0.284583841522255,0.20725296672448246,0.16836694613439707,0.16958301481808702,0.1528341959820383,0.12364533215137441,0.14306049777399155,0.18379252644277844,0.21589817724782678,0.19169158901036876,0.2068738944391364,0.2520611154203267,0.2749867034344389,0.2748429676834485,0.22662545836009929,0.21420368613578122,0.2996038880041916,0.38967590850709377,0.48359438335474647,0.5872485606019133,0.6892384843028834,0.7481357733892506,0.6808656969317652,0.5758143052960734,0.4759432008747011,0.38996065687618287,0.3091518508902589,0.2809732478214926,0.28909690057579596,0.28987156967389516,0.27358677680405963,0.2973547453240115,0.34753529667164673,0.3827487158235796,0.3871081443659936,0.4136150010017763,0.45107794086717923,0.41117132694793734,0.33821699554551055,0.2651159251328701,0.19238276141051447,0.13448932710950512,0.10519097138277278,0.16640474901257085,0.26657210129111975,0.36611405373786376,0.4637704524247701,0.47040045509713413,0.3791929738402031,0.29008708603110334,0.1908442089555693,0.10150269161606174,0.05357470662001296,0.0460307454952813,0.03818295716425091,0.044896646188913536,0.01709556499646614,0.04111836797469559,0.09977329068826801,0.1358968848718416,0.1267567112982806,0.10610021138567194,0.13912564089014756,0.14799370933223432,0.15427838859768928,0.14342033707642332,0.09795447108514499,0.13080309545676005,0.2275537069307607,0.33224410625505185,0.4334047179385905,0.5138706750195514,0.48263204568093543,0.39245741959136393,0.2933909721172032,0.20106143903986018,0.12763126660964041,0.10224517137302547,0.10126319716698728,0.09786843572504056,0.07343388240014215,0.08576063903558073,0.12531932163696258,0.14927962126277317,0.11440375916232459,0.10011198381482145,0.13537926677703793,0.1688621754779549,0.18281009415448546,0.1720818409474001,0.11970218775266805,0.15085396839112897,0.25050136253532673,0.3553902442576864,0.4475869040754341,0.5365313037333965,HB
0.825152221076173,0.7064947814945186,0.6936914486165922,0.8284133639977629,0.9277815657207382,0.8675991057425709,0.7822373984025264,0.6735398110531934,0.5350628885580582,0.4236100568021546,0.47622346108291014,0.6061682725954016,0.696509916313699,0.6944334386732516,0.7411811447140062,0.8355056870207882,0.88459701931958,0.8857921533029929,0.8839211341771058,0.8094004191435253,0.6715775793905405,0.6415248117856542,0.7793134325505249,0.9259379611328282,1.0,0.9042093641036457,0.7975850113545464,0.6950036561426645,0.560580247681882,0.44868401584679773,0.5045344029330199,0.6267215894671394,0.6817692106175004,0.7080006607985112,0.7929265166723116,0.8550244154289164,0.8813302252430364,0.8866508803561186,0.8469710551234915,0.725009283334173,0.6586963177890333,0.7820986997591328,0.9278667025408582,0.9965487809919611,0.8991114428831057,0.798757562101374,0.6850142048608032,0.5493960442640202,0.46217154689822637,0.5315864326005619,0.6531123456739776,0.6933171205744024,0.7097450973601496,0.7863637750467927,0.8407738255580592,0.8567318880943056,0.8761759423634392,0.8670497827892634,0.7602158777881307,0.6157055859899287,0.5397170967237881,0.6579560850692756,0.7887627523556238,0.8701278013646792,0.8068084389228645,0.7113683367908155,0.5865045247832756,0.46230909047558644,0.4765655383415104,0.5926301600861361,0.662910627208634,0.6683228485362842,0.7312052967538234,0.7979542031630462,0.8371737993336605,0.8510931241892812,0.8486049207569204,0.7512660555586446,0.6013051488482613,0.44876423033136836,0.33774655422153943,0.42509916467597675,0.5800326030794509,0.7305517820695475,0.8352969227754863,0.7900138020670227,0.6930553536378405,0.5661361226162311,0.4535330631358887,0.48433753467726604,0.600855736367627,0.6595588162660042,0.6850084689962976,0.7181149622635052,0.7938884164664373,0.8407269098709693,0.847394866274481,0.8682876049813308,0.8442121348159555,0.7103875804779345,0.5711318334138933,0.512149425397121,0.6334389312369355,0.7864575776948901,0.8530553268108285,0.7863916564645321,0.6861446285184165,0.5622291898742988,0.4783900529075509,0.5581881974742431,0.6851678115812718,0.7460595703257407,0.7487030132018297,0.807647726669519,0.8813519442898303,0.8782931627778221,0.8065023075672837,0.8084838716678067,0.7813315538639554,0.7684712807671534,0.6754848015263368,0.6076209991650354,0.5896158838383996,0.5156086253871122,0.38977988303202205,0.32788823302400916,0.42082793318448797,0.5444063803660448,0.6596050027009843,0.7329502991160779,0.6513272756475712,0.49703625953652475,0.34403011204863354,0.1877810316912667,0.04838492951140183,0.0471225820722565,0.18853572510401584,0.34174280579090777,0.4950419654582525,0.6368868109556987,0.7427109381759691,0.7326889768610525,0.6804559061616859,0.6785987424236444,0.6135598640405475,0.5225734699065008,0.5022442670088889,0.534621997536938,0.5349457753125848,0.46497335510091053,0.34792308668536087,0.3008165897896551,0.3904554696241038,0.5169299400550358,0.6335702310370013,0.6243891318112231,0.5323642832556246,0.38342126558419354,0.2300072597536853,0.08329755415920492,0.0,0.09427080934227727,0.2516484859982868,0.4081271492876941,0.5597524622671868,0.6916936412596102,0.751213588987647,0.7312540721908545,0.7163348229627782,0.693486158308259,0.6336296757609339,0.5786620746573705,0.5687955440956634,0.475450501673095,0.37268407961306727,0.37393775173624766,0.4850234422109705,0.6218786556118152,0.71974962333835,0.6917669049906108,0.5511458498103208,0.40072141531083094,0.25596799558089467,0.20428008459913416,0.32251748096502286,0.473178347460935,0.6238317010593493,0.759293492083041,0.8118834137164916,0.8061162964147499,0.7760181889819107,0.6953404619189993,0.6390961011653005,0.6090559133306943,0.496787698305464,0.3838414366856129,0.3895344399120839,0.5060780056438237,0.6398306552474677,0.7522999455049053,0.7832805182572513,0.6607765701096762,0.5031328178714398,0.3520360347778646,0.21742391464850197,0.22812706108113767,0.368576061829621,0.5223354388257331,0.6735046604011075,0.7979716580915124,0.8279686278316074,0.8076284991364373,0.7646377682707737,0.673815416169413,0.6147475402482248,0.6159880404619797,0.5449508007314621,0.42032392252169704,0.3390123409777459,0.4031467479751272,0.5280833286910647,0.6615288608018997,0.7647067673957486,0.7716901519651156,0.637572084816004,0.48268938035200293,0.328831114138012,0.18517812680948653,0.17257374470928388,0.3066471884717781,0.4579399126737127,0.6186770359464826,0.7658688835004397,0.829948165019097,0.8181331874917124,0.8075834070391776,0.7408663544910494,0.6563020141241038,0.6444253709469492,0.5823099610156652,0.45572446135419487,0.3479829921316093,0.3631452379759317,0.484212408410996,0.6240678910648989,0.7429729988307217,0.7663578334709844,0.6428910950996709,0.49101510034010687,0.3357243568367547,0.1955650114526004,0.20038813912643416,0.3417850904841244,0.49372332763572935,0.6323299503938098,HB
0.5977796640274184,0.6044436934822772,0.6223408798619823,0.6481007772669845,0.653827449953543,0.6663793494331265,0.708364173840387,0.7780111087951234,0.8326721661302239,0.8101851173012862,0.7428430112181768,0.6677770881049541,0.6022821526053592,0.5737248263832613,0.5668827957996179,0.5335743130729083,0.44740172764063146,0.3526777136496513,0.361921377097437,0.47789645725468954,0.6017560773111588,0.7164395521157134,0.831833214068618,0.9317869270220496,0.9368828208938584,0.8407265628438001,0.7444701107624145,0.6879416361373036,0.6679740150853783,0.6149015200399495,0.5707939014234347,0.6019479676094859,0.61886805904029,0.6398280310408384,0.6295425487842112,0.6353861357082708,0.6647030244247576,0.7269820422843147,0.787369441953222,0.7949529231135442,0.7335958417651915,0.659487392268673,0.5923271160658148,0.5554264613889659,0.5390326241029784,0.4999649632363603,0.4192011392083499,0.331532743155055,0.36379282453304285,0.48445383194724956,0.6077339253121221,0.7207477721810793,0.8405663089420394,0.9505801688670363,1.0,0.9237928446051038,0.8142278069256927,0.7145337720801086,0.6691221720513694,0.6350883173633295,0.5888579716741922,0.592851345872397,0.6217264325041159,0.6232254115084559,0.6324238724596039,0.6423617418581267,0.6890352499707793,0.7589897189581083,0.7897086809906204,0.7425464284112406,0.6747448725191654,0.6113633225262665,0.5684789225761451,0.5645420618306507,0.5538752350518017,0.4758395989945261,0.3723155203931907,0.3298923587314522,0.4307528800384617,0.5526586012582788,0.6650367799242209,0.785623983339601,0.895892990917567,0.9712475912044627,0.919562417907863,0.8119099536866661,0.715934713366102,0.6755289865762806,0.6363650646891315,0.5809357335998082,0.5870248704794521,0.6026645460107214,0.611032199942823,0.6085211140139926,0.6193927465116591,0.6575171353381988,0.7331524785159438,0.784954869607656,0.7607438066572447,0.6884775650824175,0.6182243909527081,0.5683242535744326,0.5494415185931714,0.5425381472228437,0.48891436072530814,0.4011629169221389,0.2973228504035683,0.2770418189864996,0.38933562308355363,0.5130264963976634,0.6271007432595139,0.7448473910113411,0.8556798286312932,0.9355389655553088,0.9006793090666938,0.7944389598690655,0.6970901916594388,0.6515981565527835,0.6089382699678452,0.5452098780470642,0.5426504779608772,0.5792912147765898,0.6053691931378791,0.6094178925600429,0.6100239616517937,0.5750254682139078,0.554383057665996,0.5526773813226034,0.5447671138727599,0.5084843009524285,0.4702332408953036,0.4836897512808904,0.5478144654349038,0.594575879488668,0.6245207872301006,0.6973100788202689,0.6692423113784409,0.554866447412643,0.4406180995978519,0.3168512196288029,0.19555748329837463,0.0841522723088497,0.0,0.047519888789476994,0.15613183386531482,0.26307789035215556,0.3648754712108264,0.4566276437814434,0.49501218142010384,0.4957113245839473,0.5306624948233516,0.5679098679642647,0.6399669528798095,0.7114224535903175,0.7073777348889658,0.6348731685203406,0.5780312857516758,0.5567057405991189,0.5522572533864114,0.5534862547502022,0.5330574090136655,0.5148593960617713,0.5469266602579674,0.6029053343676343,0.6214902684243397,0.6602085826497945,0.7544426232358092,0.7443139901609852,0.6267562730143199,0.5127420537101437,0.3935823621559371,0.2697182990994125,0.155644158284582,0.0768766196333055,0.1251023762069452,0.2340005468845856,0.3446989801158078,0.4449585057176213,0.5067793743094144,0.5060409699458752,0.5294352154944071,0.5767639591046834,0.6401817283335167,0.7060465413953372,0.7075592030742905,0.6427434591561321,0.593369950380648,0.5714099494105871,0.5678930545249656,0.5630553992699929,0.5382845820219413,0.5158272561981874,0.5459060697454445,0.5941678635422849,0.6051189234107781,0.6329510161437999,0.7311461934159076,0.8135433401845398,0.7465379922313531,0.6242781774448396,0.511471869610824,0.39056335044165724,0.26975196050695116,0.15862384639473337,0.07933627542326382,0.12214567284436617,0.22854787657826225,0.33229347345996096,0.4319564735805441,0.48183333591838506,0.4982418503823456,0.5301204650260933,0.5894285584488386,0.6570522386582551,0.7254209757572956,0.7201160861282916,0.6528808905149694,0.5969510771743005,0.5776357414253956,0.5678793114629483,0.5793940826040407,0.5639312568455659,0.5292000402043953,0.5077635889834928,0.5454906921307967,0.6062919818993038,0.627546001809741,0.6799094176363489,0.71725444183887,0.6251616547759382,0.5081197554740733,0.38413712634245645,0.2672251774204599,0.15209183754785682,0.0457596476264599,0.020191037385747457,0.11000504643872544,0.22010540443289184,0.3322619583388762,0.4381290393220545,0.497531389953374,0.5152910855160155,0.5376862569631267,0.5968002637589813,0.6662153860321443,0.7375250679791496,0.7641888928443592,0.7021660006677144,0.6427341962943083,0.6058368229811903,0.591758959220773,0.5940891370203105,0.5735506146857658,0.5440591135626898,0.5207577372716359,HB
0.715410301549694,0.7155361352039504,0.6590578047439202,0.58023477735542,0.5449032955168178,0.6168637967467498,0.7037865118834494,0.767391767113053,0.8187838282917417,0.8251799750612294,0.7599281712311372,0.6401133050266479,0.5035456173177497,0.45649239146207643,0.6007245106101942,0.7598016216267434,0.9246388487111625,1.0,0.9080035995773095,0.8338395956330134,0.8623042563146592,0.8273952306770553,0.727567076599759,0.7366715232678223,0.7894155186216212,0.7974563587362473,0.7594234621166809,0.7251291764565124,0.6761312875307217,0.5614304067301967,0.46251762199853186,0.4700838641116558,0.5649254914972199,0.6581366846417556,0.7210333891688769,0.7582716018546467,0.7767078852004925,0.7448884781928058,0.6302882414673889,0.5374179706201296,0.633671580994672,0.8041785250441631,0.9274725843739615,0.950029550651311,0.8548174855007824,0.8138833876049638,0.8406511922697204,0.7820224389556119,0.7373295106439581,0.785139611804861,0.8079283316506718,0.8106415819428223,0.7851705671506712,0.7874268197354022,0.7060494791466114,0.6101146601985299,0.5287082250139012,0.5640686591303918,0.6528806363536619,0.7441709919590984,0.8091521227534058,0.8310746648063887,0.8083445669468627,0.7309847650367018,0.607110145410195,0.546050287035249,0.6836239312046803,0.8408956094042095,0.9808065522398639,0.971993490711407,0.8494840495681748,0.7794854673576772,0.8102952335314892,0.7636855055677954,0.7036131010660167,0.7317966225147954,0.7372070403358739,0.7584366447389872,0.7621030276609693,0.7096401654857925,0.6181430402372436,0.5749191356016756,0.6152621994366538,0.6950806895469093,0.7654143554594137,0.7895012753274822,0.7961084050174065,0.7183958124788106,0.581571362510926,0.41991845537646144,0.3531256137335066,0.4879121525087715,0.6463029159530382,0.8112832690056848,0.9406421904664892,0.9270612414061548,0.8498252353948175,0.8825135857079767,0.8456272167176264,0.7650015952452209,0.7591529515320712,0.7908995717016056,0.7581838776478653,0.761937558774294,0.7425321601377934,0.6790803462120909,0.6042495153104652,0.5258795822920241,0.5060096027476821,0.6050636463383738,0.6831879612426821,0.7365701934578563,0.7537502167659573,0.7470754103090025,0.6785041315207394,0.5571145593523421,0.4886238765880089,0.6193446643009524,0.7833923796463882,0.9342762892620327,0.9723753344262462,0.8565663861213677,0.7269733773588083,0.6711261872631518,0.686538508199142,0.5868923658829432,0.46145660523001863,0.3735153012434469,0.20672220202084324,0.049430320165321895,0.0013448513273690565,0.06626392422661098,0.22816226558401853,0.35754847285855007,0.2849911005112902,0.18308110828425495,0.04766390441652435,0.0,0.05328560491182044,0.20983143877100208,0.37649981565891455,0.4908366215779951,0.6011128829822798,0.6402890340142715,0.6551277830211237,0.6223099985695,0.5459972057303344,0.4449771478069864,0.3650476346252334,0.36324725077469644,0.4603350860955686,0.5459645727908251,0.6207935811695067,0.64593131107726,0.6575560629481396,0.6292890039803609,0.6638758267886002,0.6457123665582971,0.7042346091490215,0.7647521587451349,0.7484674636113091,0.7347304273556219,0.6192205179506853,0.45145131094603475,0.2922474289657524,0.15652255237373147,0.13730450893734858,0.2586401406471688,0.41039109155916265,0.5587691645986235,0.6827816427866669,0.6902647660391414,0.6802331538642257,0.6579935822756502,0.5672218992795335,0.49981057488956937,0.48137020263314545,0.5366725749395775,0.6285776040997981,0.6894135141049436,0.6627962396994986,0.6646724512915982,0.6559417760896444,0.6145303479627322,0.6314536237691186,0.6824565041923893,0.6724975227361956,0.7094295205220673,0.6111094823260435,0.45011259217637933,0.32826705865187256,0.30710077262539803,0.43471114552550816,0.5779168817972162,0.6956019775960014,0.7473975626660803,0.7341828810969631,0.657526278008465,0.5650431655851058,0.46966949971189953,0.4281083170228275,0.4791043880100503,0.5815016821678647,0.6743952139228719,0.7103728086148866,0.7181511224386572,0.6870637382357154,0.6302448770144573,0.6520193155261866,0.7156508030186224,0.7157614520089703,0.7108369177612461,0.6924985798833845,0.5501561129671408,0.39317685487849063,0.2943007232903194,0.3603208398265747,0.48266948182811653,0.5996619772078455,0.6589367067124501,0.6459918070868698,0.6162572486602667,0.5332481320107161,0.4409699947434187,0.35998781899796173,0.3677657060578303,0.4631330430080616,0.5710868363161539,0.6253049451722812,0.677621650879348,0.7186154095326494,0.703589038693627,0.6388233347622276,0.6179532143218447,0.6964086100010878,0.7424797264262653,0.7459279213868921,0.7590258249542527,0.6469959077678515,0.4885847629354849,0.33407442441212165,0.26537992440112657,0.35478539372732243,0.4990788116224998,0.638127653431372,0.7323236546582548,0.7212725360459311,0.6740980324733536,0.604429592554796,0.5191999047759985,0.4371924280568038,0.4533436296204405,0.5418980303102665,0.6083720349320956,0.6303504431666496,HB
0.4869393532621391,0.524905430133038,0.5812439134935046,0.5944498836207064,0.6014725649848582,0.5909255519644541,0.5303694448477376,0.4851383956859836,0.6380485512795229,0.8227612340688024,0.9815099214019822,0.9779846573523283,0.8199342730202144,0.7186753277830977,0.6931303484553748,0.6960091560179986,0.5839572129408861,0.47782241210709575,0.4002507946797822,0.3622890057673356,0.44342814485979165,0.5234370406621007,0.5299471695904794,0.5299579283022613,0.5299579283022595,0.5298298060982303,0.5154967981118519,0.4809161662775212,0.43466377635614606,0.44123305541022795,0.5051616596792572,0.552264003737009,0.6085591372081041,0.6433767651976909,0.6457674005718079,0.6608149710735338,0.6212978442186596,0.517097034638895,0.5033840622399053,0.6684291020553426,0.8508352445609617,0.972259241257591,0.9119023575859817,0.7985930494557207,0.7534068745851554,0.6859625422135887,0.6041734812754456,0.5231443211897968,0.42608948022537785,0.4329944014207303,0.513673110412225,0.5617432893509307,0.5530516900143398,0.5674520576685911,0.5762330829268167,0.6040415397758112,0.5869361033913281,0.5552338032376039,0.5076410367603525,0.44269075061400986,0.4230285895227297,0.4571412380275124,0.5132002078297635,0.5321230677358395,0.5672790453720227,0.5933094612029466,0.5895387064411572,0.5582272658254768,0.47586303643916583,0.52809519057553,0.7195379233970893,0.8961009109579425,0.9716933198645137,0.8560918134665112,0.7293764821748372,0.6555414127125596,0.6007606674850852,0.5583037936094701,0.4714931801432991,0.3717382414447554,0.341073466899787,0.4327499510938093,0.5204469821560638,0.5662761350932684,0.5681947223822279,0.5681950997766183,0.5681950997766165,0.5679426879917919,0.5451950348219583,0.4818453107921927,0.4727211161884197,0.5386271094343078,0.6005843142226963,0.6464700517599651,0.6894740399692303,0.7189202814600222,0.7210566862882866,0.7063947061772824,0.6025619807479288,0.4515948503958249,0.51383419418576,0.6975116966243728,0.8822308319849732,1.0,0.9518410108913544,0.825252130460794,0.7977035549189013,0.7797199755792361,0.6844293571167954,0.5610629993131928,0.4822105981667457,0.47312386858076483,0.5618838324144857,0.6491779704639828,0.6434798283628158,0.6091139991235943,0.628114421936945,0.6216583422558184,0.6236719999508047,0.5789096570564549,0.5663642338909884,0.5193312456257893,0.5068547983476739,0.5200011077689588,0.5834485518088455,0.5182666849777107,0.4009733183637696,0.3826753511441465,0.36565255009769615,0.40170785195269954,0.4376765597976977,0.46189008194388226,0.5013507956328374,0.4792039223861879,0.49711106853743114,0.4708864704639151,0.48083369812827126,0.4611949462728555,0.36020116201161656,0.3092263745189294,0.32140427613156053,0.40425020426391534,0.5032004343514735,0.6205961988986033,0.6676479621801974,0.6611476333292963,0.6082146975986102,0.4731195570481814,0.2814283220493863,0.10631070874377979,0.001906068559637042,0.10253228908881429,0.2802528151820063,0.45266678256026616,0.5918749107674373,0.6283673769779936,0.606471078557747,0.5767879100621744,0.5243029199556188,0.47640363471894975,0.41414217427957567,0.35722881380710714,0.3452373351818929,0.40297940333736193,0.4483535398822305,0.4571915341741972,0.44936112698676745,0.4738094801838324,0.4492350862798835,0.4306845300011988,0.3560562037011499,0.24169543651439618,0.18804202068794051,0.2358414099989039,0.33309019739557755,0.433688928162244,0.490909991467241,0.5228127871707429,0.4965978107868425,0.5226158086391797,0.4552466636282446,0.2678210571352748,0.15406040673510368,0.1990816369843813,0.3451477976891617,0.4525873727594192,0.47577007019153417,0.4469578425725924,0.4020812140980148,0.3841276147482162,0.33042537223683865,0.30395984457708547,0.29138930077476477,0.33502769825659406,0.39724192425831184,0.42827877831473593,0.44935089854195454,0.43785606185476134,0.43544472118562005,0.44449425248557617,0.437322809776477,0.4054948989406233,0.32549428374558875,0.2612747767004109,0.31921349849094494,0.4228710039964678,0.5076013165820044,0.58074355982827,0.6188935161017985,0.6063201783313605,0.6405155536997427,0.48708676275337925,0.298963259577679,0.10804869397063843,0.0,0.09499100023540219,0.2672681882567023,0.4269781005496025,0.5227317476048272,0.5472011604594655,0.5180499796003648,0.4906702611465583,0.4428372111453589,0.38881190117375475,0.332392260213382,0.32625809033091535,0.35933107215062243,0.3913818388861383,0.38617370031695764,0.3997168323333584,0.4076647185446687,0.43588482058699807,0.4292929998748418,0.34376461208367726,0.2594190647405412,0.2201881194703592,0.2937147633655215,0.35839430219756707,0.45301992651885126,0.5532368559257899,0.5527171134730242,0.5072809695516902,0.561445208929217,0.5929696116430456,0.4156719073964119,0.2505387579586227,0.18865395264749552,0.29530401074138535,0.40596078474829156,0.4702714184959369,0.4779956361038691,0.459405182810654,0.45221113597471874,0.39480769219490597,0.3524747924355971,HB
0.45572469886688727,0.38146317530406537,0.2809313329202403,0.2741875313805988,0.4028646065572181,0.5361038928432971,0.6760524871280349,0.8030929356867758,0.9132267690612477,0.885301970084764,0.7636861805554969,0.6391887902408964,0.5460975097759782,0.5104556234493469,0.4703218613308924,0.4564023699324211,0.49489446676852933,0.5224796204918352,0.594120273656259,0.6923750980894907,0.8036378293506041,0.8687087663426685,0.8209473904746989,0.7210716669399326,0.6268129869012442,0.5491617142431477,0.4934578702305965,0.4298698373430787,0.3282238624238516,0.2599884348982491,0.34755020380004287,0.4807999733643984,0.615952276030735,0.7484189720940739,0.8723655672352695,0.9169025139219242,0.8156414172271449,0.6872641445796386,0.5786766606511289,0.5305856114285292,0.49363005639393065,0.4461041582081917,0.4762955795750534,0.4912672027205127,0.5265319676411695,0.607767110886895,0.7135549098995531,0.8041584299493356,0.7869626041700164,0.6959880034715791,0.5956052920927639,0.5165669572961116,0.46370284834170117,0.40743369829459497,0.30549086997912966,0.21637494177006888,0.2843190366103936,0.4234452037099945,0.5570757673784537,0.6963571375567195,0.8136044588648936,0.8901143078956248,0.8358429193146828,0.7098494247440092,0.5960680612487759,0.5497285954048448,0.5290750898558245,0.48582782302622607,0.5011790330396508,0.5322148517940557,0.5712163987092664,0.6503875782582875,0.7512556922167264,0.8421042349359829,0.8392493656211177,0.7549326876897313,0.6570077957599831,0.583880268053312,0.5293065002437378,0.46551139066820757,0.37040993579105375,0.3460848433319439,0.4683693953777761,0.6051348737916509,0.7409771538489436,0.8686786999612595,0.9711709855229336,0.9478725142673758,0.819055566542856,0.69158698086522,0.5968503945713819,0.568701482797856,0.5244114593366069,0.5279387836447749,0.5478248261724621,0.5506569705377451,0.6224353559964093,0.7245435943423988,0.8270513113420901,0.8844222087700169,0.8303946070222314,0.7376064511498976,0.6529481871986544,0.596875069153054,0.5468855609421646,0.4651996837344712,0.3729399552290207,0.4213035906305185,0.5515281656206452,0.6915752003955047,0.8228565171404225,0.9457882183949098,0.9999999999999998,0.9073813348453947,0.7765144532529813,0.6531266055626925,0.5932761378180158,0.5540791823904729,0.502370791777458,0.5360331985481686,0.5613357655136626,0.5989583012707633,0.6878945029969457,0.7951454829222355,0.8967546926313725,0.9212186492558543,0.845597148945983,0.8225404945776862,0.8410371003862112,0.7530070628211745,0.6631347659002043,0.5755197995381585,0.5210445561252974,0.5014857927916145,0.44946026823877117,0.432830968565882,0.5053529469102604,0.5512688617409982,0.6063383228228576,0.7145935242559249,0.7940559484450052,0.706601921363277,0.5722689547767204,0.43683437435487726,0.3003228356007026,0.17763093191547852,0.16539002984527484,0.27161541977949244,0.3852000749263691,0.4858699549548924,0.5445512923448941,0.5936157784453397,0.6687918728186923,0.7587861983319997,0.8027650880922026,0.7207655026031425,0.6196130362156913,0.5360294875818823,0.499305437175684,0.49203653360331967,0.4444291461223606,0.466303800858338,0.5233787925301321,0.5502093795847431,0.6393783857188355,0.7627428346988181,0.7984654641628064,0.6995376925349788,0.5693338757758764,0.43579366123416974,0.2952692799938761,0.1698358805245268,0.14056619276797488,0.24243727324191755,0.35025669720345953,0.44639438479915206,0.5064728262402414,0.5643638290676145,0.6445902702681503,0.7378768143934209,0.7905540177354207,0.7102996438388256,0.6105626580504702,0.5319485307922267,0.4903111837536127,0.471714149510434,0.4248636032052031,0.42315112345937833,0.48416394469181534,0.5120460899988533,0.5768305958668891,0.6938014098091483,0.6820461985732174,0.5537752938170091,0.413917619321748,0.28002330477901594,0.1422647926716334,0.027220301192898422,0.0,0.10098824540370743,0.22666433703986955,0.33534723770604224,0.4106567874914011,0.45926841507403604,0.5262462405209154,0.6221411667487879,0.711550321216434,0.716059404173168,0.612253461564819,0.5161533923906714,0.4603981663154195,0.44227634910566915,0.4111998692597425,0.3654613291124915,0.41386598564013766,0.4779198506011306,0.5163138331804766,0.5954984708439846,0.6845150467187444,0.6104505504030253,0.47782917155518745,0.3383752104918336,0.2046471384049402,0.0757760770032132,0.05031388975909845,0.15299141855360854,0.2689266986754306,0.38048443409230814,0.450210278583149,0.5030659922715739,0.5732564064625232,0.6672426022668183,0.7649886392107568,0.7795667911189483,0.679924922426878,0.5730906546499972,0.49631959831563655,0.453941010692849,0.4254412980446418,0.3773302825115612,0.4164614768612702,0.469137876307703,0.5066092141129259,0.5931906854506324,0.6957280202134115,0.720014575292039,0.6045625828234906,0.4631035829766874,0.318978696436399,0.18527061684783086,0.08743233570306441,0.0896275886116411,0.19341613538155777,0.30253793684268726,0.3965103589905865,HB
0.7198902329711445,0.7784960146588222,0.795441224748314,0.7998199402917994,0.7967647356062928,0.7878423472507197,0.7483198562274311,0.6504538747256867,0.5271219425559779,0.4302391150576419,0.47754228285928146,0.6091589648862747,0.7431529814917344,0.8753430002903233,0.9769490114771853,0.9351274238458118,0.8194462167920924,0.7503494199417626,0.6870513047316238,0.5861708631874438,0.5469223851236649,0.6028450044366558,0.6637646442164571,0.7051815042597758,0.6931519072975947,0.6811445336930104,0.6826177659962052,0.677106514204215,0.6634288853369048,0.6820234026933258,0.7450852584773955,0.7851726783631658,0.7926016330228132,0.7994808621413103,0.8095161409989933,0.7720595790089608,0.6932794477711255,0.5838792099156751,0.4679002039201605,0.3955896156903278,0.4940892826227228,0.6403461345316273,0.7868478149577007,0.9191835249276203,1.0,0.9472328088917514,0.8272015655656779,0.751086780106395,0.6802903733498518,0.5968212574269272,0.5601925575497329,0.6166086981222816,0.6784243425172667,0.7175743805327066,0.7080984731017139,0.7309937189222904,0.7136662201434225,0.7182679891609705,0.6914938678021021,0.7107680535375822,0.7573222178781625,0.8327301024724449,0.844700627864226,0.8528103079395142,0.844630557077616,0.8571091395648414,0.8036255690539766,0.7590198818847651,0.6453349298954625,0.5497313044185117,0.4312254772154325,0.3206466667946146,0.38084041843293237,0.5157443553547809,0.6532465288507998,0.7899512328309859,0.9138012598716165,0.9554910312887213,0.8629989729601331,0.7781062466539583,0.7195337462781977,0.6297267742250914,0.5631117949462356,0.5961234829897859,0.6682003530925926,0.7354254374231957,0.7872284886331116,0.8054947419962875,0.8021929816223272,0.7447203920075101,0.6735162778217916,0.6143997301833029,0.6134265945234372,0.6596297035734731,0.7327270893077755,0.7908373951170184,0.827834022053767,0.853546115298891,0.842241135523075,0.8181084827831926,0.7435379511830709,0.6373049249185216,0.5147975181071351,0.38863082349789924,0.3756633635630955,0.5095835742847652,0.645116905212396,0.7842932338435333,0.9240604206238836,0.9880610065691591,0.9197094792804519,0.8181375764575933,0.7375993153152489,0.6684502809275514,0.581749514807155,0.5183207802182381,0.5503891206799105,0.6173017071390885,0.6725925725540511,0.7090898022293652,0.717517103796546,0.688223206233757,0.6976688788983849,0.6881585900018261,0.7037391722788167,0.7483928482585154,0.8048089949507369,0.769699140575745,0.6929170933501418,0.6281456849206024,0.5950008946330239,0.6091784292452269,0.6139177236678419,0.6118285045181282,0.6217387184620393,0.6073284002348802,0.545822179680465,0.4787833799704231,0.4360419333453063,0.4759829032836187,0.5587025142477371,0.6433167400419837,0.7103268349648144,0.7443048329705548,0.6352117014333643,0.49895565020895516,0.36111795826053505,0.224596532344556,0.09210669663368254,0.03772565088373536,0.1273152582291277,0.2532001141173925,0.38547171702773,0.5161122734232113,0.6362241104278814,0.7295788670859653,0.7647116058784511,0.7685059762333379,0.7406289790126763,0.6977366848027375,0.6279025611938001,0.5577894059525654,0.5163122914146356,0.5292160628255251,0.5870568317814322,0.6594118824606636,0.7151194061291113,0.7208864785098221,0.6867441947621642,0.6150196401785828,0.5376200588314655,0.45600937561599597,0.46427745849128454,0.540859443260552,0.6345517042380373,0.7039109466714808,0.7271302831649527,0.6397911060475177,0.5003411299101739,0.3668249064812388,0.22600281048851567,0.0957749783494708,0.0,0.03834938835072288,0.16226057099836222,0.2943613864931076,0.4373797095786345,0.5619960582551027,0.6723317712962564,0.7377261235158841,0.7620963909425598,0.7826224752347692,0.7644375332963946,0.7041726317146915,0.6384265462978416,0.6091883915807217,0.6079401437553758,0.6385479127788973,0.6397265364954565,0.6325236918791743,0.6437459800499634,0.5841030149192954,0.5264524141277662,0.47647172905007684,0.511943305147947,0.5910335374095084,0.6675004583458279,0.7265248257116772,0.7147049084651913,0.5861653008671408,0.45165189508868897,0.31437668675033503,0.18795461818519144,0.08294395791834175,0.12669621688599975,0.24643045345149917,0.37919902210054435,0.5017071316352766,0.6131789763011986,0.6982028482369769,0.7121273593601218,0.7159302513922632,0.7232310709913472,0.6942097852668381,0.6350882895380732,0.5755967001901987,0.571981645363528,0.6050350778488127,0.6028894491817804,0.6106359122166971,0.6138921312807488,0.6033999595242547,0.5638830664344847,0.4995185056117508,0.4615457302137549,0.49394521186395846,0.5842010073684261,0.6704691412072679,0.7262974783925031,0.7201168051092148,0.5912194378321853,0.45735027990874055,0.3216113209076572,0.1916075862602944,0.11140844752186219,0.18158520803959677,0.31180442975377876,0.4451631862740073,0.5651258205833893,0.667878302723913,0.711939375141116,0.7209692158724619,0.7197079485185021,0.6938334849995726,0.6298715078065373,HB
0.3290952251333157,0.4253577972294438,0.5175270847850699,0.6080833786758464,0.6687254020552911,0.6765021670027114,0.6623057130984629,0.6288681813007884,0.6041777503118926,0.6109045496777692,0.6381127461928027,0.6210975848735654,0.6175869484857985,0.6433048572015743,0.6722511272237814,0.690733894318488,0.6920092667443352,0.6984240346124269,0.7517293591459437,0.8562400799688441,0.9541119707549952,0.9449321861716116,0.8459915408727428,0.7368013950829915,0.6185453123811295,0.5098656847126284,0.4581157175443695,0.5323157166938906,0.6197164242312971,0.6739201377283659,0.685446191315553,0.6724007985693556,0.6381705250319971,0.6111528166792031,0.6143914684745377,0.6392249759267199,0.6542701094116921,0.6338347885624409,0.6470687004284241,0.6708789065966103,0.7060500180355436,0.7121242741159155,0.7161641558097234,0.7323698326397095,0.8174571583498143,0.9201076731748845,0.9688196900471318,0.8983853796718968,0.7936123803084802,0.6783023330176641,0.5684658923662909,0.45556095846998446,0.44757194326049365,0.547608601659737,0.6401733063424406,0.6966954028572805,0.6928173960165158,0.6625612418543887,0.6196436070850981,0.5664013718779817,0.5168618545977699,0.5383951258253128,0.5907986118572155,0.6054140294091526,0.5861444739797284,0.604967153827185,0.637401732386325,0.6509011535640066,0.6661223199363064,0.654169730984862,0.6298250120024913,0.6705421013607036,0.7663042343161597,0.8462671538368234,0.8142789966312445,0.7118192786396009,0.5970843740512133,0.48699226141433005,0.3687708525138875,0.33560894506352135,0.42038729025788824,0.5062960080240777,0.5806782505292292,0.6047600529097656,0.6081838167086993,0.5916181942033525,0.5749438248995284,0.605993748198713,0.6632356793286145,0.7064635142373237,0.6887604304525854,0.6666156847285558,0.6766041260710915,0.700063662112937,0.6986364824181055,0.6967845959308527,0.7029020969407243,0.7490178253130564,0.8445881300667653,0.9466625247211309,1.0,0.9351868619029173,0.8186536822201944,0.6970055986553421,0.5858930092106567,0.46866501354534584,0.36703558008261616,0.410372371529522,0.5015942518586054,0.582175037118601,0.6534768007502643,0.6881254200948685,0.6984642419974478,0.7192437279042778,0.6795499500816051,0.6585609621519506,0.6621052306241846,0.6969340496471736,0.6896163156426303,0.6686402242360407,0.679625474255686,0.6974067390369871,0.6556253438550428,0.6169163269783873,0.593040657152986,0.612706723631772,0.6224627388510657,0.5811773619732432,0.5838845278850067,0.5956611630529656,0.6264326099501725,0.6507217588592349,0.6275284634396607,0.6136999030703256,0.5471416174486015,0.462764904847881,0.36599398085825063,0.2555896185076838,0.15484216354689995,0.10127347807835951,0.17611883091617697,0.28691084010118884,0.408597457195619,0.5242200445164835,0.6367309096060296,0.7458096525889828,0.7291980642661091,0.6555799095210602,0.6289524780400431,0.6391759960078889,0.652203036471596,0.6392222390258264,0.6153516469015297,0.6089139074107508,0.6377128966878827,0.624773805431277,0.5665202076998046,0.5167381801847868,0.500054017593238,0.5360576779347985,0.5450915184968652,0.5413974794119962,0.49018702005308024,0.4071622020266843,0.3127962954176273,0.21007673381699776,0.1015930659177644,0.00026374071016377343,0.0,0.1029300367299073,0.21817016362707164,0.3305818926625226,0.4502096832995064,0.559656692468486,0.6507898283797666,0.6088934672998687,0.5642317301379487,0.5650235165812263,0.5870780533493867,0.5916172171639174,0.5734969734376931,0.5478738329356414,0.5239812529500072,0.5468847111282069,0.5402330945868816,0.4831198830058261,0.430964865644929,0.45038253813982143,0.4910030958000058,0.5539759861240947,0.596471660532043,0.6235529176762902,0.6165133813267594,0.5395963236747101,0.4438354837519176,0.33732920634070407,0.22799477977756366,0.11484420464777312,0.08284197240110913,0.1730444982804209,0.2858928776041294,0.4074937916557597,0.5193791593769435,0.6357175205485235,0.7453311800689288,0.7307367926220452,0.6686998434518214,0.6530706032370084,0.6456158866584669,0.6466462889700364,0.6090024814745214,0.5794519289570301,0.5757967584392101,0.5889370486929355,0.5834075679638637,0.5450313944672249,0.5546106528319492,0.5513762452310527,0.5958517151747169,0.6224524408195107,0.6189997029192313,0.5639121655261135,0.48485079008323373,0.39528676537379726,0.28028645972371047,0.16905593177013323,0.09683975547390666,0.1506707571083825,0.25731839545721513,0.37636210758754185,0.4896166452332671,0.5918297715583289,0.6738409191319317,0.7353770270517233,0.6841176125191692,0.6411697235846376,0.6375100445178066,0.6321212289612226,0.6112014424815788,0.5768052215571191,0.557447052202209,0.5653481487890084,0.5761710262376969,0.5363857500134848,0.5359739864673538,0.5654051610982935,0.6020257589946016,0.6143023302735093,0.6026404527561766,0.539702438258931,0.44838685218777474,0.34360907404185337,0.23061665729396985,0.12124388338894265,0.024829519465271677,HB
0.46228974031669745,0.3525329205786236,0.3243379657176475,0.4461968981819213,0.5868514926735187,0.7359419157286404,0.8731050427900975,0.9241011128794336,0.8487465750826102,0.7945535509445705,0.7570175184046541,0.6819702582905265,0.6353113636174084,0.6638632732874723,0.7201194792634147,0.7385527398144007,0.7233815722756063,0.7335025911065314,0.7611707054343197,0.829370213488239,0.8960821917803674,0.92232741884487,0.8811313360340876,0.8269195957024182,0.7987119728642873,0.7786161284039781,0.7761052712459904,0.6966124274539207,0.5829595989269816,0.45957366863270943,0.4007851146676269,0.513504023045392,0.6493887683123747,0.7900357936467768,0.9025740561146454,0.9050549296020698,0.8352866345735501,0.8204511715939038,0.7583935624796809,0.6721518507294268,0.63653103912542,0.6843299119390593,0.7249695145866655,0.7460364208075627,0.7324396626607101,0.72987449723336,0.7594437064594293,0.8151191758084817,0.8952092579923754,0.9648396088161566,0.9864953608418681,0.926117098488966,0.8783101878779118,0.877022478316313,0.8658832424011362,0.8116965475062305,0.7106901610558727,0.5953133962639252,0.4811880986718111,0.425829673076318,0.5389550290957015,0.6744953593146574,0.8152380604293086,0.9325225017899577,0.9195232253721093,0.8462864365751206,0.8124569187771464,0.7473829044514333,0.6875075381741009,0.6927172072187244,0.7635238821898009,0.8182597164679781,0.8156183842336482,0.7976990204731793,0.7845106422149599,0.8037138383213254,0.8869314989287154,0.9396512593321158,0.9227179843669573,0.8686541906100906,0.8307627409720943,0.8095733522736679,0.7828148285020027,0.7298120470796086,0.6252323119032841,0.5098293121358441,0.3796672896985709,0.310165416810968,0.408852377699469,0.5530915682521034,0.6891017149862417,0.8226627399108444,0.8710415310023825,0.7856182594702408,0.7275067719805803,0.7030138086695805,0.6336131445975837,0.5780644024090664,0.6189967092000712,0.6893100489065382,0.7539867802897766,0.7721172179987108,0.7631695389805948,0.7695503857449766,0.8155894066758687,0.8870005811311037,0.9663603134476451,1.0,0.9569595874213452,0.8991623939551752,0.8775317983146618,0.8706619189309226,0.8172767376881951,0.7282103651213521,0.6127758544915554,0.49864776344973727,0.3966581945489538,0.43786712357535107,0.5628412902284308,0.6451825614425961,0.780504820569973,0.9112402966225703,0.9848248001827753,0.9069957251594358,0.8176186573561526,0.6951289480762437,0.5710268765590105,0.43494275789744563,0.293256625905288,0.18783574440874817,0.08961084505082395,0.12457238553793726,0.2152498978287345,0.24405344482227465,0.34304922297093476,0.48893779136939,0.596823538566845,0.6985206903229111,0.7694498416676452,0.7883608448560104,0.7996532614387659,0.8479281082376313,0.9074203948021702,0.9094375448648977,0.8305845408118908,0.7559183623086234,0.6988546582821535,0.694713447855996,0.7050686126450758,0.6952014098263062,0.6355175532995019,0.5661879206802101,0.5077916375458567,0.5235323084186172,0.5946154415130276,0.6529976895162113,0.6804448988109635,0.6276078757009853,0.49725088924038774,0.3547892364660026,0.21963232180465697,0.08397519521162211,0.0,0.07895651618496169,0.2150919533486455,0.34022454410500247,0.4620980303949591,0.5763070902667744,0.680673484317273,0.7324212521333906,0.7599648849389147,0.792305692494562,0.8391312512574514,0.8718800961295918,0.8158703692202609,0.739177343867222,0.7159937982075326,0.7279249809550752,0.7534921492835243,0.7551889117999022,0.696469580633027,0.6235782084346488,0.6036502216301605,0.6577254045347951,0.7210409586478828,0.7547051118974486,0.763337537549754,0.6836151866020161,0.5388806439262113,0.40416934683884076,0.26488803354731694,0.14741187900415786,0.07817327893552939,0.16150137367364747,0.290647264974905,0.41720482713409,0.5349483659441234,0.6559070002199503,0.7600559060142587,0.7992639682542211,0.7924157235347735,0.8104933901854041,0.860703556674097,0.8895885135993216,0.8331165209607683,0.7468705881698834,0.6913637834703579,0.6560439478194113,0.657318289161553,0.6728696778587784,0.6566082081188265,0.602272798396299,0.5616868385544298,0.5887617789821289,0.6638302089295953,0.7434402391504453,0.7632975954345693,0.7435055087373503,0.6134619165237911,0.47731920580778375,0.3364064338597639,0.20246553422730562,0.08114357934688154,0.07997283890412143,0.1981363733932815,0.33695162825244784,0.46148944896506494,0.5738206381693525,0.6763442328065223,0.7125303030564387,0.7276559434793026,0.7633191783572721,0.8125706715208234,0.8495291196123129,0.808634088182024,0.7330485812898742,0.6824378345046012,0.6647122699834158,0.6544394878640878,0.6664615191697321,0.6677304040333101,0.611746618956492,0.5731899360202979,0.5963962907950271,0.6629380429033667,0.7207118325080475,0.7426983758544834,0.6847313436215194,0.5509504672489083,0.4057015667463486,0.27073721856817734,0.12878734659909563,0.007362388908134676,0.013665087178047486,0.12524158053783863,HB
0.1557462216191574,0.16086711542594756,0.1811407373599936,0.19868184823155755,0.19092723178384885,0.17466831172359942,0.17442558876479053,0.19344189992367689,0.24405015755227666,0.32318164728600385,0.41926121552639684,0.5241004371623896,0.6291068750086879,0.7144268203016573,0.8070079528008107,0.8900156097466958,0.9776102738612469,0.9444429847634379,0.8418923566175587,0.7347358604782186,0.622401114221673,0.519377913771546,0.4139236205962793,0.30929810590202855,0.21657242812796573,0.19621233567245389,0.17687792426001492,0.14124266698629517,0.11528546391875016,0.15019533938010854,0.17069934092412486,0.17310734697018315,0.18490411343379387,0.1894930577592393,0.19784624875836476,0.2009810372978209,0.21422250783707453,0.21439150504724358,0.20502505330888976,0.20967662076643467,0.2452535603722512,0.3178493297123337,0.4089082491596745,0.5075563154308624,0.6100506036433191,0.7209188852748674,0.8242431607546754,0.936647618318287,1.0,0.9397294887667176,0.8317291020513569,0.7227704402198456,0.617172386198376,0.5087708100636608,0.4047498484435885,0.3026375814079496,0.2185626658469717,0.21280071570356407,0.19324451854932434,0.13807770156644583,0.10707474557595953,0.13342372423403104,0.15213080214959795,0.15353466366617763,0.16344836473987145,0.150492904655378,0.13265534982543858,0.1266508361963572,0.11602781321606326,0.10215879495255198,0.1065785710119167,0.11457105389255329,0.12107686868185841,0.15337884123215817,0.21951636605757363,0.310171265713743,0.40384286510818246,0.5030006608858533,0.6131339531855313,0.7280769401548506,0.8322377310782128,0.8899426322230015,0.8288474715071135,0.7414343892046675,0.647110646866158,0.5331622098291815,0.428466603209698,0.32173213548554846,0.22210887728317363,0.1526844489512329,0.16198112488821304,0.14619243389609338,0.09424757367965331,0.09072798934724169,0.13796673372543777,0.1636218786975907,0.1636148530332302,0.16827662878789384,0.15816153476876949,0.13759589283306983,0.12373264563999342,0.10966497969663669,0.10612206230700227,0.11237707782522355,0.12514078187125355,0.14643411536293804,0.18090445155487567,0.2466343220583358,0.33440751072559616,0.430515814524413,0.5342273169704934,0.6482678024378714,0.7525220939466011,0.8607309532328977,0.953303914818282,0.9548017299516229,0.8575146577575863,0.7446351678315084,0.6415917336758681,0.5289022228883704,0.42467059670670215,0.31961067167753,0.21903755461160568,0.1698364689080476,0.15093860631494627,0.10290071573326864,0.06688587907834309,0.09953173882062583,0.1330385718300735,0.1341684838073829,0.1389614442632312,0.16579524066699625,0.23447751931143257,0.2369131751847764,0.22682352540492712,0.2203522257361974,0.17975356401971299,0.13627432072385215,0.1436582535902824,0.17186365694123618,0.17512082096204207,0.18114859131399408,0.12478093179762029,0.09048632037473858,0.07389295328330281,0.06406382116266762,0.03274360733271431,0.009039061559727113,0.03659815136194222,0.08776274277621443,0.08213860630800118,0.006089479510447582,0.00746845456052192,0.09292160073235278,0.18999594898396932,0.2913647654871685,0.39582396673042197,0.5031479417645377,0.5851509609485115,0.520991619730228,0.42380741195212757,0.32739806278622163,0.22884019129670996,0.15399222705295523,0.10703711209986899,0.08901510356343234,0.06455411889390028,0.056309762639649374,0.05160777287453877,0.05736652409298326,0.06810781249917719,0.08173202904948029,0.10425253063434958,0.11470764194916327,0.09943030212205395,0.08951702024921282,0.05349476003997511,0.024615839615764745,0.051233760609651124,0.09366893741202587,0.055004112694370555,0.0,0.05573426428187078,0.1511289580915265,0.24954750745823695,0.35028740164986827,0.45375239838965475,0.5360460861187009,0.4715170549831824,0.3748446465976554,0.27390241628842915,0.18071321256613615,0.11671634605327208,0.08163896552942207,0.0633186978429432,0.0546508547028588,0.053933433487479476,0.05786529832073084,0.0761158455137636,0.0789399978082419,0.08817808613282896,0.09939512223420133,0.09507039750582491,0.09780301421151982,0.08147713306932758,0.04722341104112315,0.050406319737639205,0.10898535712034763,0.15033884502402906,0.10615309955937269,0.0647913283049939,0.1284974190337289,0.22417207062756805,0.32368905499334444,0.4274761931423483,0.502694988624957,0.48170556915780205,0.3753060978056997,0.2828772656397933,0.21047496790271536,0.1684453130761372,0.15011527098981148,0.15434456901156857,0.16400105781400676,0.15282532363418877,0.1437396178220567,0.14163830871473326,0.1334674793659878,0.13168332311023656,0.12243951549625054,0.12326332471427959,0.08719562927838709,0.061701667476585786,0.07981048862311635,0.12471844995788173,0.11577068514272959,0.05373704959819969,0.07839668708757142,0.16829403234151652,0.26786217160575365,0.37382419233357256,0.47583548878153303,0.4846938298314769,0.38485432228446603,0.29355060685782286,0.21644663579858392,0.1567513966590912,0.13394760462732425,0.1296615207400964,0.11513770262837397,0.1393839483745687,0.14620116814848094,0.12794213029372425,0.11236337462176582,0.10092845562674047,HB
0.8409938021543696,0.8576663782945851,0.9089743484282763,0.93911408436409,0.9400677464298736,0.8801676352196787,0.7831311255260519,0.6838964872256824,0.5820760165307516,0.47590827934274615,0.3759393142783162,0.3542466746057157,0.44863246316159977,0.5521576109614074,0.6581435544789053,0.7610331886946128,0.8611100198183949,0.9547149013962678,0.962955046918491,0.9106898345868414,0.8603369112083131,0.8306847764721873,0.8679814824346163,0.8775619327558596,0.8696920419118003,0.869993663931648,0.8484190590733424,0.8488110479760608,0.893799395189295,0.9327988846223095,0.9434672434773833,0.9039906693106207,0.8171509111518361,0.7144237987952494,0.6122287062343116,0.5085455198471186,0.40537969139534635,0.32433881245867646,0.37689899036752983,0.47819920989361664,0.5828877301939844,0.6863787699748926,0.7904094592256138,0.8918640139417712,0.9734443561932579,0.9602335035245629,0.9051433314970928,0.8473270819121411,0.8180965119037374,0.8572383981328947,0.8720323455609763,0.8686843028698931,0.8637246270063087,0.8420657889229716,0.8596779521971373,0.9122483453181435,0.9512165350258178,0.9561635227129922,0.9090244024997457,0.819083886091064,0.7205721905293613,0.61965496407561,0.5153556977427584,0.40498298162110713,0.33401402463957963,0.3991838976406058,0.5022755776968443,0.6087412570688565,0.7134420193855772,0.8140538060931662,0.9003152022130997,0.9857863285915308,0.9871814875147525,0.924507965408843,0.8711032199252254,0.8337317343901757,0.8574801646035853,0.8626575913982678,0.8488862350374128,0.8358408506133465,0.8083112097954023,0.8195726899057528,0.8702241854165268,0.9105575677186878,0.9394093984536233,0.9091407450822931,0.8263783170765758,0.7300287787275522,0.6283119162729626,0.5263567114929862,0.42530597730340236,0.38120111573248716,0.4645523220410249,0.5680426032117266,0.6727697970277627,0.7749148547660166,0.8775668414253116,0.9768682762824684,1.0,0.9387649682489841,0.8851785531974311,0.8431415194120738,0.8589949876323154,0.8787887245422011,0.871865611243935,0.8693416564859205,0.8616165932906371,0.8973520629920043,0.937752635020784,0.9479350531499392,0.9168856895574841,0.837384984848302,0.7493562734362139,0.6601511177047829,0.5588311254924704,0.4747714355516285,0.41363568690121755,0.3338125489963083,0.2258121806304204,0.1238566122336161,0.06605954048281759,0.13266742904428985,0.23473605685450638,0.3419472442135757,0.44538715582816313,0.5412192152631691,0.6340589598896506,0.7335739340362623,0.8294414973956427,0.9021533599438948,0.9116770942593418,0.8802552727713605,0.8382350898560155,0.829083235215811,0.8371019635344351,0.8373113258878112,0.8348560767548184,0.7934734751500273,0.7882158923010224,0.8417575834087049,0.8928317925339314,0.8821315591948892,0.7910125267929923,0.689074762161146,0.5844725119238939,0.47356590354585426,0.36517984903469836,0.2612856942061633,0.1532730337575957,0.06900822430560172,0.09450754274981621,0.19425016900633596,0.2978002832605232,0.4054401225174552,0.5085330466839081,0.6109387329918069,0.7124599948334137,0.816165815590777,0.8922979609439449,0.8870979367681463,0.84865496027791,0.7962677350308937,0.7640097521278765,0.7845633396308543,0.8065104802771409,0.8160033570675812,0.8275077978878717,0.7949225531342351,0.7921347300042997,0.8441618423955263,0.889059332693073,0.8526804090874057,0.7534093050468144,0.6474459274657643,0.54320878014825,0.4390324058804892,0.33595986783558784,0.23095785762754695,0.12387031448432773,0.024168750760810043,0.0,0.08750897281853887,0.19023578128926888,0.296188890381604,0.3994656242486728,0.5075510864804561,0.6105242662022069,0.7131536204059322,0.8108964605340555,0.8977575391478282,0.9244786806922863,0.8958233858657284,0.8441198502978259,0.806660247146541,0.8135544365777047,0.8347600677312418,0.8393632128555807,0.8284246918374921,0.7840020684012171,0.7813546147386145,0.8372824414405472,0.8869563546982423,0.8594644582387224,0.7571920474514399,0.6541148309888488,0.5511866665401591,0.4465551778945961,0.342303704670326,0.23884079375910117,0.13057417105253688,0.03326331268205973,0.021604445620131973,0.10995327068528737,0.21341376195195216,0.320043339656502,0.43120884252684666,0.5407078656043,0.6427148597144262,0.7433223523688769,0.8389038042269458,0.9017630735532579,0.8985895594034649,0.8535143489837113,0.8100819342443945,0.8059698603166036,0.8326141535046004,0.8373558483504181,0.8451033381783201,0.8203507960352004,0.7845102430939536,0.8185328878015522,0.8739460199005255,0.8861989723487423,0.8112713672811133,0.7092333156318286,0.5989771147813251,0.48903364835304075,0.38610940138555183,0.2833322020122703,0.17593178340233562,0.07273610396786434,0.019563315164241923,0.08932637989891357,0.19266853521506888,0.2966137133380137,0.4020625275697888,0.5080757451081893,0.6189781345142106,0.7237049111966732,0.8194400073071196,0.8942560133623915,0.9059774071844718,0.864906986823018,0.8147022885423391,0.800204696324213,HB
0.42405786917325017,0.5516143871852077,0.680093868966166,0.8070663359796129,0.8741210601759772,0.814511431193635,0.7360780624534318,0.6310663806663643,0.5555406329799251,0.5182887847272357,0.4975683625025895,0.5162009275205985,0.5061864293305733,0.4815744415063401,0.4493468767885611,0.42493898240488104,0.4359125651950939,0.46278569176496687,0.4810619695909022,0.45662015736888684,0.4350406276569565,0.45691025247174544,0.48507463775767246,0.5153356850286923,0.5250547660245002,0.4356514863546228,0.32283897989485943,0.22516118863589618,0.2693378822954151,0.39857050461621757,0.5407087042136731,0.6728311569799943,0.7786620397263939,0.7930462250471293,0.7035923853736072,0.6136393890421759,0.6206908669962088,0.63422402346737,0.64828578535512,0.6795353481287094,0.6934481340390253,0.6853473997194697,0.6384614325144455,0.6043125666510782,0.6155047071961834,0.6055392804910649,0.5444965870800567,0.48982565270764056,0.4844059089907935,0.5005209109264559,0.5329186072508176,0.5793023497584677,0.6481971508562392,0.6189684119221468,0.5253624827115928,0.4199487956718806,0.42956505299506986,0.5521674497447746,0.6809259817064031,0.8146172891517987,0.9387683230033681,1.0,0.9247165037474376,0.8338785518090708,0.7213002876358612,0.6260374741904289,0.5937958837802202,0.5887663018973344,0.6122134415182052,0.6052034641299393,0.5763474880910171,0.5363575371897396,0.47942216212725564,0.4729131506847266,0.5004701583431017,0.4933932945684436,0.43254196893155683,0.4042763829805165,0.4084615189251948,0.4381581126797056,0.4561092413108443,0.5188080706899747,0.5495272142814516,0.46801755308881443,0.3588317600611206,0.26145428672899174,0.3103461955812117,0.4443209177040939,0.5731344688661317,0.7081619093128793,0.8033174708556987,0.812627409471586,0.7396067302443368,0.6303190298791272,0.5682494216451168,0.5462811030637722,0.5502879915733354,0.5749470576775204,0.5650582396336792,0.5297848662431472,0.4774208000289253,0.4653902926630189,0.5141951208009896,0.5321653431886411,0.4795627180279576,0.4411152028198102,0.464068321279163,0.5175103740992304,0.5319876394401297,0.5752709196804693,0.612263953210459,0.540259462075996,0.43136374558685153,0.39311263116701856,0.4998245743157761,0.6374179583842845,0.7663143769212275,0.8967977124309225,0.9745177482206384,0.9199832930060228,0.8358548173189968,0.7272707890563939,0.6194944403510538,0.5519885017820974,0.5252969736758559,0.581027174419642,0.6836968461863973,0.7912276400831821,0.7757629963903581,0.6419742063821721,0.5002897745856338,0.3866481457281852,0.33608891763125825,0.22637508083111735,0.08689467502920323,0.0005765082242650266,0.0039706675053929885,0.0940944279275513,0.22905545881210632,0.2517486951767176,0.15556570059472508,0.04945975364341271,0.0,0.03177050153907679,0.1533829703168874,0.2784038601681922,0.40162007187222315,0.49737541980818145,0.4853814162907697,0.4589855110932062,0.41668669008713755,0.38081136837921514,0.3849188980002003,0.4321252615534821,0.44117124154821896,0.39689789030094236,0.39843864505080173,0.4417272960939078,0.4843685483355835,0.48252596463210917,0.47180895113222476,0.4672397788053493,0.4860642886944251,0.5248311877534766,0.604600971529123,0.6893211748006633,0.6251494239246771,0.48876068009173057,0.360196490732942,0.2309172985217356,0.12438275483691186,0.07173971306516291,0.14885314196168586,0.271929162681638,0.39371097644483877,0.43510908563587325,0.39250650370421836,0.36540165182107565,0.34434104113959085,0.34139549864030627,0.3592403207803998,0.42283555812181994,0.43104739923720103,0.40705848321106597,0.4124950205648208,0.46575675804102534,0.5094109553128892,0.5167246895848039,0.5395353637544487,0.5251993667245904,0.536346490635363,0.5532412256454515,0.6197149812182556,0.7322140157802939,0.7871878307954336,0.6825822415791585,0.5546534913885934,0.42320898757985503,0.30171258253712363,0.2074131820549039,0.22833026108942978,0.3369244835741654,0.45313952980263794,0.5341401418471956,0.5020392837250536,0.4680049796901202,0.4459570605156835,0.4279564118110528,0.43400498609801863,0.4918959673197447,0.5474842555241861,0.5357054629626523,0.5461721947333338,0.5790858187367935,0.6230746910774831,0.6126142955895135,0.5882886417254731,0.5635118056468671,0.5536608472934188,0.5515926036555285,0.6265633179454961,0.6886754930742356,0.59917707821179,0.47443834063105106,0.3455359636436386,0.2161931997439419,0.10099505306227563,0.056381001976937295,0.14245118836577841,0.2594473111080071,0.3713847213148349,0.4202677860010713,0.37844699777827895,0.359462426425055,0.3629695414084586,0.34209238017853805,0.3803132012202153,0.400756308089969,0.37675331867679285,0.35495715674991635,0.37441066120306044,0.40343161545969286,0.42634830159767834,0.4316356417140712,0.42769971580703503,0.44664495213990074,0.48182758426575045,0.5403877677064366,0.6265806892311225,0.7061808217987746,0.6330825889634863,0.5054276624543519,0.36897547119350627,0.24262697216744344,0.13877359193349248,HB
0.732671820248501,0.7379715105731908,0.7656150526797916,0.7868698120092184,0.6952158193430806,0.7056374649017902,0.8353539802293026,0.8816404795658022,0.7899103082951866,0.7678920076415547,0.7509031301342999,0.703423490808694,0.6262705632644776,0.6292683254873683,0.6890655937946901,0.7341933816977146,0.730035422627326,0.7350750680653872,0.7709197674982304,0.7989611298583226,0.8012380187352877,0.7947335418174761,0.7844137983290533,0.7732694333567469,0.7836250104056788,0.8138579494666391,0.7265878541185797,0.6118978672107849,0.6847921441118716,0.8408056728235325,0.9111510064757038,0.8347560535992491,0.7772537556322039,0.7381434462178271,0.6709545277966775,0.5995620067672318,0.6111886129723807,0.6773750674174464,0.7241935445845922,0.7177291574474278,0.7178966849971866,0.6693345354572742,0.5792404129210587,0.5738871103142733,0.593940327644181,0.622405564532805,0.6110641850877201,0.6264839582617654,0.6415126001267,0.5747608591137894,0.45233624404190076,0.39317598114683516,0.5172180656491672,0.6684155003819496,0.7905890244385354,0.7652448622050532,0.6719434821676353,0.6457518039841741,0.6177445035157891,0.5700333979420034,0.5506486362324141,0.5962482058442262,0.6472759967996708,0.6503869189433544,0.6932527798159782,0.7094872290951306,0.733620992879473,0.7832825699967998,0.7976794614273013,0.788441089124376,0.7818700129070697,0.8512864678008096,0.9176922270322141,0.9000994968300677,0.7890845504778428,0.7059692908078787,0.810341966302615,0.9454152783982375,1.0,0.8969400623794659,0.834329529743191,0.7945933362026416,0.7478976404794917,0.7168507948587513,0.8183552522743023,0.9096725111308155,0.9463302487097298,0.9370663088644315,0.9457503057418162,0.9495860510876089,0.8925502167877868,0.8895742632364687,0.9183927543452501,0.8994507768851481,0.8934843663535874,0.8976843090912698,0.8955697127269646,0.8627023185764795,0.7391493974902659,0.6911655031201454,0.8215464053918211,0.9524276097445492,0.9654148041368211,0.8506693078422014,0.7676363358106926,0.7206340562780316,0.6612751760814941,0.596781710353314,0.58515529335887,0.6243332660831351,0.6589437970751142,0.6430418540317415,0.5885103708265556,0.5798389270077919,0.6220529330646052,0.6230069415347641,0.548221598550342,0.4682244237439144,0.3621056833520062,0.19874960888807225,0.04922632528133519,0.00019748573544609016,0.04933110208443425,0.19558386169939634,0.35865435110846855,0.4371238936651314,0.3369671619633974,0.17218150766365925,0.035388679664553724,0.0,0.050593094836151487,0.19770300696132415,0.3604610791540894,0.42975510783902715,0.31125942909769,0.14597065559173927,0.02307290615051727,0.001181154041959065,0.05202245030617192,0.1998222255622646,0.36267938839098557,0.4555051523585836,0.5169475594467285,0.5540539510406202,0.5210815377457787,0.4803728425575864,0.4497747842050366,0.5287066560414315,0.5964993958785092,0.6476731652535683,0.6993652460067814,0.6940131120739874,0.5731071762614555,0.44613922733353517,0.40434510899678866,0.5153934837114389,0.6666341159879678,0.7722585370710764,0.7881907176599459,0.8036968278853243,0.8183768251846173,0.8189870416089438,0.7882684834810227,0.7966294281108759,0.8328607888987376,0.8354376640316028,0.8456930224529264,0.8577849706819176,0.7822203811265078,0.6728336227471132,0.59195648044519,0.6375126812836598,0.6949620632815448,0.7418810261568822,0.7503244989312536,0.6540416453389382,0.525675046872065,0.46868165050022803,0.5656544419045959,0.7105377249541638,0.8196013089415768,0.7820174529704094,0.7124745110570521,0.6693832896822594,0.6952742054084453,0.704316012710712,0.6797563920280227,0.6305868817566402,0.6223868464363012,0.5842206464707864,0.55614381767837,0.5426538645039081,0.49432801291446316,0.4456000160298754,0.47910646331274176,0.5245204912256871,0.5575380902311471,0.5769248911829896,0.4687404163490023,0.3238714783155445,0.1817800472280564,0.06640229256239882,0.10177752105747828,0.23636508581589855,0.3793337283581151,0.5060069749271014,0.5399285150766047,0.5249895813866741,0.5151008602528035,0.499521405996437,0.4865491511148812,0.4622962828767556,0.5094704688591105,0.6035756181040384,0.631576639254182,0.6308463696074771,0.5860943830924175,0.5173816216939313,0.4953080392383966,0.5639090349250377,0.623293083590335,0.6600961380211121,0.6947813278022661,0.656534986438241,0.5294023727540469,0.40373953492635684,0.394869766517175,0.5146576569026369,0.6479297894047331,0.6830821103009601,0.6802660647240231,0.6900897335911358,0.6986275156108794,0.7074838318195438,0.7066181648761329,0.6658755852656437,0.6398465865735492,0.6454515735991855,0.6166283030552746,0.5666879983302291,0.5121451681080291,0.5551226702097534,0.62040713324821,0.6566483184722589,0.668852360939681,0.6281971574243173,0.54653672626694,0.41254698532165124,0.30717391411856587,0.35059094180242356,0.506324247993335,0.6433511901891089,0.6531218097744302,0.6387493453006714,0.6431742506495617,HB
1.0,0.949074610982543,0.8940053459345378,0.8389954620190356,0.7864294711604309,0.7340092303446795,0.6790140276903631,0.6239372253243094,0.5688604229582559,0.5138246194552225,0.4609121315452611,0.4088203467684508,0.3538691047140813,0.29884661345202823,0.2461179843828083,0.19387205653798711,0.14443266508595975,0.1530825927470526,0.20589180109795124,0.2576628824670891,0.301844672333206,0.32537498132790976,0.3296904045154917,0.34161991863010266,0.3267190043412588,0.31651348421722414,0.32276110716280726,0.32101782265622325,0.29734104652248505,0.26220924041501725,0.2560511930617605,0.2740714609705578,0.2759579060645815,0.285136281287252,0.2866824771185903,0.2651334622315209,0.21828373487359543,0.18729766428856687,0.20930688075588033,0.24671946416665802,0.22445557011788997,0.18710500036503463,0.18723386350274895,0.2250276455907977,0.2348824329507081,0.19635536400498377,0.1869110677382616,0.22159520099190178,0.23296450498863286,0.2253765354377334,0.25212446871673566,0.28500323560748764,0.2950627886585172,0.29246825199845405,0.30105877294475814,0.3105544941462175,0.2991009238794595,0.2937734627196441,0.2600044102268023,0.2101840687768144,0.1584370929204697,0.1067563632263051,0.05790810789029299,0.029552503693095145,0.06142189853849622,0.11194542510469518,0.16515845516936434,0.21822681086814566,0.2701575292927789,0.325045749979754,0.3781067838992269,0.43006658408302245,0.48499445430783594,0.5400712238411118,0.595146147261536,0.6495900040830578,0.6996627673747848,0.7462913378453535,0.7995171667352519,0.8545843600152456,0.9092941358148248,0.9419619126116647,0.9051179687252271,0.8502899491781473,0.7952131557707516,0.7401363534046981,0.6850595510386444,0.6299837221484277,0.5753935854000536,0.5241242656574949,0.470695110625162,0.41957151842927853,0.36812570949469736,0.3196549671936505,0.2826089411145718,0.2619337021022672,0.2601893503941676,0.2556811973369908,0.23973060953518122,0.22495737943215222,0.22259628914514284,0.24982451777054304,0.28044346858916025,0.28636646856132975,0.27682500656823616,0.282813436146237,0.28835486078908945,0.28673619370742975,0.2782126652959981,0.24536646971192289,0.19376152277812497,0.1425241601944911,0.09099630743596376,0.0405957071356815,0.0,0.01662645700764598,0.06821135100290687,0.11971932710642175,0.1731505060545213,0.22460730687580854,0.2792898709692888,0.3317667909509132,0.3842735094536752,0.43927775698272775,0.4943545593487806,0.5494106854581036,0.6027921542051737,0.6544868672389892,0.7093460076025462,0.7644226799590088,0.819499482325063,0.874576284691116,0.9296192762429409,0.9795829620244347,0.9776201118397714,0.9259777809559233,0.8709072774176725,0.8159399121514721,0.7637560682230702,0.7109448801822909,0.6559159591734973,0.6008869262000458,0.5480665964238505,0.4958953489049167,0.4419602042827888,0.3915297629039409,0.3417408141558368,0.29254542120699234,0.2634139408693009,0.2556362840252133,0.25222280772703143,0.25527906287536495,0.23948886809846914,0.22176252245536465,0.22190709454414936,0.24104095379142154,0.2722373348765329,0.2852423203728476,0.2752523514513704,0.2820049944610751,0.29944447639534344,0.29508920125221405,0.28963580295111113,0.25741044784478384,0.20683606024738865,0.1595498820679312,0.10965860997473076,0.06655274987225523,0.07080753384905136,0.1175358355717443,0.16852486047349058,0.22194023710572786,0.2732322145878081,0.3277738774238661,0.3802012205043842,0.43275758360524574,0.4877670235623872,0.54284382592844,0.5979206282944933,0.652997430660547,0.7080742330266003,0.7631510353926543,0.8182278377587073,0.8733046401247615,0.9283613140057017,0.9769925110346891,0.9647203491572456,0.9113271148294759,0.8579378574537972,0.8062514999978774,0.7513933942663931,0.6963309928614871,0.6427234796722434,0.5911968466136839,0.5364095305515173,0.4824803729467404,0.4312795680149506,0.37986141551145314,0.33115562145596567,0.2892166509240708,0.2713118134803163,0.2646092635767828,0.26064758317605585,0.2475001115080715,0.23655180774926654,0.21512003529416113,0.2186053423116936,0.2494846912894031,0.27583479419580237,0.2781542205838633,0.27168910294954096,0.28400095780902535,0.2949004105587887,0.2860361336112468,0.28457234614795823,0.2688743748891125,0.2227436626385918,0.17169882060639063,0.12029760342776319,0.06946093590428903,0.027149861575947898,0.03992603589463106,0.0884951718161715,0.13988416431188044,0.19190139478329526,0.24683985105788586,0.300962746364665,0.3462940005065358,0.3900884021904004,0.43981357628821516,0.48638950307251805,0.5308919476210558,0.5799811466085221,0.6343006846346937,0.6893748039114114,0.7444516062774633,0.7995173851634738,0.8532551030185775,0.9046902611103409,0.9559211072490155,0.9552088562131062,0.9034228651798335,0.8483512213389335,0.7932744189728813,0.7381976166068296,0.6831208142407732,0.6280504979460289,0.5740478846164594,0.5227573179893503,0.468850289049344,0.41770528579691435,0.36581442018752286,0.31725125397155063,0.2768933826078598,0.2601372969975845,HB
0.11524729918607846,0.1430451572191742,0.18877600432891772,0.223720826325303,0.23570880847147402,0.2619052547070726,0.3270387898146132,0.39579549745265563,0.4664100774010034,0.5460020592389998,0.6258821069558105,0.7061640234360593,0.7859091819720672,0.8657742092432863,0.9428179388132256,0.9617403313510922,0.8911554658019267,0.8112400098095953,0.7268503204872068,0.6450645455053967,0.5630572280243418,0.48027170256897,0.3993223916655957,0.31732708436096746,0.24435204225647222,0.22838810767936124,0.22507755517224926,0.19992348587280118,0.17216690765373488,0.18340726846372202,0.20199036761411904,0.2217886361589907,0.21448216116750518,0.17687343200834338,0.12892998013248236,0.12945514585708318,0.17128865862481968,0.21403752012950727,0.24014874273330888,0.254571814993364,0.2953619790305455,0.3635097304329169,0.4403686956551671,0.5194668461109457,0.5986069570118342,0.6772696225750352,0.7567337810106554,0.8375062853792725,0.9073384513061482,0.8892397307711637,0.8125379599699067,0.7292777376660722,0.6548302630804632,0.5789367057527788,0.49649050061260636,0.4155050654462691,0.3302016886092789,0.24850245596126364,0.1774343384485284,0.18993155022259134,0.23463101753129534,0.23681315818119963,0.22701288341230952,0.21638091289561934,0.22540444831278217,0.23617668575354855,0.24617706025101782,0.2270829159838912,0.18241021379438305,0.15569711793287233,0.1838470217845758,0.22343496324975032,0.24926729187114405,0.2653673851301992,0.29940594029434964,0.35583809674229316,0.4278452400233512,0.5060464516733338,0.584262608354684,0.6628786491853416,0.7424679616958811,0.8234986299590226,0.8764436799534661,0.8294972812289765,0.7502633953794029,0.6661001749043778,0.5852412242141825,0.5021572834391592,0.41696036349326016,0.33650980642610295,0.25290515478826836,0.17052638555132393,0.1240102943776129,0.17469032986957855,0.22428678593474505,0.24033766687684377,0.2291939872061457,0.22125866006132022,0.22458950054221472,0.23833656304226958,0.2399445804348992,0.21374047764108184,0.16266990268200843,0.12410160590973685,0.14705553748575784,0.19065869955732784,0.22915174067679311,0.24078056728579744,0.2592028519596419,0.3163296215633846,0.3920500572521055,0.47063728146194794,0.5508829847612082,0.6307558144371261,0.7108861287059949,0.79180662413595,0.8720930891258587,0.9517265362724716,1.0,0.947608704445438,0.8677282127856876,0.7833872585170896,0.7033177751356665,0.6190364833928523,0.5377214211151797,0.45547771177526797,0.3747914415313962,0.2953922030223064,0.24127761185225793,0.24585069350857514,0.2323336702137404,0.2167977604790352,0.2056260733942057,0.153129717688002,0.07653979489898388,0.04040754627162246,0.07474180299129007,0.1266095376101397,0.10789532145263192,0.04706760939085952,0.04964201544025615,0.11535886321497268,0.1770273633279622,0.23246508791530096,0.3104711835823075,0.39006407966489265,0.4735856246998551,0.5536624744984517,0.6364477092164924,0.6679895522793449,0.5985066788362925,0.518768903532262,0.43881401547817434,0.362333875849147,0.29764685754622255,0.24250400036271724,0.21649724155442973,0.20750243151013148,0.1765409499120809,0.13115972082514893,0.09262682316778914,0.09661086321552337,0.1461604944904613,0.19619543763396852,0.2118723381806078,0.2009689481395589,0.1957418776142903,0.18301704297935584,0.19959067222854543,0.2140629357735917,0.192391307931302,0.12659085394509217,0.048182491657218884,0.0,0.044997232305131085,0.1212339138802987,0.20134102857899716,0.2837208067001673,0.3648802745889099,0.45020398903453596,0.5317620030764358,0.612932746030173,0.6504800117212692,0.583118869658112,0.5029919465325183,0.42359523040696656,0.3494039513847582,0.2842454944144377,0.24598402153873833,0.23283294535708943,0.20789838496937474,0.16856713291825165,0.13349368013351626,0.13170136372319696,0.17449375903581932,0.21200725875546755,0.2168215009518797,0.20464152682823844,0.19260907826077323,0.18730940564919463,0.20743195095131717,0.20446565772537317,0.15003351400542897,0.07330850988949367,0.02375061446735205,0.07053195502744947,0.14883015375571573,0.22693356594892466,0.3089353575121123,0.3916401277367114,0.4727436087115453,0.558092245777952,0.6313680697112678,0.612247409682827,0.5312422773046879,0.45198165945412105,0.37490582300093944,0.30283055745687304,0.24971597873231355,0.22532762195548917,0.21012934859271182,0.17372124441468229,0.1294374276165191,0.09160688526745853,0.10032616548096551,0.15062256447764955,0.18978380000515083,0.18902852369851297,0.17099280933888727,0.15087743371610363,0.13369519252565087,0.16071947758188387,0.19155749521594045,0.19267000154385894,0.13228050719940532,0.09264569602201411,0.14483432380105077,0.22292013605447147,0.30177910295346666,0.38475385336105283,0.4648986613617092,0.5488573130900485,0.6290776683498418,0.6666861996319164,0.6019185227962569,0.5224320772840907,0.4432998853919592,0.36565928376655465,0.2922494338755983,0.23439400627042084,0.2104385305268368,0.19965300193548097,0.16927777885940687,0.12535443768587395,0.09198795436718266,HB
0.896621492150071,0.8611047360144055,0.8443040018057322,0.7900738815614168,0.7217589105987061,0.6965577999105572,0.7498095640079989,0.8123410793563992,0.8489545446752045,0.8067856942534841,0.7218749824427926,0.6355802737580869,0.5820579205556933,0.5675338315624825,0.5590292861770196,0.4949474150978035,0.4062715673329613,0.2948086877424827,0.28965578916726686,0.41248046333874777,0.5408530409015562,0.6673159024444368,0.7888135200206272,0.9020833640729369,0.9494528408855252,0.9010867576737751,0.8896081457140514,0.8392250866714965,0.7640378958891554,0.7154438107267826,0.7496810623172436,0.814026688557766,0.8689398389992715,0.863799867430588,0.7992727371674451,0.71774160949272,0.6574163288831758,0.6656027287264514,0.6515660518076434,0.5974782746766003,0.4943919905590968,0.3809475174535084,0.3026245810211927,0.38832157489320274,0.5227301430846238,0.6506281019986182,0.7756444616363067,0.8962216687621676,1.0,0.9847558296535146,0.9406858589235445,0.9057753861192284,0.8378339622298414,0.7956242371973277,0.8358008639443022,0.8917446595071361,0.9218694122998601,0.8969042117471147,0.819963340855796,0.726361665312004,0.6441380699047108,0.6076795130929229,0.6194212509999799,0.611250226852611,0.5414696266435697,0.43131776173353575,0.3335105688498059,0.3765547277935184,0.5019265379322109,0.6307924714736037,0.7577758255133213,0.8716869085299135,0.9508013800074857,0.9166088908735688,0.8709267902075277,0.8396357436648985,0.7670423277894489,0.7233039579245499,0.7485783676846567,0.8153261604920399,0.8448209669423901,0.7964819205718796,0.7111877422293214,0.6313754498418906,0.5876129349834596,0.5841403680524562,0.5556122201043125,0.49041767928530344,0.37589879217407507,0.26309404933020053,0.2536121444688879,0.37984086655549243,0.5081987691225596,0.6274484200034247,0.7275197041166614,0.8396881551528583,0.9025931695098381,0.8640514577125775,0.8383498485210872,0.7868017027714802,0.7149830741391185,0.6842898884560165,0.7335582624827071,0.7987601046520698,0.8334379273218229,0.7876422403446481,0.7130245138883127,0.6239414281209186,0.5548763920257636,0.5451657276149477,0.5514987289070006,0.5331507578973831,0.4972582967827113,0.3815553604491817,0.2601388902110404,0.3015649325011296,0.4274877035372482,0.5616877925004466,0.6849811188802417,0.8130958109824289,0.9129474097964816,0.9022718055588936,0.8585985468934778,0.8177199145500671,0.8042159786755203,0.7079250961161145,0.5880689601632154,0.5023836783433353,0.3865293632407063,0.25560487640234975,0.1832260324136339,0.07795470417749017,0.013113253250306212,0.08504895881356855,0.18779486558144365,0.28935181038190017,0.4074303786676552,0.4864666682574814,0.4809323027583514,0.48356592800822495,0.5333954844557578,0.6141608564808965,0.7003517761764866,0.7578161223196029,0.720866292638517,0.6594760839008615,0.6167133222616488,0.6448130799192442,0.7146628988670112,0.7797470915236469,0.7989527457981298,0.7919623930745656,0.6976400890081256,0.5780638453757838,0.44617002113944615,0.31728200048159394,0.18032583355069187,0.05784114426768561,0.0,0.0788251930568622,0.20957188680484284,0.32387323219462916,0.43480984674110656,0.5093351881302826,0.529379192195806,0.5365802551843784,0.5851888890016537,0.6599564400140294,0.7486736725037653,0.7734006777420261,0.7156846340603482,0.667230886774806,0.6700645180635942,0.7184957842488249,0.7877375464600318,0.815240221980472,0.8340790335399761,0.7571273107516054,0.6323910560382351,0.5036225143749564,0.3704159448557838,0.2387857577184196,0.1138493445451787,0.07834275955781411,0.17410449668537709,0.2915916308855331,0.4049947613942444,0.5103653215558941,0.5543160591463128,0.5351667328679071,0.551017399489909,0.6152805198093909,0.7060537751553309,0.7927759360048876,0.8512074786207635,0.8237783298042962,0.7686754107317832,0.7303507383503969,0.7636306535924997,0.8316656772146489,0.878466259380593,0.8822630649719141,0.8994180462868737,0.8108392378783811,0.6856727543977601,0.5462363236993184,0.41688970327470853,0.27945327217230975,0.15362310711831428,0.08501080033606145,0.1538259658771426,0.27028344709313634,0.3889642808340805,0.5091262644149044,0.5855909253547602,0.5955028253519843,0.5938236072655769,0.6360490893979796,0.7113515246637663,0.789156395068221,0.800747801401744,0.744004144316154,0.6833579925278959,0.6490760509436795,0.685837364332905,0.7588760378799142,0.8176320157887851,0.825160080549542,0.8195583594933251,0.7159653775197263,0.5967820961604349,0.4663543896197342,0.3374036492534409,0.20211679121726833,0.07693630732169687,0.0005152644441759335,0.05537206216156543,0.16424302871731644,0.28325038908099787,0.3937400720980442,0.4870077020385635,0.5062349459601356,0.5181694731319646,0.5604205671360236,0.6362803181434034,0.727316074902209,0.7842893491535592,0.7429599135677227,0.6782723717639305,0.6293332434452985,0.6361647036327671,0.6982507671460043,0.7629469045699002,0.7845265429344703,0.8155314282207291,HB
0.8761865511006453,0.8194636479056343,0.7425333924062716,0.6581704175052063,0.5679031573647013,0.5378871430333667,0.6138948645235016,0.710133693274152,0.8067404425462414,0.8972499142352386,0.9724107070205221,0.9526369918102102,0.8903700245722401,0.8517273294437411,0.7980680121583941,0.7760038710115211,0.8228204172393345,0.845241556608124,0.8337102509342771,0.8232745196919837,0.8118903622052638,0.814278430883715,0.8170770508000444,0.8571604475058807,0.8941901720961418,0.9149987165061333,0.9204633008508871,0.8881218002212139,0.8214347947951071,0.740579531535271,0.653977570253266,0.5639292390935031,0.4683175637660575,0.39569435670884756,0.44606198933111263,0.5438448673793019,0.6386307601510615,0.717291212937931,0.8086732583676672,0.9006129189323218,0.9870680841787842,1.0,0.9378309083113892,0.9063367962404558,0.855867579536008,0.7957808710769654,0.8028209884381203,0.856662462952908,0.8705633037646987,0.8536270123106842,0.8302125116049783,0.8172840538281845,0.813733733341444,0.8173021503579059,0.8482313975826896,0.8980840403619306,0.9177920751095285,0.9117225735970145,0.8882268410749545,0.8283389595498558,0.748052354502613,0.656783787327587,0.565783959194379,0.47395476511089907,0.38299553787943186,0.38969598162229824,0.47631872912783857,0.5733471324669566,0.671139009855827,0.7623802335528047,0.8585294937249246,0.9473920558663262,0.9911835418891821,0.9327049648169199,0.8846230771659527,0.8398804438656322,0.785401142201311,0.8036077912032578,0.8531905516703413,0.8597246315558773,0.8428802497625356,0.8165272639163799,0.8017099881863832,0.8094965766295292,0.8081535603332966,0.8331993153214143,0.8750543533238218,0.906412401361878,0.9187695848728776,0.9116125171661209,0.8710062812793926,0.7994078674894465,0.7151589364296582,0.6291628222158145,0.5405000132100042,0.4825118638967245,0.548150296060069,0.640457977906713,0.7353634945854068,0.8299085762929241,0.9212547198489265,0.9936107070576823,0.9684180622146112,0.9013347627303758,0.8621731007309967,0.8087078734842783,0.7890066820728456,0.8369643588314439,0.8751297615999334,0.8727894730686148,0.8588946278622713,0.8592277236394468,0.8575196855635914,0.8571877983276588,0.8904448727163583,0.9272799562717153,0.9276207675771528,0.8961873238150486,0.8578760684892259,0.8249402256994538,0.8242877725347124,0.8252374512311622,0.8233680414336326,0.8377163719489544,0.8473874746451464,0.8116424327032083,0.7572887968955069,0.7443628053821612,0.7930376490082414,0.8446093322050265,0.8762844544099837,0.8486881888582698,0.7611214190560334,0.6638250824613963,0.5649235820856591,0.46601577687923235,0.36719766834931833,0.272768007942253,0.18048375035482245,0.10772755772650022,0.13724648171058762,0.2250036593038116,0.3208377268644027,0.41885623486608314,0.5102332502483229,0.6044969916166401,0.6915331248239855,0.7808088111442812,0.8516349070878755,0.8834038246966665,0.8760195144061835,0.8448814861894967,0.8041397442013498,0.7766230532892044,0.7741173229079785,0.765927835671959,0.7711659184153776,0.7961338253262391,0.8206586113973844,0.8092677935580255,0.7600562937500766,0.7289782526100328,0.7695166607287465,0.8309211351604602,0.8617721596890346,0.8387326682501517,0.7459765984668076,0.6515630165269855,0.5583995281986229,0.45980288864530894,0.3655604875802878,0.2722214278086925,0.17408692871060683,0.08265701677682369,0.0015905086627313603,0.0,0.07559619999080769,0.1735020451767626,0.27240900924115174,0.37131378733775233,0.46902611192602084,0.5598773102671046,0.6498971924596424,0.7356077100506038,0.8126354954665307,0.8696462510154335,0.8859390650772838,0.8707854342331871,0.8250990379385856,0.790471766688285,0.7819657620944909,0.7854487131327739,0.8009825287332784,0.8230724947740427,0.8293394120184954,0.7866699670749251,0.7423648000529266,0.7680181938373474,0.8312599444703948,0.8766156887159191,0.8779061404810562,0.7983543598817682,0.69966417658002,0.6046923183180184,0.5120209935085518,0.4136386026512344,0.3206446195654373,0.22603823408402546,0.12831826768995835,0.03974270630957766,0.0012629069922117653,0.06935198301862688,0.16308885252150884,0.2610246308133215,0.3524178672707745,0.44902655200785846,0.5425164466046246,0.634306714224006,0.7250440111588206,0.8099706413126875,0.8684449740030926,0.885798592415663,0.8710498111967457,0.834979835928626,0.7914957246861187,0.7762076080979461,0.7790140585979113,0.7796273473915352,0.7946915187817636,0.8074449291268662,0.803453471402912,0.7558577180841899,0.7202915072689193,0.7528844224705857,0.8121729776324007,0.8543318328555707,0.8673931004415618,0.7968023043070811,0.7053207657578591,0.6070114111292988,0.5081042046267306,0.4091981404440437,0.31121237342432106,0.21990955829879422,0.1263298440346059,0.07224722190758914,0.12832450511932536,0.22015747325806356,0.314586933284426,0.4130050859379659,0.5052182643922178,0.5986653058881717,0.6857667574619397,0.7701459127102639,0.8381579188926931,HB
0.1182902164064985,0.08251397936129745,0.13221341219859295,0.20349931699874269,0.27409399060734274,0.3604693582436629,0.4548933528934833,0.5501637951600007,0.6486746987467755,0.7493259791813873,0.8313529414765071,0.802690860869592,0.7063138058576419,0.6029079909247581,0.5040685546671684,0.4078104871200734,0.3149847270852979,0.30945707152398416,0.3202106746489115,0.2588712818052752,0.1784537632838159,0.12210557223968865,0.14870930615997935,0.212515388171453,0.2809101861681742,0.37366960790144654,0.4756917041902953,0.5724223105005097,0.6681450946357648,0.7694382277159895,0.8485201451288624,0.8128161861976892,0.7247845376089841,0.631041257087489,0.5419487637127525,0.44483039445105965,0.35577804963565707,0.3457396723131714,0.314923293665496,0.23737501072652156,0.1599320897635712,0.16246920005675247,0.23217013018426336,0.296631372679407,0.3779094548618669,0.47744583689201403,0.5720893444344948,0.6607933752156894,0.7600284956474224,0.8581283784181084,0.9544344099646134,0.9930103353300352,0.9185774392662485,0.8285875052613048,0.7328339478413157,0.6408085050242682,0.5336053101328859,0.43770587991889887,0.40569538053805076,0.4222196728999654,0.3752602272068075,0.30508749549424974,0.22644377274269512,0.2121223069955882,0.28140071039583003,0.3537107766932688,0.42350676001368104,0.5171461768219292,0.6149620107726315,0.7134702325654749,0.8128265474324625,0.9120689741520349,1.0,0.9765712672719173,0.8796369253590037,0.7758328317300798,0.6740487913369864,0.5806914516552608,0.48663452250667794,0.39194058706372914,0.3840809971523398,0.41074483875471346,0.386145406896117,0.3114414570850703,0.22039938280214222,0.17824333309746843,0.23399013839010085,0.2985058235453042,0.3612268606480773,0.437608090697599,0.5305646531119281,0.6278696317362928,0.730156508404296,0.8306645075917056,0.8971729890403113,0.847982890461332,0.7467351629623458,0.6467700788257942,0.5537271248937154,0.45502609246254067,0.3713400986105475,0.3166658959653228,0.29234801371185526,0.3073540306014946,0.2824569587686432,0.21016505200466473,0.12475795158103797,0.05602510792081272,0.08373078742551932,0.15435512225890258,0.2257181977149545,0.30246596723306385,0.39674506642558427,0.49865367436405283,0.5986091100074462,0.6915486156892989,0.7760607004452074,0.7646642502633854,0.6742681723001012,0.5747490724482278,0.4794067657814376,0.38565130274090387,0.3443281667538274,0.361528546669442,0.3772259240903937,0.3425006176993355,0.331893643704644,0.3152311188964423,0.2769729243469288,0.19428822414949742,0.13609821299623825,0.18251468243612456,0.24961078442851536,0.2950977159174941,0.3910424199526106,0.48677694287793405,0.5827160464552998,0.6814831308435372,0.7140084355773588,0.6332114481025015,0.5394675014979069,0.44172528474815675,0.3412357575740934,0.2507832223738444,0.17730299121508253,0.10716063392439668,0.031473589353796294,0.0,0.05961560383959674,0.14489030609890374,0.22817921349473713,0.2683356352914019,0.2576482258577839,0.2595782158557618,0.3041411096761688,0.34078656436183086,0.43234935766839655,0.5334568062799381,0.6313569762475226,0.7308199633014105,0.8146600416489638,0.7819760683269299,0.6823319056961377,0.5867314747866554,0.48872064597841836,0.3948997048145708,0.3258196855410882,0.2634573483476963,0.19890650526892406,0.13614241891472445,0.15819717904844466,0.24485104589262874,0.3284780656855446,0.36970921995209327,0.3420614090182379,0.2809360769881868,0.2642824783434181,0.35375763252586534,0.4639991520038156,0.5681175154196418,0.6640458065411969,0.7614700460587625,0.8535608223045075,0.9132960257106277,0.8463426379270946,0.7421642766873269,0.6421994056173352,0.5434880628956487,0.4470450590338928,0.3632946731661133,0.2993278981675742,0.22120010820051106,0.16495653658427467,0.1882634988082641,0.2607472673789968,0.33635567162694247,0.384136809834815,0.3629792249868038,0.34501119279192816,0.40971911524293714,0.513081845420275,0.6135535868978834,0.6967721139807923,0.7896356196489669,0.8788990968353927,0.8531698306423185,0.7578817009783365,0.6579060510759296,0.5598609347812331,0.46288657953595047,0.36675571785087335,0.28127483600404823,0.2129170640699285,0.1426352695638391,0.09705904301165647,0.13485929015081255,0.21721132078027128,0.28996183967424427,0.26868893797284676,0.23446415044561375,0.3134550220851071,0.41816053993941105,0.5161219815736102,0.6040909788889854,0.7032454317675807,0.7249452152585161,0.6363160366888974,0.5407063402372287,0.44443089629059207,0.3476734659883822,0.2554155689238271,0.18354646526592533,0.11989611817019719,0.07784335317359692,0.10696606292562794,0.18340442351968833,0.26468446492587483,0.28572594979255017,0.24250756277021068,0.25098663970966895,0.344905067027095,0.4426137486116961,0.5266968989973659,0.6225722378177305,0.7174637593654558,0.7111674554633653,0.6168344828524677,0.5181643087682231,0.4242991073596971,0.3320436862714937,0.24826200154391986,0.17721574277350838,0.10731501587010639,0.0460407661055231,0.04829794525185749,HB
0.59810400012632,0.5840508013505106,0.563254847069472,0.5470544581135477,0.5236129756160115,0.5546751663093934,0.6179248275061424,0.653338254309481,0.6251897454656454,0.5701400762948738,0.5412140610310359,0.5409246688016878,0.5549846797697409,0.5683574119208119,0.5542421088750435,0.5570847675285904,0.573607067300115,0.5919643681773594,0.6062221340803091,0.5907980869774396,0.5502278807529206,0.49594147505920927,0.44700701189043635,0.4717478922682501,0.5279983968786381,0.5488510906302015,0.5386754198638686,0.5533307982593583,0.5778298235581674,0.5870124087326212,0.5787620604704324,0.5652787165635884,0.5545217713252273,0.5240402734625009,0.4981688367368051,0.5448525997653806,0.5920091973232469,0.5840132154718223,0.5578991555774775,0.5587588567213093,0.552901140959321,0.5530574589262038,0.5630815768198159,0.5855464881971872,0.6021152052002505,0.5975890014717904,0.5851964990980358,0.580678929293116,0.5672398281860818,0.5363097533675905,0.518115619640978,0.5709870697242296,0.5988856691179016,0.5706964280665952,0.5722909341051605,0.5761819733067381,0.5837109443200417,0.599725846363206,0.6269225753882635,0.6337815415874699,0.6194341924915026,0.6021561408331779,0.5819355294729849,0.5606756547919651,0.5601616882021414,0.6063638597775292,0.6085268864389279,0.5929241343391152,0.5969313833617111,0.5880643446771572,0.5948910157445635,0.6137101266258,0.6388630098377777,0.6648492471420961,0.6972334358818872,0.7266383455427028,0.7486821136250368,0.7659269132613395,0.772874786893778,0.7519985147944046,0.7065103963351216,0.6674915815506532,0.708417002793355,0.7590597451260408,0.7786871633338717,0.796066780622835,0.8131221050445216,0.8297135084290652,0.8507269645239457,0.890341080158858,0.931565779853043,0.9496035728509207,0.9545339714904117,0.9757799665770801,1.0,0.9721751722211533,0.9116640228931823,0.8458525861744486,0.7831896739850734,0.7147100320383137,0.6458588270719181,0.5775434466533829,0.5152175523824589,0.44857607765466345,0.37973587309676593,0.3108840863917526,0.24210520981502137,0.1792857333774469,0.12994363985546475,0.1122813404395564,0.16469744553319488,0.22095198699891716,0.23335201255518356,0.21139430574804874,0.22826415922249677,0.25571580518682935,0.2859035379963,0.32421066961677525,0.38625953846611005,0.45078259744289806,0.47612237929860246,0.44968693821112704,0.38469890324175315,0.3273657927725129,0.2958640637830967,0.2742406149033676,0.24668669808190313,0.2207516906958984,0.19204507909225565,0.1644710503063933,0.15420667700097224,0.115643554299522,0.051797332797334006,0.0,0.006799233718031372,0.06116137646258224,0.11646558522879724,0.16184050075971235,0.22214749586222515,0.2908405169168575,0.35710973501668786,0.4196891564575358,0.4881293853433073,0.5569809802781569,0.6258327669831709,0.6946833098718168,0.7627310671785292,0.8247481826858223,0.8916870222563669,0.9427025451105855,0.9351696354129968,0.9203545299239362,0.9110784741987132,0.8802025084967959,0.8404919023001092,0.8101504560095705,0.7952475463354038,0.7770715019447862,0.756236890945803,0.7240503902409361,0.6805890254086009,0.6186881060639444,0.5588860364801918,0.5360396179436016,0.5823180114012334,0.6399976256769055,0.6941701260616366,0.7375670479360263,0.7442152838179206,0.7267904777817533,0.7048568860343432,0.6747360419066926,0.6449864933073364,0.6164479328270693,0.5926865862911739,0.5729537806780243,0.5625043481398406,0.5654179256880023,0.5626500341013665,0.5299362344835319,0.5248414986969829,0.4753646839297796,0.4413580464150362,0.4757431295306844,0.5209713726922274,0.5519821591644545,0.5656889712184057,0.5854029242093777,0.6025176227334179,0.6007171029746585,0.5740736583588064,0.5516120117780046,0.5483940993987584,0.5380253966366257,0.5182054117202515,0.5115861969647555,0.4601101899281481,0.4003627010768853,0.39166284566647946,0.44327756176393773,0.4960783759039422,0.5379676098545672,0.550394718229545,0.5553655773704145,0.5714997968797104,0.5703646555894626,0.5525417848397929,0.5292211966962141,0.5220442269077656,0.5248140294084149,0.5241535485628832,0.5061164414861226,0.4930104729199929,0.47683621660151143,0.41921665256837826,0.3820214383854921,0.4200627901191729,0.47451769281300415,0.516969923065316,0.5350284701874874,0.5414537391941077,0.5521565057374032,0.5535593689427853,0.5344471581142538,0.5104724500354936,0.4802781703903385,0.4417398040658387,0.38084267693636975,0.3192892951271573,0.27260902894274053,0.29492937589033996,0.3565754479876402,0.41780893229957883,0.4789399857055632,0.5383494883914031,0.5707269710977356,0.5665174739064145,0.5481387861907754,0.5287492319340616,0.5168523355140144,0.535015118795271,0.5342015650840239,0.5186840286961569,0.5088154569199801,0.5087625679916132,0.5230921985809951,0.5161182827392088,0.4589456010528776,0.4074766567674395,0.42029691957770665,0.47390408345906376,0.5138358809736088,0.5348514746978179,0.5541716478732908,0.5729906780624341,HB
