0,1,2,3,4,5,6,7,8,9,10,11,12,13,14,15,16,17,18,19,20,21,22,23,24,25,26,27,28,29,30,31,32,33,34,35,36,37,38,39,40,41,42,43,44,45,46,47,48,49,50,51,52,53,54,55,56,57,58,59,60,61,62,63,64,65,66,67,68,69,70,71,72,73,74,75,76,77,78,79,80,81,82,83,84,85,86,87,88,89,90,91,92,93,94,95,96,97,98,99,100,101,102,103,104,105,106,107,108,109,110,111,112,113,114,115,116,117,118,119,120,121,122,123,124,125,126,127,128,129,130,131,132,133,134,135,136,137,138,139,140,141,142,143,144,145,146,147,148,149,150,151,152,153,154,155,156,157,158,159,160,161,162,163,164,165,166,167,168,169,170,171,172,173,174,175,176,177,178,179,180,181,182,183,184,185,186,187,188,189,190,191,192,193,194,195,196,197,198,199,200,201,202,203,204,205,206,207,208,209,210,211,212,213,214,215,216,217,218,219,220,221,222,223,224,225,226,227,228,229,230,231,232,233,234,235,236,237,238,239,240,241,242,243,244,245,246,247,248,249,250,251,252,253,254,Target
0.3960633608154509,0.38815069238861355,0.36538848029611315,0.3427833516254821,0.31615518374206286,0.30240042068463113,0.30014452323041874,0.30160063020871486,0.276686284861696,0.2811061510167083,0.27095234861121753,0.25668340066697604,0.25850353349780963,0.2722775229317831,0.2969061937245643,0.27898192139440803,0.2763287551375897,0.2812924050115657,0.303271983972609,0.31407616775774616,0.31814217120403243,0.32912595488993324,0.36950882645635375,0.4164257836514762,0.4658311462119533,0.5143824259543033,0.5624575799446905,0.6150122344342093,0.6668261908100772,0.7128172492211626,0.7641635544323011,0.8166800013626685,0.8641847689164677,0.902431499903015,0.890482929419186,0.8417235563411309,0.7956222018913455,0.7435463776362168,0.6908861050289827,0.6383708596036732,0.5908312279971928,0.5416989635532272,0.4890782189626679,0.4364176203668233,0.38375702177097804,0.3310964832689933,0.278739188655037,0.23196367400705853,0.1819313377691898,0.12928853710881905,0.07662840135554272,0.0247920456152102,0.0,0.03406087864343288,0.08404660663266594,0.13055733952730364,0.18056141530742065,0.2271148730550252,0.2749461361359895,0.31840509114554605,0.3535687059585759,0.38297251307964797,0.4124405459844953,0.42212941031024287,0.40840856891975785,0.39477580117853117,0.36904955364763903,0.34409895709789784,0.3198704081630852,0.3172422442190663,0.33979494345619754,0.36227142031500636,0.35511068595878914,0.3298503485835915,0.30399233200146236,0.3075623845450859,0.29633633942467075,0.2840602038703588,0.30528649261151264,0.2948575223890382,0.29307365718482425,0.30500069504502547,0.33681371889783307,0.35385049512646294,0.3532627437255704,0.3502975162637303,0.3724192490102911,0.4116118881108881,0.4578914622379162,0.5052435740458405,0.5530738335597618,0.6017355079498399,0.6540944836492233,0.7010423607237439,0.7508451958891484,0.8034827796581911,0.8561433782540355,0.9088037496456978,0.9609499813604194,1.0,0.9907482676356167,0.9471066584787544,0.8985178253119086,0.8459234703645291,0.7938185595272069,0.7475924874964224,0.6967692814003372,0.644115178644447,0.5914546006286918,0.5389907742589739,0.49173201677761424,0.44227878413255883,0.38964669398228846,0.336986095386443,0.2843254967905988,0.23171577448837,0.18290383936198196,0.1350628247392498,0.0825236279865309,0.03403146610864849,0.038190372775233516,0.0857839672837879,0.13205130353673122,0.18318230568159355,0.2291379220035119,0.28068989447152326,0.33316087787402426,0.37937166794371,0.41102459186540563,0.4300591984378952,0.44900238281625326,0.4283290511290281,0.4071463722458686,0.38795199765536914,0.364124153771084,0.35743785432439323,0.3507174304098992,0.3646611089867744,0.3597682081832172,0.3401955043015319,0.3214816950647552,0.29951184147645704,0.2837252931579419,0.29378014842466227,0.29196193719600516,0.2773676135777634,0.28719854858345273,0.3119964365268919,0.340067986436281,0.3489445878332402,0.32491159166423866,0.33673296850988765,0.36333869749291914,0.3758136329760753,0.3699035049511956,0.40399619462498193,0.45014845574916484,0.4992858468506596,0.5480869155565704,0.5914578619439286,0.6317227700383472,0.6810377891185251,0.7276112609881553,0.7798120039167844,0.8276285481238332,0.8680796266568116,0.8618781216771758,0.8150507826584577,0.7632032488400697,0.7172279476764232,0.6659383780487047,0.6132816610674579,0.561543789631699,0.5211609732756546,0.47784571039431545,0.42908539933070133,0.3764815443332594,0.32382345142339064,0.2723596220654696,0.22638862532375414,0.17467236386542062,0.12201358295796205,0.07084404429615021,0.060989476365162165,0.10246673171601284,0.1487458788591942,0.19771407966986154,0.24672279974728983,0.29422351374963496,0.34159014164566126,0.37648978645676356,0.3806614873628231,0.3774854412181634,0.3845668483581852,0.3666747790368279,0.3409084075510216,0.31077393767666117,0.3140147203314987,0.3187547215568771,0.31180387618307503,0.3154209146421927,0.30272965650854133,0.28066965660743204,0.24343757755891238,0.23325778406312891,0.24388370317664743,0.23069800104228655,0.2278661476984063,0.22203218915724232,0.223378812116225,0.24560019497123697,0.25112039613262804,0.25575239149386153,0.2601550283503702,0.28271844338562624,0.31552201467842256,0.357872524584649,0.406636965432128,0.45250636006619693,0.5010136269278864,0.5483316381270438,0.6007816113344189,0.6503072162877075,0.6975055684148939,0.7499558445253294,0.8021267965887451,0.8482028287982679,0.8866294287014966,0.8770317104154981,0.8277277175677877,0.7750737725208232,0.7224132093227311,0.6699893323614239,0.6229117909425819,0.5732413944502204,0.5206052878586647,0.4679446892628192,0.4152840906669739,0.3626291443643772,0.31165517124768827,0.2656343422544458,0.22370166921673595,0.23412518289444129,0.2778438989756724,0.3242320216142549,0.36151803243574854,0.3713976827059604,0.38281102647065457,0.3804319280579047,0.3585420720486916,0.3342633410002738,0.30280805191581006,0.2672245917296754,0.23498933873207917,0.23220598770841638,HB
0.29322908642258616,0.33368647779059923,0.38088764085159776,0.4142419011537408,0.4285183414031861,0.38773556541044396,0.33096859573574045,0.28161216395520516,0.25097070931484,0.26529973777633276,0.2687381524901893,0.21360241983869188,0.15427496458685164,0.09476327403938967,0.05034656273538729,0.06898461487866614,0.12697402083193277,0.18715771820327232,0.24516539446991004,0.3023220488237568,0.3620712939032875,0.4243069208389407,0.4887792837966334,0.5532782366414695,0.6177771894863062,0.6822761423311425,0.7467750951759788,0.8112698255327733,0.8746598480040582,0.9301315922160804,0.9298529317548572,0.8742790263398814,0.8118139806069666,0.7525261265534282,0.6922975004008141,0.6320833425591017,0.5732097565901184,0.5161714917251894,0.46671118286677005,0.42677154832767905,0.39184780136281394,0.3574399832175601,0.32696652367453094,0.31917725534817176,0.3375047793582282,0.36905533560233184,0.3756459948992612,0.36329793798452714,0.3910667694886598,0.4283111008114444,0.44476000021493256,0.40875479174687235,0.3520494102032137,0.29373244991593705,0.23481052299151783,0.17468586091875948,0.11607572016496936,0.06726800311897707,0.07635248181014342,0.13523811571814826,0.1996960161287903,0.2641949689736267,0.328675683792206,0.3912117282201837,0.45105796561626277,0.5152189497856943,0.579716131727265,0.6435343787223651,0.7029590835944173,0.7662477983232812,0.8307412837377162,0.8950763625531273,0.9500260300681316,0.938801712681798,0.8790078550666713,0.8190215847414317,0.7566938812280328,0.6969170853597124,0.6349616038076784,0.575533247678059,0.5174513236452378,0.4659176966670684,0.4219884465176207,0.38768390920642415,0.3535391954838638,0.31877496098950187,0.3051971725928839,0.31281013959879567,0.3362966798160334,0.35136477221908535,0.32959460147555264,0.331420677424034,0.3679116784969463,0.400634541367874,0.40220985256291875,0.35451963615265836,0.2957513110905934,0.2368536483970033,0.17786244599216872,0.11814504278122484,0.06343498600063868,0.038121298006662974,0.08142276702255857,0.14249325278194558,0.20419391660635378,0.2646681521506783,0.32899318410866774,0.39280156326287274,0.4522203944226182,0.5155247015807252,0.580018370546632,0.6445166454068287,0.7085119843666192,0.7680920141161693,0.8310516749448089,0.8955406676301425,0.9587858759098242,0.9811002309998624,0.9314639338065811,0.8683713560555915,0.8093477387675609,0.754974010236966,0.7047486605527777,0.6511265352284634,0.5903517318004101,0.5322689519254551,0.47586466168359287,0.42739027439187915,0.40508282104026105,0.3805453717624383,0.35210086440229715,0.35243458556108576,0.37059394085833475,0.39964836010434857,0.4111373576270416,0.39470442626878,0.4052659725234804,0.4438506399939961,0.47267789617626166,0.4534121631010124,0.3991137187206153,0.3408575712772459,0.28230359076706657,0.22358072342959123,0.1636036578088279,0.10535045615599603,0.07072137919006383,0.10760407791184878,0.16624574819331084,0.22981569789622658,0.2906331825114319,0.3520268112855849,0.41646061899182185,0.4809563447693799,0.5444951398962994,0.6038680646697894,0.6674868997025132,0.7319832624125138,0.7964426963259101,0.8583353298974807,0.9186983432649962,0.9815102105998472,1.0,0.9450580627386611,0.8857174324093537,0.8232599283914457,0.7638737657769503,0.7019438556197386,0.6428832806619518,0.5838462570034659,0.5226620772683437,0.47331750231510816,0.44181982812267817,0.4102418758325772,0.377406005955472,0.36170940848995126,0.36847473238821515,0.3897012469564416,0.41567683395241173,0.38463834855578805,0.3328299975530207,0.29246832610945095,0.2978092055671471,0.3344439032690698,0.36108508242717985,0.34043436256470216,0.28600888603803587,0.22705942840193716,0.16789588575224046,0.10792030172433742,0.04674279533884951,0.0,0.021821732360503554,0.08146870095563652,0.14159406078579795,0.20584774768850367,0.27002104563470375,0.32991644307057744,0.39239185310062763,0.4568715780018602,0.5213413654604626,0.5835052777545064,0.6436402777786716,0.7078953690863248,0.7721945594237967,0.8194340679127892,0.7905436203450102,0.7277410067625134,0.663290512467134,0.6014962114862428,0.5415965561001168,0.48325365816558885,0.43101137199246997,0.3944449901369662,0.3610217311809958,0.31798633772825324,0.2849136877963434,0.27266554655541553,0.28596802888103157,0.3141374169001949,0.35224860964500215,0.37017864322255645,0.37191199091211713,0.40512645641032075,0.41449551573737997,0.3764110968273866,0.3194190321861663,0.2600484436231283,0.19602182629274634,0.13426602650628716,0.07690323295462587,0.047570097653487964,0.08633216180079595,0.1469254224881098,0.20992680533277308,0.26943265775501146,0.3333691923532476,0.3972701161379808,0.4567583775647537,0.5199009266449359,0.5843930245836786,0.648763312157445,0.7095288278123288,0.7709799920649667,0.8354167251560662,0.8996768407032454,0.9422851782969106,0.90173091810407,0.8418479589582784,0.7797454951168827,0.7175490500415447,0.6575043423547331,0.5958839779751195,0.5384677734272469,0.48727613072672726,HB
0.8757344218903835,0.8797945487822965,0.8827346265956768,0.8900441013564571,0.870809441556446,0.8431380564182942,0.8145024204742275,0.7879597042935376,0.751035813197868,0.7385259126963457,0.7261139753595693,0.7438349225478174,0.7719828763229519,0.7861659778949974,0.7932550305881882,0.7929304087650575,0.8045358258775384,0.8046536763586194,0.7978560909646601,0.7658355885771142,0.7344687744567944,0.7117218329474575,0.6944750089394041,0.6777357144470622,0.6991357439949755,0.750304464259298,0.795666968499503,0.8264426727986334,0.8571085410500716,0.8883262697313294,0.9082503424858697,0.9223133473899434,0.9579610843512354,0.9998792045279936,0.9744710649203379,0.9032456015588775,0.8390792958806959,0.7607186187483639,0.6933651022189471,0.6245731480929111,0.5457761038657423,0.47706797449660376,0.4096792290746496,0.3308638987526953,0.25296047924953013,0.19110609648954524,0.13466836590246922,0.15475458303814493,0.20973241985582058,0.2716977219914103,0.34210412124317324,0.4036997781131739,0.4772838696577306,0.5391933387204868,0.6065485300365276,0.6711037008249328,0.7320575391002877,0.7905096982530462,0.8323704734308413,0.8700503067408465,0.890437139058152,0.905860228649638,0.9020826695685957,0.8987333589818407,0.908695760189135,0.8972467438261242,0.8702377202644933,0.8458513772363219,0.8120127595628626,0.769685309123612,0.7476426402895884,0.7193796809365396,0.7043327379906379,0.7071950939981502,0.7202961355094137,0.723804168947447,0.7423066351100496,0.7630076134659691,0.7662806377712745,0.776441142357509,0.7775445118110884,0.763079926089024,0.7779575083669443,0.7629029842754349,0.7451646040175599,0.7187509050185721,0.7186211776860318,0.7531484984746752,0.7948529212519766,0.8369521900841979,0.8717540124013348,0.8907295137995002,0.892706653515384,0.9039688823892589,0.9268768340830227,0.9782300451214532,1.0,0.945107545525893,0.8678049552924012,0.7888586998176175,0.7099119106239025,0.6309651214301866,0.5523351743605587,0.4876381085835324,0.4160701304671215,0.33715700969668694,0.2606671422950315,0.20100440188364077,0.15544568182841534,0.16848140464031136,0.21368076895274646,0.27309471622964665,0.3393245742367563,0.41336998556342097,0.47583070588350873,0.552018363959836,0.6122747092066105,0.6695091913788098,0.7267433132569754,0.7924478242356541,0.8158749113760702,0.8265957160679371,0.8317649777050922,0.8295079704772821,0.8266563261259612,0.8264793217859809,0.8122131716814143,0.783741984690896,0.7652371227528065,0.7739394993445017,0.7665102960540553,0.7816519129173178,0.7677258732801402,0.7802175810147038,0.8062509287610857,0.8240466354068352,0.8091773192643288,0.8044701999828794,0.7893505553277604,0.7653142685693597,0.780869064016565,0.7808484971139555,0.753138983681851,0.7184846651720052,0.6819297586787578,0.643447389970905,0.6121635058949555,0.6142332630495706,0.6598695534697865,0.7002958001167348,0.7365469002539,0.7700025153941419,0.8030889127061149,0.8133816163133476,0.8178389020947106,0.8466008859574807,0.8907048159872257,0.9180347504122475,0.8561654324929657,0.7867063473504787,0.7201053682185345,0.6416003034781372,0.576590224682672,0.5053505649591603,0.42644467300593103,0.34754884752809057,0.27906501935506567,0.22460443667536012,0.1749328692026726,0.10167010374474916,0.0615954401982588,0.0772241676568508,0.13288017084130077,0.20238669804304754,0.26721987920668555,0.34585960835060003,0.4225030160585028,0.48372994370616107,0.5532634228525155,0.6067964464863684,0.6601087507423786,0.7249018058548495,0.7624963581423225,0.770936095979637,0.7681330105044957,0.765134364427198,0.7812853332604384,0.7826303320983108,0.7671792417724648,0.7365173043794737,0.7163405981105728,0.6881418240497599,0.6664137067400011,0.6513131575057653,0.6522310568975165,0.6697261900119429,0.6859628271012284,0.7177637114325304,0.7372541437559841,0.7249962655816469,0.7167797860286966,0.7081712938187885,0.7030957654897669,0.7007714570778703,0.6874951606835045,0.6618735520108818,0.6328509663464343,0.5959847583609372,0.587165536914338,0.608897173012326,0.6443593983763787,0.699549795280729,0.7396587017960652,0.7770323196854294,0.7958976034344327,0.7846561707162043,0.7876859906654161,0.821118104297303,0.8639765329865794,0.8700574945120043,0.7965218320215532,0.7182986636208808,0.6557090698523402,0.5816755557977946,0.5090520304635402,0.44522893144070785,0.3668040409753268,0.2895342003551513,0.2281158342807834,0.1519385591748863,0.07428437718382108,0.015902776968232057,0.0,0.04749887334935288,0.1214876868131749,0.183051898351545,0.25679208839674583,0.31855082438194504,0.3861064522082476,0.4528279743872736,0.515244931772906,0.5884724505364196,0.647723687743909,0.6949834100103915,0.7517836279271184,0.788670566135584,0.8238409173081913,0.8266500581897995,0.8259557504457233,0.8096413006976899,0.8046655559549056,0.7983936837099272,0.7831994692962074,0.7747500502643088,0.7444197621997777,HB
1.0000000000000002,0.9714209008195585,0.926979901261203,0.887025840966966,0.8479493041963009,0.8143961660413188,0.7982419302852919,0.8093853729697051,0.8363882358074246,0.8607849856527332,0.8905817284710176,0.9082325678268199,0.9075693514125491,0.8876764782518218,0.8560551299150556,0.8194413717828148,0.7749114855632941,0.7368142975820673,0.7251653282219308,0.7521642965249984,0.7970599728516483,0.8460431805269863,0.8935955666853312,0.9295016320847009,0.9546022431076773,0.9579722351615472,0.9222301916394045,0.8665972363249803,0.8050864522192227,0.7397760243109466,0.6771754956546838,0.620510895508535,0.5557663155285215,0.4904202695659199,0.4250863029600098,0.36273882656647904,0.3058898251117428,0.24107502077394605,0.17572885502131075,0.11057454134706934,0.052447682066469214,0.0023782763487718572,0.003730390443107412,0.05623759941428208,0.11587443228676841,0.17473882265829244,0.23991538820192515,0.30131233581358763,0.3589036845514837,0.42394082295244995,0.48920169777239275,0.5465224371687707,0.5966542051488546,0.6589942067175147,0.7025915740341582,0.7561217664342561,0.8174951470843124,0.8746019505143661,0.9310954764234471,0.9659827563254388,0.9664536717103898,0.9473084392326074,0.9172202491315626,0.8829266843772035,0.8515692054564201,0.8103897504730895,0.7825775030445321,0.7726647999767358,0.7911394480895331,0.819297674215111,0.8492634756362081,0.8764476554337672,0.8977004399372241,0.8938642266633743,0.8908920852257365,0.8780080113231834,0.8585815456087575,0.8282152895053281,0.7883594455910823,0.7497777792316389,0.7364429239578034,0.7632761482912227,0.8106389529522455,0.8614716317688738,0.9067877285255304,0.93656986547509,0.9589975581920112,0.9761344480564385,0.9572880551227272,0.9172410102370911,0.8652061067183416,0.8058629506946333,0.7406152891716076,0.6754730370404032,0.6173824514113293,0.5565731387015209,0.49127014885501663,0.42593531146378916,0.3634576939065677,0.30670352741053386,0.24192485229298377,0.17657890699445122,0.11174498573597336,0.05526684214760613,0.010391933551220367,0.02935006067189505,0.09115207955069327,0.15128842317646973,0.21001915162110296,0.2752063562152265,0.3383758870250586,0.39471040522101286,0.45920954734061015,0.5232108499151154,0.5792986986340631,0.6432085762334654,0.7069325844102032,0.7630442793702228,0.8257288830806861,0.8814417273596857,0.935764677982428,0.9671081126339189,0.9616834480655523,0.9477606369619453,0.9196786364404483,0.8804034422102831,0.8377231890041639,0.8054624797896925,0.7788472675470328,0.7764036685225688,0.796874045734163,0.8225127610039604,0.8531341169745692,0.8866841791219924,0.9007702165377667,0.8984411991632448,0.8824901394967049,0.880150931964836,0.8816894557712753,0.8499833482002701,0.8130041549035556,0.7767118886338127,0.7619568000240939,0.7900102054634841,0.8328104963816199,0.8808725620071693,0.9276606751269554,0.9653917407663803,0.9869184550182075,0.9960788812920602,0.9726485391971409,0.9181168155465638,0.8539511147889614,0.7974991919163354,0.734565277107212,0.6692254288878234,0.6038791546598063,0.5385328804317875,0.4731866062037704,0.4078404117435077,0.34292903188472645,0.2858716539755153,0.22382256137692624,0.15849798787908398,0.09504531392441096,0.049923864549917596,0.05458136067752806,0.09273776282589985,0.14599595648796004,0.21055592499566989,0.2688667923539576,0.32946332922679544,0.39473827361453395,0.45641456651393386,0.5137760382163798,0.5787297486691505,0.6398483255279368,0.6976695513012823,0.7627066057008693,0.8232820845419373,0.881456732361251,0.9400701734342649,0.991341240634944,0.9976886293075051,0.9772882312931952,0.9601396158791908,0.930895452748423,0.8980290633157606,0.860698361078887,0.8271783594075821,0.7990857588787508,0.7988532049023513,0.8232247928323433,0.8553402059694024,0.8837877680866815,0.9101171082030375,0.9242259205949204,0.9297399372555255,0.9167863861171839,0.9052935529912765,0.9109872065914877,0.8958345886414947,0.8562476177675804,0.8120604759227266,0.7807389499923512,0.7780174489629921,0.8133982361309742,0.85776258449816,0.9105767929382498,0.9537904878733403,0.9780417983963556,0.9804678244081793,0.9783590402451583,0.9434007324174238,0.8834101089103779,0.824856756809607,0.7645829990894937,0.6993017126184966,0.634076178404416,0.5749087754078788,0.5152152383533577,0.4499565723019079,0.38461034628517,0.3196726597319446,0.26251552317212146,0.20059092335028939,0.13526515775729742,0.07022546488141335,0.015632564381125702,0.0,0.04513984452377717,0.10842204175789694,0.16966014939714436,0.22737920759917962,0.2924452426544917,0.35712363795575675,0.4136630882628054,0.4764534367279689,0.5414748312996445,0.5989451949144378,0.660462511835854,0.7236133454070155,0.7799440295236553,0.8435197760740587,0.8996641689264242,0.9514948311188498,0.9559206177950921,0.9431065114375989,0.9263398424627203,0.8930756356436105,0.8567088274525538,0.818454758267674,0.7812217491593749,0.7692497561539942,0.777487376752334,HB
0.6641178598683712,0.6445468603710278,0.6638508335553244,0.7012972980341479,0.734505038368078,0.7359452208620727,0.7181070501290856,0.6850033812250658,0.660722335964298,0.6273606438324775,0.6259526096982766,0.6507031244534822,0.6831266687070316,0.7049334572120438,0.7052007635114474,0.6910776209167375,0.6669976967226834,0.6443419542426252,0.645917376563605,0.6633761193007679,0.6255228813502214,0.6009839829497041,0.5822970325174133,0.5820025197578778,0.5977462419098556,0.6447637940674635,0.6246111156216969,0.5506219062153388,0.4529043539992186,0.3515128518318864,0.2680360170490417,0.17885564066509563,0.0787247106425415,0.011100338070333393,0.0028449234290759406,0.06978499718280862,0.1489031913269514,0.2496904536801896,0.3512991463430888,0.45234920937712086,0.5331494219981829,0.6252962815992547,0.7268886649504518,0.8284972820610976,0.9282636426896955,0.9411908723298694,0.851380088155552,0.7815452596929999,0.7147330825601319,0.6624325849004213,0.6266493177303172,0.6128615068380254,0.620485863720214,0.6428560511175379,0.6561057315979326,0.6742376414201674,0.6744512949667945,0.6744565164020049,0.6802910855944315,0.7040201087134479,0.7087978703383637,0.7340585304860294,0.7314570342231823,0.7006693284496395,0.6669903669721338,0.6434312128795243,0.6190914038878148,0.5853176319546032,0.5447026575060674,0.5207869514864871,0.5302914261190343,0.5420020770031204,0.5362823056353889,0.5510008470932304,0.5625664434821207,0.5819187338241818,0.6016506815744629,0.6305653696842084,0.5544231913041244,0.45395850095734147,0.37536201859483675,0.28052823598469434,0.18286426633068942,0.11328375953710346,0.10342233508688015,0.16846028589619966,0.2624032505106282,0.3639285412033013,0.45310908757982027,0.536585922362665,0.6379810134211166,0.7395845365909848,0.8350783964976234,0.8779078429202904,0.8176071427533982,0.7614514907527834,0.7232118535560232,0.6750172781500128,0.6361528888929557,0.6134073958670223,0.6132746017526145,0.631569521152703,0.6164406611932352,0.6127632505180296,0.6110220137430238,0.5835376498947973,0.5423380559604523,0.5204114397931914,0.5024693414626187,0.4894565610400905,0.49194652057240074,0.5279155264092852,0.5784979524917828,0.6111088019217794,0.5957470250849441,0.5556178170613144,0.5576727214859876,0.5913685659676879,0.5478039313957686,0.4600833939711313,0.35856634076235405,0.26386194816785036,0.1853615826312378,0.08551940927435453,0.01444932809801891,0.0,0.04676589341912063,0.14083448098341833,0.24243268620858682,0.3440414308136619,0.4456077797194258,0.5339328966621144,0.5630133612616808,0.588289588182433,0.6294151552619507,0.6415588615585595,0.6063852329588961,0.5772366741348591,0.5368908151715308,0.5328167230288647,0.5508903627404198,0.5602127803283352,0.5853316724524733,0.6124419485465644,0.638183101793433,0.6436010657059512,0.6431278580184498,0.6208496568805657,0.5887322194878282,0.5820159950831449,0.596683282773812,0.5984063417661947,0.5821205718204787,0.5819147597016876,0.5819174398965963,0.5858705598232055,0.6383823675414408,0.7028447794208228,0.6888068242452521,0.5928862029473061,0.5165410961717987,0.4186047211199151,0.34288165176792074,0.3542988879445099,0.4296165649670032,0.5165262529557806,0.6179292702491965,0.7044664068482911,0.7669250373213155,0.8317115726579809,0.9316913538560883,1.0,0.9369564855775598,0.8631645811030948,0.8071710938071401,0.7681140412619731,0.7372965157955287,0.7361424459717094,0.7361423184772864,0.7358950619774545,0.7167940022578989,0.7052283444828085,0.6899070157236613,0.6745690325637943,0.6761820150088349,0.700247288074408,0.7053755699822499,0.7189755109254561,0.7309127492361185,0.707027526763965,0.7052681252447792,0.693453942568083,0.6748206996536235,0.6661381976437024,0.6240009277047882,0.6073886091005338,0.5834487602111915,0.5819149060842825,0.581917042557647,0.5850890921173146,0.6232049743465042,0.6774126792569728,0.6461149444634282,0.5615686192387157,0.46016580480282965,0.3597220617318655,0.2814824918708414,0.1862082965504035,0.09747718306907682,0.06268352388417942,0.1017512609611888,0.17918570521961996,0.264369237740965,0.3658147332292341,0.4672617808898156,0.5529853472087343,0.6399082999763372,0.7414041998944212,0.8429757350660694,0.9252952238213634,0.8775977112670219,0.8019789904357184,0.7401886267997568,0.6910761090133413,0.6741797784150823,0.6489152981581396,0.6178355192564853,0.640793379387536,0.6393401769365656,0.5924658303317702,0.5634994805181313,0.514728374651015,0.4921047574045492,0.5253176931862296,0.532359285401145,0.5220573214530715,0.5574025400841212,0.6087150805711721,0.5942771436114764,0.6058464992899717,0.581075464617288,0.530581727706684,0.4924397121650621,0.47458147411860185,0.4566130103912647,0.43121393524975016,0.43892557740189275,0.5139831847543794,0.5110472072887893,0.4344351666773463,0.35096104064402844,0.24971030333690614,0.15933358874822634,0.07829841237100155,0.011835508671151906,HB
0.13193634277789235,0.14205151115698333,0.19708941430600735,0.28039905096842954,0.36531506904418976,0.4176587933393541,0.42705165431333514,0.4286425177274853,0.4171346301964576,0.3857731004247129,0.32584955186759634,0.26590875966799654,0.1906248657337022,0.13247266673392666,0.06343024848140777,0.016885112753833642,0.00048748403520582073,0.00722282436009003,0.06608927460781455,0.13899573341529292,0.20076441749748897,0.2638489579214669,0.2936650846307822,0.32610731101328794,0.3809114585008828,0.3745221504321612,0.3440757987252403,0.3165151941099307,0.26729255384904116,0.18107983100603375,0.0928690244800765,0.019098513347095558,0.0008993930181762089,0.0,0.00048491161364738744,0.026632223953724665,0.035528355258700905,0.012847158365024924,0.052405695809940145,0.1383203651871212,0.19317547323981854,0.18710768128161837,0.2180941632049458,0.21261582294344228,0.27083393604262884,0.3352063269535792,0.37720261721560533,0.4114658232387858,0.42498282012238686,0.41201063252559056,0.3553690672119312,0.3212194653170526,0.316371300987071,0.34979813572610574,0.379317328179805,0.40505807063832977,0.4542148489536242,0.47889316335381293,0.49071792867453334,0.4791161292480819,0.468704624000845,0.46617911241885945,0.4278819358101855,0.3999517543131321,0.4290756269784679,0.47302986821444737,0.5444061591877394,0.632205511227173,0.7173568291723353,0.7884796878885254,0.8750539105017805,0.9558719853171787,0.9363802144538176,0.8668902289318643,0.781089044624772,0.6934415251955368,0.6214759444953222,0.5715620473295924,0.5176032683942271,0.46550461997152626,0.43048348864616814,0.42596965418221844,0.4393410501080752,0.4307859508345371,0.4019466737920725,0.40495074923192487,0.4005106546702888,0.365322825993887,0.3602618536215956,0.3160332466093969,0.3142563039019759,0.31677730715534924,0.33518840550940876,0.3715907385205801,0.42005152765202114,0.4429876873112124,0.4387765775638548,0.41441882754467585,0.37163124105111933,0.3141914644456789,0.329354600644439,0.3720118190581214,0.4029423818721458,0.43243747291659007,0.46777128135325796,0.512481398296873,0.5340038821557083,0.5312724278771097,0.5541691213213911,0.5309047336479606,0.4868741257077147,0.4428105235101998,0.4244762150218828,0.4738725451882475,0.5311698122691695,0.5852271797824042,0.6709325060641924,0.7482033861991737,0.8257740556880551,0.9139118022836707,0.9944352982012208,1.0000000000000004,0.9184170635950886,0.8318999695767886,0.7612802923172577,0.6973305220393815,0.6493198176978447,0.5701082280880709,0.5134323343560929,0.4763611133852401,0.45664157602020605,0.4470744109992877,0.44687060833363024,0.46947595679632936,0.4652574294982683,0.410435309751767,0.3850225185449472,0.3630977311241108,0.3572838037801058,0.3547471761347918,0.358496948285731,0.3609150350326811,0.3960818784758193,0.4345798465061055,0.4470023267593999,0.43137248739520473,0.3858798785999009,0.3365064287159041,0.28977637347866336,0.31193705547762285,0.31685871698575285,0.3554951477487198,0.40481936053347845,0.45928448134449207,0.49225082610098125,0.5068235849708747,0.5244793009864472,0.5318563158489336,0.5447900366992022,0.49068594247698716,0.44332774731301594,0.4091197953946537,0.4119200393241216,0.4798616109081957,0.555799381505814,0.629417163891131,0.6890956863511479,0.7465170530106882,0.6919996900486418,0.647996707736783,0.5856619733649135,0.511092754129356,0.4801754836242935,0.45901389330131614,0.439545312159042,0.42317853126896043,0.42392727021841603,0.4380611402167158,0.4406558719778575,0.40251594943437086,0.36433967740837225,0.3354289257951888,0.33061169594156103,0.31584910675151434,0.3452377891190923,0.3379798107787102,0.3617650382195574,0.4221602413501553,0.44647937003066485,0.4336639074291546,0.38235998102321345,0.3214120030900012,0.3159914987314756,0.29523927043869547,0.29288398548580075,0.3142631016988946,0.3681350839254285,0.41096318566768186,0.44651105069964814,0.46391444333700305,0.46075424531411935,0.45674852506841557,0.48546523524866547,0.5010841195280573,0.4555399380204128,0.38671789854788674,0.3643966537115899,0.40781578273665087,0.4442723483249784,0.5136606814988296,0.5936375725488388,0.681865289385958,0.7688460746233505,0.840000906460054,0.9207500305919232,0.9827506175222473,0.9511017900413088,0.8636793063188044,0.7761939624122873,0.705440164886515,0.6536064698469173,0.5968680801771513,0.5112420986869681,0.4604234641793705,0.428346296272077,0.4241036043260684,0.41902198254502654,0.4240880170530743,0.41767908648108465,0.3866198182866616,0.38020458720884287,0.36327756091975916,0.31447784092926234,0.2989619830922474,0.30986937416996385,0.3000450024363963,0.3435759341033662,0.38558857365285526,0.438252653311038,0.441259673515904,0.4251917741471245,0.44588459511659995,0.4168350667108176,0.39021276454796805,0.3546139553405543,0.32243548741102135,0.29642291993389414,0.33855865381034755,0.40046444896898103,0.44836988149290935,0.48503624878779705,0.5202355817840152,0.5187676430341228,0.5293860095654197,0.5539472589561543,HB
0.8827472663834932,0.8991121987451671,0.8824876316615642,0.8455130531904782,0.8132044371478955,0.7881807078040235,0.7392502604041393,0.688867588736592,0.63238451814679,0.5931755918724377,0.550011731656189,0.4684193001258876,0.377487459379648,0.30947786411432743,0.297387105858701,0.2983802296858471,0.321599700980685,0.31448547599028487,0.3346658635590152,0.40257475798803766,0.4433688718094122,0.452780933588421,0.4638075513588995,0.5143514652277448,0.5904314074334027,0.6338399560680212,0.6571267813125834,0.6003098598786001,0.520154709490456,0.4625252280808958,0.4038531683133071,0.33699717732917067,0.3375071518692354,0.396535284203297,0.464827748068255,0.5280674614904313,0.6048995737625158,0.6754368131755193,0.7363133844364116,0.7612297931255823,0.7070799689558096,0.6247067689509809,0.5336335300724895,0.450648929847552,0.36767406731997454,0.27660311061666043,0.19385710998990557,0.11324450235141592,0.06638013477223614,0.10980278749509864,0.18663879400793393,0.27443926206995917,0.352673186264012,0.44206262760908244,0.533423051606023,0.6246410978370531,0.7073881560128097,0.7889073125456867,0.8303314256669307,0.8228511609801297,0.7845155573017353,0.7896220729791006,0.7623938392250951,0.7352526558142753,0.6859897167675131,0.6587582472970004,0.6116420033314705,0.582892742745114,0.5539880013847696,0.5581500939736497,0.5963146823893068,0.6145288433672995,0.5650187827371238,0.5166318084686901,0.4549266518672197,0.3822994589087503,0.3216944966182238,0.28968684474365736,0.3401312318551475,0.40724352270964426,0.4848952485392304,0.5416480566796298,0.6195343815129615,0.6973407443844644,0.7439157228035969,0.7164454069385822,0.6447970300912811,0.5633000995078841,0.4729481969898601,0.39380381935615283,0.3065037152346277,0.21704386603089043,0.1388334380015377,0.05135454994745636,0.0,0.03859880184506137,0.11419974776584585,0.20114703519491783,0.28345650569582315,0.3671031801982685,0.4577510585542992,0.5374435921465208,0.6240708983315355,0.7153921468706463,0.7991914871954311,0.8256639525331058,0.8459339083971047,0.8448410004706401,0.7953012355073636,0.7839817693991802,0.7891556035427936,0.7529703529566878,0.7143188472944018,0.6932847117474634,0.6749288995327971,0.6962962240681261,0.7040752270301827,0.674729610975008,0.609556609888025,0.5460251678621133,0.47273683060195193,0.4412922622259643,0.48356869625190635,0.5421462103884669,0.6157243411200173,0.694387997226789,0.7707483327883939,0.8426119828018472,0.8977688295009258,0.9146912195129175,0.8675779278326092,0.7869584887968726,0.695898275521805,0.6045352129485799,0.5132225157370436,0.42825295582708733,0.37456981839290204,0.40198045945627614,0.4743150229364117,0.5616060455637069,0.643495683538676,0.7275868242700176,0.818149706294109,0.8975364605692828,0.9793287896919924,1.0,0.9815192611370942,0.9687744033048702,0.9552280349831754,0.9288050992286911,0.8973691827220627,0.850395757494733,0.7971415995483784,0.75162779429925,0.7414211235384389,0.7595007486043244,0.7464802310942327,0.6838434028065428,0.6081713677596734,0.5373794482885978,0.46633071450668684,0.3989882792692372,0.35691940634842556,0.3836592589525698,0.44831242708136365,0.522387681696578,0.592129460615153,0.6684939755752426,0.7470610288906072,0.819080688677297,0.858338273499633,0.8762736840482557,0.8076793694771407,0.7166780373120023,0.6344454111293651,0.5506942666136734,0.45943959870352513,0.3700139943225236,0.29378747384498993,0.26096552128940553,0.321513014217802,0.4107699647791163,0.4922491148871484,0.576798259924995,0.6672626075395396,0.7463587307012989,0.8330713514485053,0.898823707819445,0.904194057959276,0.8913874690531567,0.8723867841965296,0.8528881967561781,0.8210404898408656,0.7736211273479201,0.7313372880471745,0.6830557531810504,0.6568527731459777,0.6688031907398302,0.6644229669085573,0.6100969040083042,0.5373060696908696,0.46720418899071703,0.3951260497182565,0.3269940143980321,0.28934455552705307,0.3267557362909752,0.39328494224471733,0.45924965947600027,0.5347180351921161,0.6109712116685353,0.6844496063005989,0.755563684765725,0.7956920166064485,0.8348302837762049,0.792268464636313,0.7132657659254229,0.6225144852669966,0.5324424860441965,0.4539423170409447,0.36546718421300506,0.27707610818622275,0.2116886381703167,0.22041551306630502,0.29482459300771113,0.3852855104741688,0.4654918516136659,0.5514373520485925,0.6426033995013829,0.7251995112400467,0.8078014908080489,0.8618989964284434,0.8757726671403749,0.8873236134782378,0.8646890097203914,0.8526144164102702,0.8181468846908784,0.77934145674284,0.7364461277516896,0.6881426342609571,0.658086934718292,0.6699461142341665,0.6863466513697345,0.6579480105049766,0.5792775090393616,0.507914737723119,0.4385568906533712,0.36707860480622756,0.3215092433289275,0.348009265436219,0.41010436897845537,0.48507894489218417,0.5561976760472089,0.6351841064286496,0.7112888206020163,0.7757453992025987,HB
0.8487652485594301,0.872902292588762,0.8600732573726453,0.872218823730992,0.9167523300454952,0.9017640693337379,0.8155987004001273,0.7385259648176512,0.653819166934285,0.563635286228735,0.4734650642476148,0.3916723903886701,0.34470229622048354,0.3168550450962253,0.2564591535213703,0.19317688005179434,0.11196637246587882,0.035215769754418424,0.0,0.05559520917449401,0.13472719770378383,0.21394678256677402,0.3035363589116664,0.38175346791946785,0.4601633561095966,0.49484561678541805,0.5390005762364996,0.6165364925697308,0.6821995657773234,0.726112964436453,0.7340527688807441,0.714389705606242,0.6892067457660294,0.6748229066824574,0.6101924539074264,0.5204478162427697,0.430314859495903,0.35369828851378937,0.333636288973187,0.3328197843496712,0.33966745924148123,0.36675053244878697,0.3475729551898432,0.37850574947818183,0.4484338663908636,0.49589441620781827,0.49869024577359333,0.5210363575588537,0.5316275026994801,0.6095745368559262,0.6745888735247143,0.7133738111984598,0.7442936985243476,0.7453040515744296,0.7777495881953578,0.8296641707240009,0.8649243942693392,0.8482484956889573,0.8067469873242343,0.7772658840461184,0.760534167556727,0.7815497792257049,0.7772780810325322,0.80084061140411,0.7861383649735214,0.7844934210775119,0.7912035861377995,0.7667978722932007,0.7609439099738893,0.7207432979921009,0.6736888368425231,0.6832342872789825,0.7286109666781342,0.7686131615883736,0.8325751050920851,0.8639850461778349,0.8766274615169416,0.8842740767115584,0.9288925658245746,0.9650860730031492,0.8928264981571647,0.8027558970510427,0.720926151286152,0.6412392417107902,0.5512207695951932,0.4610086153910391,0.3707964611868859,0.2805843069827323,0.19069787984867315,0.11536190896640441,0.09156984397236956,0.14423049172976032,0.22847244174225922,0.30403814356999703,0.390375562306033,0.4670602405103401,0.5467254286991725,0.619250214895747,0.6874935710539383,0.7444264575710475,0.7655942304408194,0.7552426986455933,0.756258866828452,0.7719415795977294,0.7992465637606081,0.8479896457434037,0.8991645968016804,0.9563301531253154,1.0,0.9781669233502686,0.9356886411488547,0.8875084912187878,0.8615981212819515,0.8600188026052202,0.8630345299103146,0.8330461586702129,0.8225190662553774,0.8255198161751167,0.8273943884644108,0.8210733969641475,0.8002652386146338,0.7914189205833888,0.7335648968154458,0.6922736678880437,0.6855265673798003,0.7388421918657069,0.796113076199163,0.8606753733899524,0.9005904493590489,0.8844953289798565,0.8817134085712435,0.9280881888739869,0.9234800847037987,0.8499578729158968,0.760489688657072,0.6794619405020601,0.5989885353930062,0.5089361735462643,0.4187258911917633,0.3308100612403764,0.25554913503910637,0.16727393218715836,0.07998055784626112,0.03670389755973602,0.07018389791227397,0.1398144217695383,0.21828439763038388,0.29911632993097115,0.3852264533769114,0.4611289339428124,0.5415322082174643,0.6214705519367754,0.7010030151839799,0.7691590732404903,0.7927394488820756,0.7938325041623693,0.8046877006163413,0.8002138108457659,0.8212027507848472,0.86303091544085,0.9191522415961617,0.965779357552293,0.9937966522426231,0.9759652663942826,0.9251408968724157,0.882665271835398,0.853226080485141,0.8372120279483202,0.8402086993731346,0.8317707864073856,0.8316324650739562,0.8283810240596607,0.8101018707940435,0.7794533620919482,0.7524677194452201,0.6953326593229958,0.6887276880152138,0.7175980996303117,0.7701199266033196,0.8241942325070779,0.8666533955160607,0.8854326696713102,0.8983649469615709,0.9492468888482843,0.9457186416662156,0.8612954299545761,0.7855259573193552,0.6989091451466729,0.6087984107610089,0.5274004797349603,0.447290072564535,0.3572533521321666,0.2670550510009648,0.18141302213177068,0.10570506710386729,0.054186888420253876,0.0985552344028009,0.1857155791809495,0.26823493800929477,0.3472882417580374,0.43614922214422647,0.5118872545915494,0.5912747270491923,0.6599698004561274,0.7318309010566741,0.7977550365452313,0.8294523434785548,0.8176841753640756,0.8277333625645173,0.8383906575744318,0.8561865016047596,0.8785275764296991,0.9129481368041832,0.9624995045032496,0.9682687427124277,0.9361296863283655,0.8923360727631895,0.8689246040453082,0.8551655107518115,0.8622936315058665,0.8469970635259418,0.8330519987607952,0.8367063295708408,0.82674987605674,0.8014193311768834,0.7703185181548751,0.7264224463298068,0.7023658063325091,0.7368496249867218,0.7822227428064004,0.8274812430927585,0.8667268910294892,0.8848916126226349,0.9037696004930349,0.9535472771697244,0.9327835438789509,0.8472896629664528,0.7719643957430855,0.6835658226075609,0.5936776557821211,0.5151617147850831,0.4320711708474567,0.3419044952034076,0.2517515397016834,0.1688163294742666,0.09384832837517187,0.05970380150808241,0.11395135897664455,0.19301397603070836,0.27238671431939165,0.35939000659665554,0.43476708913650874,0.519589009402901,0.5923670111821027,0.6605898109998187,HB
0.8487771087157476,0.8482597778648335,0.8542130619773602,0.8001363550259577,0.7734402025111886,0.7410907330130279,0.7628750665155577,0.8245959050412415,0.8638226314549522,0.8749918785734083,0.9007790303416523,0.8867753094040483,0.8412471650536686,0.7506190430200879,0.6668438829705794,0.6385771960225712,0.5763805442026033,0.48135433742389866,0.38560295872748807,0.2914190366735707,0.23681577589742941,0.21862809935790928,0.15750050480018007,0.06821114114804727,0.004673837889647814,0.0,0.06013559282013059,0.14559658583125445,0.21644362409471052,0.2835435237751991,0.3667706060172984,0.44745308460274424,0.5357844559279501,0.624472422198389,0.7049928495366524,0.7911866781278913,0.8655804127217004,0.9041660504284166,0.9509476971362658,0.9617055206931844,0.930413111093094,0.9230617811475028,0.8828511868745523,0.8236453085415567,0.7665589121412197,0.7235881882684452,0.6556625292699878,0.6028567020059175,0.5455819138039248,0.5261502805977476,0.5521310633148357,0.6079331692412109,0.6582963906812145,0.6946127445779897,0.7472975199252074,0.793761300755139,0.8016742282683293,0.7996004553451828,0.8164526274152242,0.8256327790193989,0.8336509185033223,0.791869117862821,0.7462080584891595,0.716366270775362,0.6919637345009475,0.7297782476894419,0.7846254780880884,0.8192125203880338,0.8511110205551589,0.8830440292191386,0.9047494271984111,0.8589438103714899,0.7673783185280647,0.678274403291848,0.5980932958227867,0.5028605521352758,0.4071104728643813,0.31383079705405725,0.23599929229400196,0.14261312816476623,0.051759005620091614,0.009138696728486995,0.036072612776486324,0.10281986181384672,0.1901214858440592,0.28562765372116505,0.36929486130920486,0.45468955687579493,0.5498786078952413,0.6305134603116587,0.7188887190113409,0.8020222621509956,0.8738876950793117,0.9391889481274931,0.9597897213751541,0.9712424083706299,0.9383794824030929,0.905562915907451,0.8674404399966673,0.8169377084952716,0.7673421796373354,0.7034612068386035,0.6398861972900822,0.5944638695741897,0.5541011562652542,0.5684469373728298,0.6281006244352789,0.679594337626265,0.734255064176986,0.7958974668866969,0.837659034971582,0.8454515287844906,0.8720117427244145,0.8879958184511199,0.8706907904150123,0.8643672711362891,0.828771923640824,0.7989660086264019,0.7765022254449998,0.7611080894481868,0.816462574932177,0.8783461578379219,0.8899737815213076,0.9106291386219665,0.9186273903961664,0.8788279987919987,0.8053483419579934,0.7120319950098293,0.6162812944511078,0.5211290024013082,0.4408842161418143,0.3517532240072403,0.2572083099858262,0.17943098383737244,0.11078361684076299,0.0975703769056735,0.14455307326787104,0.23593461273862015,0.32549244802240196,0.40537443316692423,0.5004511421884104,0.5962019361433386,0.6897939001739575,0.7675345575250301,0.8529204114545021,0.9100634224365747,0.9305749948602826,0.9138088334967183,0.9007382519431135,0.8635797030038028,0.821045273199128,0.7823885062911731,0.727283004250507,0.6641489042414035,0.6070247148668142,0.5666252302170998,0.5506975151803912,0.5858856405657158,0.6406625840383064,0.6834526131027361,0.7249125662085842,0.7620915164595936,0.7850194918426854,0.7792570791350686,0.7892019176716238,0.7984385547663235,0.7946792315479185,0.7724432810821238,0.7516901985773772,0.7213478230173536,0.72218209360588,0.7804606470791011,0.8366395491724852,0.869574749002489,0.8964652506314046,0.9117212012382958,0.8835327910911817,0.7941235466116479,0.700835558305196,0.6229982872194539,0.5296307545308383,0.43388096356998096,0.3402000303674586,0.2622660438234492,0.17756212933096416,0.14255062799420193,0.17927317877078863,0.2554048091116621,0.34073504342721295,0.4363661946435098,0.5268536094704217,0.6059228517984647,0.6935806361730017,0.7729252846131449,0.8500846186799533,0.9238488164641367,0.9514377153166413,0.9146817288086591,0.8903461885188451,0.8807534420367875,0.8292468124889982,0.7787125718409507,0.7384422522127072,0.6764103570899014,0.6243554614760263,0.5704388058435983,0.5145401528124167,0.5172353929106932,0.5576872523567094,0.6102373211805885,0.6596649198086029,0.7167414432509931,0.764703207420788,0.790224839895453,0.8087307542947544,0.8358779046549669,0.8754965078651082,0.8512055554390625,0.8532597914149926,0.8568998059754245,0.8249263527777262,0.8055880970636959,0.8041532605130217,0.8552340753186085,0.9242645894240762,0.957817194832089,0.9744835695835428,0.9488389881647086,0.901921444060894,0.821584473122932,0.7405659625709453,0.6524648100729631,0.5567599450219012,0.4610551312757245,0.374178243542461,0.29194197268330724,0.19908945313641668,0.12155363679040043,0.054490773501413514,0.056653621406076216,0.11442200761653165,0.204455866318213,0.2956784429671542,0.37419567847123947,0.46894519704982596,0.5613124714084972,0.6393948113358885,0.7334502514378003,0.8285083850374382,0.9080494231073302,0.9800632669132265,1.0,0.9813410321683302,0.9616370303015374,0.9430583671678998,HB
0.5765040144113089,0.5842837292003753,0.6318581589318377,0.6837570866690097,0.7186537857813282,0.7563500909957517,0.7939548719789222,0.8228684142644704,0.8464846927793523,0.8606476273831478,0.860954435166819,0.8605795566097902,0.8471206869040895,0.8550783078813229,0.8609529415666053,0.8667440350454068,0.8785186929882198,0.8605246460507909,0.8292015329276579,0.7918541275953372,0.762105749866731,0.7635214650650024,0.7875606478198969,0.8162208979197643,0.8617224361923386,0.8924903472078602,0.9290448104750846,0.967089317266427,1.0,0.9918217017381856,0.9401273538382502,0.8831264960220735,0.8241156373934735,0.7506803743320565,0.6909455189837934,0.6176706258888056,0.5430991960354059,0.48338351999449447,0.4100490646814934,0.33551755797211635,0.27584434640070166,0.2092854030486344,0.1870126099412892,0.22984936460481808,0.28760893543251376,0.3614307427125203,0.42702209507411437,0.4931269176210282,0.5691644682670063,0.6398306503419184,0.701138457182712,0.7760328663120455,0.8368175165502119,0.90410894432654,0.947756016540585,0.9603178695811887,0.9537399984755903,0.9533783288559454,0.9336206713483497,0.9050215209471353,0.8857578354960345,0.8628481544900217,0.8337294757091751,0.8086159160195883,0.7945913802452305,0.7715419273292432,0.7578330949190311,0.7696140751569698,0.7981591395806995,0.8333808805380061,0.8592709038865309,0.8798637986440858,0.8816674512346827,0.8816678976100607,0.881667897610062,0.8816678976100634,0.8816678976100643,0.8814911193239636,0.8675945172288828,0.8306727525497646,0.7901821251052685,0.7524170671369106,0.7372550599855914,0.7488729442481867,0.7795452070156719,0.8197839492898971,0.8646869208863559,0.8994812002607095,0.9353444997501676,0.9516478474149426,0.957976219271373,0.9414469880331384,0.8813872036576016,0.8214534160337288,0.7568663999401037,0.6906680781881032,0.6152973900682976,0.5545695506712773,0.48314552945491185,0.40771575200500854,0.34706458010111074,0.27552396824759917,0.19943575371201305,0.12886434118761647,0.06758985069992107,0.00860760233357638,0.0,0.04845900953058413,0.11878442273139012,0.17934614922664505,0.2547404343291242,0.3308522551498365,0.4069640759705493,0.48307526293822534,0.5576186495291715,0.6171666329081851,0.6906878450196317,0.7620125067410979,0.8218636850621666,0.874129003231201,0.9055361189965683,0.9224791502118195,0.913074105926055,0.9023219215795493,0.8881586747618191,0.8625246883611504,0.8386833374412554,0.807037296098505,0.7816868117072935,0.7598331657511808,0.7450605958236824,0.736870214011347,0.7492959046976497,0.7770574432203299,0.8033423038733587,0.8352349771345127,0.8413958021320864,0.8573379367809801,0.8454594837301834,0.8240565959643429,0.8399877203380282,0.8505840067906205,0.8403985694042078,0.840190851570584,0.8309082986048484,0.8039925416015246,0.7776721728144054,0.7491371893746424,0.7206197428682071,0.7346878485139872,0.7599636686018134,0.8072617293573403,0.8531286124788151,0.8755518448008703,0.920690436483409,0.9568563847020357,0.9705138372499862,0.9674127715580285,0.919878309439468,0.8626764062394829,0.7974600616182519,0.7214837880493397,0.6453747347559649,0.5726203229655784,0.512772728184677,0.43775242227426947,0.36516472960596813,0.31577317008102224,0.26982644587821536,0.21418167425849788,0.20801461768201657,0.25608832193887654,0.31472959325711614,0.3890580795900922,0.45273884518810004,0.5207985372761907,0.5930954308090248,0.6532227081765805,0.7283060143979965,0.7955591797331736,0.8592859072608094,0.9172045118044183,0.9433170017460601,0.9438082849397302,0.9425640083264124,0.9236191139394072,0.9020444247424941,0.883741016271713,0.8680116566082106,0.8428339567969028,0.8215408736165637,0.8057145117272273,0.782471032893302,0.7848067447958447,0.8151138133222058,0.8454806052934956,0.8723846036684528,0.8816182276265678,0.8816678976101344,0.8816678976101358,0.8816678976101366,0.881667897610138,0.8816678976101393,0.8814775641645154,0.8632998096429594,0.8207915242297834,0.7905959809656049,0.7613187831898642,0.7580942164541846,0.7785529089852741,0.8162588432243174,0.8543134587875549,0.890919294850395,0.9204848702260069,0.9579988881108172,0.9854774376470554,0.9944384884947479,0.9437825933263557,0.8863832632157891,0.8224503640437093,0.757041227838767,0.690909928529237,0.6150054848475772,0.5495575368250551,0.4832916034150876,0.4072894572589436,0.33298448072845055,0.2733997318474728,0.2003571967008151,0.14205634289686397,0.12415293179262221,0.16969877365037211,0.23990423238285263,0.3047193643778412,0.37160026807204094,0.44764300200114215,0.5176485037988887,0.5795644440243208,0.6552645632084544,0.7251534743690549,0.787171485814727,0.859627027331614,0.9124066992234137,0.9419830744741331,0.9438079099844505,0.9423171450716992,0.9257716255752402,0.9107768829452696,0.8824075686801329,0.8534945173781359,0.8283821358119137,0.8091875189225579,0.7851474186972554,0.7718580287391115,0.7630478989302363,HB
0.15558944424669008,0.2335622207989796,0.3100472583388423,0.3839399616777661,0.4675840808818936,0.5433948794167933,0.6179531258491822,0.7012925773278043,0.7732608943163966,0.851848668158893,0.9319743323156868,0.9913155029571334,0.9819817572466647,0.9144767404724363,0.8426879330479005,0.769672486569648,0.6989719872693883,0.6390239842841634,0.616796065919377,0.5991127546052244,0.5624021176122485,0.5207184758626404,0.4823602766983077,0.4599325635680658,0.496390638016051,0.5095252339031897,0.49073126147794044,0.4505846248757557,0.4438639607788648,0.46450505772341133,0.5033373241296091,0.5667056628771823,0.6252934110650421,0.686678329059025,0.7496215535707242,0.806231583324994,0.8283593034648362,0.8039118981165942,0.7497683073278014,0.6937428444246865,0.6339167625920124,0.5787158082146653,0.5344392208846247,0.48795344306667765,0.4596861721727219,0.44020076829318233,0.42853608878772853,0.38432711009855725,0.32943684456910116,0.270380155650487,0.21265870196631687,0.1495505261022263,0.13425633076961008,0.19820797634228704,0.28081490687088717,0.3643166698517333,0.43624892915468294,0.5148864334505574,0.5981990986902193,0.6696539856986905,0.748908609232044,0.8284642561336417,0.8938913858915001,0.9053565362456948,0.8475313110142189,0.7693677554849137,0.6988867424542278,0.6198464162854678,0.5533219413214803,0.5136233998527415,0.4950718393340372,0.46164237733442137,0.4212012185636431,0.38486299535229307,0.367532789547218,0.4019844902401273,0.4366588001296354,0.46670665619388174,0.4777994416725906,0.49375958003984133,0.5147768903090335,0.5608861521654842,0.6167769483057781,0.6729163973138785,0.7338177379809343,0.796686068739787,0.8577857726277656,0.9041978573547444,0.9116264529319791,0.8661088015100677,0.8149560262255577,0.7555509844726909,0.6978592612485643,0.6419283803061413,0.5900168437175881,0.5483134422542042,0.5287021367047484,0.5177498811045123,0.4897233722824752,0.4453487368154887,0.3917415901839001,0.3309131691332716,0.27176447982464946,0.22791516142394608,0.2720822573571029,0.35534912986105915,0.4391115189745398,0.5135226237759558,0.5894934532318974,0.6712696527700248,0.7413571267135044,0.8234373480219168,0.907351275530643,0.9842871936292772,1.0,0.9476835379963182,0.8716291905286964,0.7993774029207175,0.7230033748686124,0.6545582060390682,0.596603568071072,0.5793419226601659,0.5557241202481675,0.5071853572105414,0.4540906807116758,0.4178497289834753,0.38380775929485855,0.4190811350078629,0.4537459697732271,0.48045436878431236,0.49231078574803844,0.48437678445578003,0.4933679284520305,0.536601479848033,0.5938710474776587,0.6564981433223926,0.7163506723015463,0.7780112746327665,0.8408456591230871,0.8916834766309387,0.8944804195838021,0.8522909629307875,0.8037604893609043,0.7596032790207059,0.7044551456271808,0.6440605704399642,0.5870927218099276,0.5385328785037156,0.4907666295697304,0.45894956124325725,0.43505215048446777,0.40569370645892455,0.3647074856758197,0.3158768056841246,0.2503711621515903,0.19027219932656525,0.13563958403077248,0.08355359627942738,0.13659500393469015,0.2202503747518434,0.29919390095093545,0.3709451723754027,0.45428815303783265,0.5326614805023491,0.6048918934700271,0.6883543781858203,0.772262207023918,0.8467358592738683,0.8553050433629985,0.8002956001506214,0.723001549234568,0.651842212341184,0.5812073210371484,0.5115899852840871,0.47645764909316357,0.4584085859227933,0.42236441904194333,0.38516326004169077,0.34688735396760073,0.3123541123444835,0.3430827992297871,0.3793409359980644,0.41497098319320447,0.42941337173145167,0.4409152854834746,0.46188405587289516,0.5009695784318082,0.5527800907247022,0.6087095376834188,0.6663635196874318,0.7266176404379907,0.7859802797536015,0.8303175300574028,0.8330631058691509,0.788304526054461,0.7347627770895966,0.6770228659051214,0.6223302059084039,0.5640419346957088,0.5119707757575327,0.4615542434531612,0.41420809531111846,0.3747804632358154,0.3329980697265369,0.31237880728803313,0.28208718289626455,0.2281030171839733,0.1661225994605755,0.108003326984496,0.04263328449450343,0.0,0.059446289114133855,0.14316360641225723,0.21999298959355817,0.2935674558087986,0.3772711054559612,0.4612009548770182,0.5451308042980751,0.6286674905603387,0.7009242690340827,0.7784092313491189,0.8365525562086691,0.8220983948907672,0.7616182833583536,0.6825772397857657,0.6124512339399439,0.5335856049387164,0.46918035974202654,0.4257711691310955,0.4064872630003489,0.373116106425571,0.335426792092099,0.29900543611769015,0.2746734586759634,0.30495676676771577,0.34280610712281945,0.374136201608005,0.3950462504188641,0.4048349988211255,0.42246720010306316,0.46161893673350685,0.5159404926593236,0.5718881964808156,0.628239714502929,0.6898987302922923,0.7509563000613042,0.7897776718433054,0.7762305779781133,0.7240137644687819,0.6671686085008246,0.6064784851118348,0.5515008815223132,0.5000697589605152,0.44859629445376337,0.415490782504766,HB
0.7351967824860486,0.7637497539352647,0.7902799608223186,0.8095729612521172,0.8206548949461512,0.8072806206463832,0.8062617333035615,0.8062614173959677,0.8055055715842094,0.7912735872229195,0.7680233632710989,0.7271568068485612,0.6907582760122164,0.6532026485367481,0.6231639126422897,0.6250028329156438,0.656648870878549,0.7065680636260421,0.7714407489128488,0.8253668464505526,0.8513509402883583,0.8854744404333736,0.9071632257284783,0.8600760092915212,0.7832746996142546,0.7060946123787453,0.6289369436563907,0.5576277371476595,0.49274930866309186,0.4159236717732351,0.3387447065543614,0.2634439208084829,0.2008422880703673,0.12592255323594959,0.06348625456589829,0.05330747357762089,0.10254768585605634,0.17043012593667717,0.2367577990720089,0.30642467396458306,0.38210595448317086,0.4445467684493374,0.5193620397801859,0.5939157340230801,0.6566517824511844,0.7323471839720681,0.8057248354509925,0.8671375622455901,0.9171148200548598,0.9166828984779696,0.9023817901110376,0.9134157211950256,0.9022992183556284,0.8810497929697099,0.8629819519790161,0.8479572708435428,0.7989700199021161,0.7637209890208707,0.7214298749103123,0.6963847663787832,0.6971078004789453,0.7273734393645235,0.7643706437744657,0.7770321621967873,0.8102107830998961,0.8261211881631101,0.8410357249708666,0.8452222882712612,0.8474212980664269,0.8384101982103842,0.8325722208979438,0.8423012882333132,0.8211285326564544,0.7927654142288021,0.7531302920298817,0.7055191964836749,0.6729991273196254,0.6624973743250964,0.6987208340860431,0.7447161025810165,0.7956705983347194,0.8449696534761211,0.8871341114552003,0.9284522296284337,0.9456835465645832,0.9501579746069462,0.8941502131561387,0.817972705052747,0.7407929173847849,0.6637825365674899,0.5973163033307003,0.5277425094996469,0.45062197677927474,0.3739789917089835,0.30971982776431073,0.23761457792802787,0.16321989087756084,0.11307083825187636,0.1275783047416148,0.18882193445006212,0.2548136319540846,0.3149013388399009,0.36601645508254155,0.43309546006494504,0.5003717973035422,0.5771977431864399,0.6439090020395821,0.7132861889863409,0.7900406200658274,0.8548136537996807,0.9192034523227721,0.9623098593286405,1.0,0.9965580359189685,0.9909605327415889,0.9701827650599184,0.9452782924485468,0.940304095249163,0.9005429287647382,0.8623153539880186,0.8311304908992851,0.787519543273167,0.7324891194590499,0.6982791767140806,0.6950124895081835,0.7018355597380408,0.7283526369528199,0.7512325635072066,0.7753735340200092,0.7875775939495688,0.7902962269641671,0.7998467930337738,0.7915256383479026,0.7949037701456114,0.795139081582982,0.7893950107240042,0.7770159124934626,0.7626852147650056,0.7142361214117092,0.6639550304929598,0.6235860999836467,0.5925151649425802,0.5743891529895682,0.6040382851279631,0.6398244123531698,0.6899522931621838,0.7384211745458504,0.7809271140791876,0.826979248893895,0.866708472251418,0.8986183095345712,0.8672887478779185,0.7910582313047754,0.7150527223926164,0.6522158621970218,0.5780621176308598,0.5008872362324399,0.42386628753967726,0.35713576125099067,0.28783261625727574,0.21071714530943053,0.1352365832456237,0.07270474299758911,0.010680959186625039,0.0,0.04797538883278207,0.11077880884142344,0.18729312117845387,0.26447320841396316,0.3416527727679348,0.41750461826152385,0.48000706432982776,0.5545011554765527,0.6221669310388394,0.6905480159647359,0.7644522253798915,0.8234199819452304,0.8715819339624096,0.9112212494495342,0.9200229801842466,0.9427914551817236,0.9331440403528211,0.9123205643911416,0.8885020890373685,0.8677347249592628,0.8302734472163715,0.7897132191133571,0.7545069218304019,0.7216787580536512,0.686376547690096,0.6910679733768812,0.7165652187229861,0.7479785078532557,0.7895106217273589,0.8128758347528966,0.8245799646726288,0.8248108257326869,0.8248108257326892,0.8248096710359603,0.8229147126796059,0.8114012716132959,0.8133890372742116,0.7915926580705479,0.758350837975799,0.7347609783505873,0.679042381115452,0.6322111139104014,0.6102907444125023,0.6243255104187533,0.6569465705535307,0.7049893181255777,0.762796714864892,0.8204067285772005,0.8583272175867496,0.8712049889943478,0.9003205668696408,0.859398241593845,0.7870135125144997,0.7232994853282753,0.6468818469205484,0.5697045511099228,0.4955982109116124,0.43275788571031093,0.35671065849097516,0.2795326192081613,0.20458419504542436,0.1421027250835496,0.06977882933059476,0.03301806115656225,0.06217230093380932,0.12365895086076018,0.19274881735481086,0.2695125511729519,0.33450322077949846,0.4056676329999602,0.4775201750967062,0.5419758416569938,0.6175652730572874,0.6805016094657255,0.7540834546544835,0.8186576220699906,0.8849053813374885,0.9297434187947529,0.9360945180076787,0.9361050208252517,0.9326525207653158,0.9035479823060824,0.8833777580828239,0.8529868084446064,0.8218155686439532,0.7811254222709061,0.7455140074401978,0.7108823878842347,0.6959212324657407,0.7087156306341202,HB
0.5519463381386962,0.6298535966707797,0.7168779429004579,0.8038739574514167,0.8774249368514035,0.8524993239624092,0.7881375146120297,0.7236702841070728,0.6882180826691511,0.6874615594708682,0.6874373923796315,0.6774725893057529,0.6703484446346457,0.6867071906896025,0.6689407431437053,0.6552298625435529,0.6358776746541319,0.6151979306803637,0.586291657296631,0.5612854398289202,0.5527260816210586,0.5380311489377223,0.5714531834500112,0.585070621589757,0.6160678219630005,0.6303181149494503,0.5936610303005057,0.5501736244443243,0.5157261445474126,0.5353216327508856,0.5573508963111897,0.5585810949148811,0.5653468003249595,0.6128148628883863,0.6457826074943065,0.6615155366535928,0.6700292900222391,0.6709182993785707,0.6605440073997042,0.6319342929030474,0.5744027960846201,0.5028282153604962,0.4581779719117196,0.3968792308670577,0.32579782354769904,0.25103899821648756,0.17549414064324953,0.10444794510005284,0.042873106062962574,0.020918869341376656,0.07082367230365172,0.1369113782024174,0.22255986891852464,0.309594816759474,0.39432597767509314,0.4605183601969185,0.5449286769220314,0.6319643687270138,0.7190007822548696,0.8060336614148942,0.8873321215223906,0.8709014582368773,0.8058660762772534,0.7358290159049417,0.6813167547026233,0.6618127796848987,0.6459770892341754,0.6423856617327446,0.6593049214279678,0.6439204169973318,0.6605530965855073,0.6547721141542504,0.6364994779971398,0.6300781886690028,0.5951073216261986,0.5801585451322944,0.5689362884376483,0.5840868094269012,0.5848449872073647,0.6023042519997888,0.6228933374005199,0.6355638514568818,0.6176132687715881,0.5748874842595693,0.538062099025058,0.5446275832368062,0.5584836536555513,0.568486250616528,0.5902528340803097,0.628627851137598,0.6786721050351141,0.701377164066924,0.7131620842425792,0.7132385918299726,0.7118969107739113,0.682365288426618,0.6252807495187587,0.5716618587126407,0.5278261852561372,0.47213740505851787,0.3878021692470881,0.31737891382192585,0.24054010664557035,0.1763901021581522,0.15311196224301638,0.19923813901590837,0.27828387890871653,0.3451087112486122,0.4309013069237806,0.5179375691226462,0.604969546875187,0.6883760307808156,0.7547194245050775,0.8403061559530154,0.9273204034658051,1.0000000000000004,0.9749005446851968,0.9020265562659948,0.8325391919655325,0.7758299276821297,0.7469730777788732,0.7390291174889847,0.7307120210685425,0.71369845260925,0.713238821733658,0.7132385452672367,0.7118294190761172,0.6890708230640228,0.6537556771569517,0.6210760528844852,0.5872267201172741,0.565537088748004,0.5586846664646221,0.5712588555544413,0.6002340292636004,0.628596051566054,0.6317633034744037,0.6052658082863362,0.5686469222413915,0.5609211209051321,0.5749375780198798,0.5594850812513994,0.5742069223630613,0.5987880451622973,0.6479319633535954,0.670494055934078,0.6987260219275702,0.7130757208226517,0.7113356825108563,0.6902310466677455,0.6677218703489483,0.6046870851265083,0.5465118429557418,0.48698683129969256,0.4213849075390965,0.34369361195048365,0.2713398890894725,0.19519950704820488,0.11383799875309153,0.048552767104599326,0.0,0.018033933791433476,0.08026955839021399,0.16548668301059832,0.24275552365162634,0.31406951149695184,0.400878141869228,0.4879145408462189,0.5745411205618995,0.6450886263688056,0.7232671050863,0.8102785454050294,0.8925915221785057,0.8869600872198711,0.8038371053226636,0.7350139003508498,0.6942050380579619,0.6665738085823034,0.663077135607701,0.6831578557571789,0.6874583829492704,0.6836546795859451,0.6633429908770538,0.6591816526281273,0.6371609857608322,0.6148974783189787,0.6009781225234359,0.5726749286940298,0.5695455200751707,0.6043663931245153,0.6107359872835763,0.633379644581455,0.6604258771607907,0.6598623527918579,0.6290816929097427,0.5858433450563951,0.5594607198832766,0.5585776508152498,0.5614943131879264,0.583585416561657,0.607976032926929,0.6511691233129002,0.6950628270742762,0.7422800736132618,0.749065232477355,0.7390741595647916,0.7330350120055216,0.7107482172390678,0.6651209881020299,0.6073605813344005,0.5487159829864292,0.4841120901901994,0.43103845093985216,0.3479376343837277,0.27424587052261273,0.20217663237925487,0.1421457795273322,0.12474962846194382,0.18400318807178984,0.27077841572487094,0.35780647848900315,0.43859037687104285,0.5068393388877896,0.5931467348193347,0.6801831483471932,0.7672195618750481,0.8539623609302649,0.9256435172135986,0.9792991445956276,0.9374600081459232,0.8592085731814962,0.7940286328243782,0.7414475813270127,0.7140461852917919,0.6961949027722549,0.7016847532812904,0.6910374247243856,0.6874658083545531,0.6874614547049407,0.6874612917352629,0.6861827948918546,0.6589941414483103,0.6267724717905838,0.6104646577152644,0.6101411802024814,0.6170276475872245,0.6552497864724605,0.6974048214721189,0.7080953906499956,0.6865063125185338,0.653804460671592,0.6103602260460366,0.5693972157675318,0.5713917410027958,0.5635222360762264,HB
0.7201270377767437,0.7749394653567077,0.8320503454322381,0.8679575984973882,0.8862254714190727,0.8821632075719816,0.8663384863642074,0.8546021971279703,0.870886336612481,0.9000827340204323,0.9110793029266087,0.9277072736448289,0.9217891499648614,0.8858051042978259,0.8508449647234109,0.8123376721051043,0.7752352868484684,0.74533579280134,0.7158369291480908,0.7095010184583943,0.7332006527824966,0.7292913773738627,0.731448844273447,0.7597614612813439,0.7596885273675293,0.7477085097106122,0.7496220825064861,0.7149210369502108,0.6902951352936766,0.6470552244730268,0.60961492475528,0.5751469039928114,0.5652755858229859,0.5927442500502345,0.6305291503091017,0.6723921107308017,0.7186391875312959,0.7659970035165791,0.8106003679939247,0.8379027948321403,0.8304070248251798,0.8345372038163203,0.7944224615807705,0.7478748568933882,0.6771437112613583,0.615407485873559,0.5391398829668805,0.4638552663972604,0.4033146188992114,0.3287870964970079,0.2574837688324947,0.19493271501783704,0.12655389853344712,0.08324879339018976,0.09446132533038698,0.15319628599515056,0.2296261381037259,0.2936595220298641,0.3632595141286763,0.43864399383488717,0.4990172848182999,0.5666278614074169,0.6195523906332321,0.684994747605951,0.7425374407258509,0.7978028746971453,0.854912579978302,0.8873809344304888,0.8881611331479262,0.8881611331479298,0.8881633500967894,0.8911210028391485,0.9096890420774808,0.9277887780607466,0.9376487909797562,0.9451426481753153,0.904924193818839,0.8539806503202136,0.8153175019458696,0.782643682837509,0.7508051496510437,0.7264144548861502,0.7220293370381397,0.7220257030408281,0.7255637198167224,0.7417497498788292,0.7483569049963283,0.7623987029977028,0.7452889471065838,0.710325719175743,0.6727412885611543,0.636385322485244,0.601538563553071,0.579408012404651,0.5908397072930636,0.6357627921446674,0.6697257545790687,0.7195052155182258,0.7603600578746619,0.8074984387950206,0.8412523343112333,0.8440866749032159,0.8148891054551957,0.7812998387906336,0.7354502559190039,0.6662915332749222,0.5990816809047135,0.5328108451986364,0.45591202516622253,0.3841123640042703,0.3219220752435765,0.24555466215770405,0.1742821135778927,0.11202415311624803,0.06179909518160143,0.08477014252977355,0.14646979905922874,0.2153588392507193,0.28821576215046685,0.3494652611617006,0.42505751834897954,0.4873001806505206,0.5485202572469157,0.5897645227895008,0.6491551155778721,0.7051895120208926,0.7611648983535813,0.818684984873538,0.8712258558644361,0.8996117028524422,0.9350251078900085,0.9501062096729758,0.9504645471449775,0.9506144772005469,0.9618441425860378,0.9807628361125347,0.991424094257022,0.9752650466693709,0.9495272813624203,0.9113593181626856,0.8675055908665894,0.8342875936501009,0.8032904871711506,0.7857146758040239,0.7843226947093052,0.7843221098198305,0.7843221098198332,0.7843381194403194,0.7896844518687907,0.7917100994389346,0.7670639243472692,0.7241218611297788,0.6978574308908785,0.6562865825034216,0.6155381518599903,0.5982100767442002,0.6077297003510447,0.6442179482615784,0.6903129999497906,0.7416290953481961,0.792691961390025,0.8312129484397834,0.8481493388883861,0.8584234554246857,0.8289158004231285,0.7829188174127282,0.7398439420209106,0.6661048869748893,0.5893966404092787,0.525780834589793,0.45572090689929645,0.3790875835497136,0.316055615845805,0.24549340234957562,0.1797451007617048,0.118462921998844,0.10463476973154595,0.14682599573644417,0.2144514908524351,0.27811875317030266,0.3547932546903354,0.4241750899024832,0.4884278100298691,0.5648035092259445,0.6280912353103303,0.691504927304218,0.7438810530766236,0.7951476358153222,0.8464416144013249,0.8858780201185046,0.9074198425922941,0.9224040180010182,0.9144255677994635,0.9195145103646332,0.9298688907985357,0.9435574352141813,0.9727397033374765,0.9959421353920668,1.0,0.9720634405486739,0.9417389091397439,0.8978616830992898,0.8581010084236245,0.8281877342365598,0.7986912271627631,0.7787902901757251,0.7640992115243597,0.7635543051542859,0.7634852861336707,0.7532007888090613,0.7536158362786742,0.7506490797323702,0.7351069071454126,0.6930042459174834,0.6585376064805528,0.6162881268344496,0.5719771086861543,0.5474819375451512,0.5446745896829208,0.5766674546638675,0.6115939448403114,0.6586635984365414,0.7074284541215636,0.7539061882254465,0.7951498307118703,0.8235445921146516,0.8130632730045781,0.7762514658754145,0.742001039005789,0.686863254488773,0.6249051585650731,0.5533765869180134,0.47690595240259226,0.41517993982108603,0.34301366750867635,0.2659821380767884,0.1889376548857995,0.1119355882526003,0.043142971954606146,0.0,0.011611324313668625,0.07060274207251371,0.14596865577266094,0.2065283383498948,0.2806313391516104,0.35281449030634215,0.4145266583036027,0.48824057427804446,0.5483526842908497,0.6082870770469597,0.6627582782031278,0.7253313652604181,0.7915483577856204,0.8425601119104136,0.8662336018540322,HB
0.28235484066117067,0.244144056876479,0.22694346029815637,0.24924634834352855,0.215921660339081,0.18076440872813038,0.14894858232800257,0.10618340292635242,0.058674136810005884,0.012136680765066465,0.0,0.031223170160942004,0.06302611535234792,0.10657950606792177,0.1538414179769516,0.19079070910902107,0.21890966256971556,0.24243464459195518,0.2268010434180674,0.24211856226455186,0.2528239448376697,0.2528437534907617,0.2528437534907617,0.2528437534907626,0.2528434704504061,0.2507737449544809,0.2229814690498957,0.19278924351354032,0.18806882769101652,0.21037932520893765,0.2417915148910259,0.2611721359532364,0.2861360570851419,0.3135244067970291,0.31808297187920154,0.31807437655124904,0.3098066487065205,0.29060735218947986,0.31649421631679164,0.3410470403527839,0.353258397609876,0.3896912408574549,0.4372710460575657,0.4844702332192581,0.5387556122722339,0.6285260854866026,0.7076715729986143,0.7857478062257481,0.8797319622467494,0.9511259592242691,0.9991538944523777,0.962399449599916,0.8956143692844005,0.8020512546368304,0.7072548349174346,0.6150184660436393,0.5468802414683278,0.4554986297886483,0.37031868724604866,0.34396465419887257,0.3190190619816189,0.3170942647317734,0.2883489601060001,0.2507262057433728,0.21898722111094937,0.1789278629153932,0.13141583194764284,0.08410369674758478,0.03941332454492397,0.06276300904640397,0.10244994932142859,0.14800135668633363,0.1873758496674407,0.2262044627549198,0.2524101847269762,0.2540197473615011,0.2804770784515762,0.28545931004074276,0.28336364432485706,0.2571166448315054,0.2353362415353626,0.22027474930449387,0.21916644398487595,0.19457463242030126,0.1875991343656489,0.18454709718448026,0.1568674968047894,0.13067674096289927,0.09897226095752298,0.1187728185886261,0.09898415805151117,0.13301355569191298,0.1546874323341365,0.15401987153733643,0.12956023302862363,0.11904098834355015,0.0801126090422617,0.06414788168923558,0.08955261985225338,0.11592826545732748,0.1378034493074205,0.19335230530562253,0.25952198785214886,0.3294873648394656,0.39025195338306684,0.42630965672893417,0.49880958367903805,0.5694328116346519,0.6624560559508179,0.7316218509347054,0.8204330879173733,0.8963512110224103,0.9278505999396849,0.9036032712697777,0.8271907270995342,0.7570024911160154,0.6692574149218418,0.5744621561476331,0.47966532386093874,0.3848687986010697,0.2925762845958255,0.2449748116835604,0.2028532090088211,0.18764869698257503,0.1864068027211898,0.15675906152992258,0.1256680642377166,0.17358869002396293,0.24271909583194518,0.30256495441058995,0.3348400677299814,0.3559558953980968,0.37438903286028946,0.3800024993912352,0.41726695954381743,0.44901941368744236,0.47844290960079583,0.48120011145046604,0.481200495233999,0.4812004952339972,0.4808850112586178,0.4605110073281695,0.4636284412244436,0.4625966835908386,0.44861740567212394,0.44263278901610903,0.41700175171330045,0.4152281637427713,0.39105545834329103,0.3717638617408001,0.3509920240859472,0.3507109285235659,0.35076262961158466,0.36529994502728336,0.36515733590996646,0.3507915716050567,0.3620011332323143,0.38329553591384524,0.40448540991386306,0.4159299721372962,0.41595571187877933,0.41701757746866885,0.44876127880279526,0.4960972304067628,0.5441811059503969,0.6151200943123465,0.6834227522651952,0.7759533269028447,0.8685122753990493,0.9358344452555114,0.9989802955721476,1.0,0.9386774323083396,0.8445438905065963,0.7688920122738594,0.6872555649813998,0.5925004197811274,0.49784297694459756,0.42366843896939965,0.4159571270805573,0.41552214311499913,0.38931642114294096,0.350487808055461,0.3111133150743548,0.2655753177886906,0.2319837651336254,0.1837254655187559,0.12294753904091493,0.11348888721478456,0.13258431120496805,0.17742105255377982,0.21807450605767809,0.25572656842837205,0.28551799923996235,0.31214309757602265,0.3180797793287953,0.31808853684595206,0.31808853684595206,0.3180885368459512,0.3180885368459512,0.3180885368459512,0.3180885368459512,0.3180684826120581,0.3072376438425293,0.27586547716058796,0.25334109850561504,0.2508722005241344,0.22502310669813497,0.224013680994263,0.2504466199241957,0.2531533871199487,0.2741020929615905,0.2854448630304569,0.2854661451683409,0.2854661451683409,0.28642566411376524,0.31155560411712546,0.3333760056804369,0.3923793559681288,0.4587303617855687,0.5064913190902312,0.5560720198250246,0.6310838940585706,0.701117125176558,0.7684074416590274,0.8578260351671227,0.9261066191953269,0.966762978282615,0.9331280496422147,0.8702620195090365,0.7908659772064759,0.6961244874629289,0.6013305187542262,0.509927051760025,0.4459446412730168,0.4055067859496564,0.3738533364916359,0.3512227128757912,0.3487601624586425,0.31544549140947,0.26939292336282694,0.23602819617772042,0.17900748478506845,0.11591960165448167,0.06655164162594218,0.08678004622910951,0.123949167967492,0.1597736685220621,0.20250306109674554,0.24488303530725997,0.2353228600365478,0.22027542092565167,0.22308065612497252,0.250053776293476,0.2528433649099,HB
0.8962543188565055,0.8989841728466896,0.9033004149748924,0.9037532188249835,0.9154952847700091,0.9127040770697976,0.8871349155462187,0.8596793268331917,0.843278445494617,0.8585699972232017,0.887853728715079,0.9185699166216454,0.946888902345079,0.9648192188394649,0.946914395512122,0.894531999349468,0.8454324789338215,0.7945426090088508,0.739963204512545,0.6906759660390474,0.639977858763209,0.5852647630398968,0.5310625248175012,0.48347345100234707,0.4307032959332968,0.37594621281331686,0.3220670295415553,0.2747009297603542,0.221387768745952,0.16666511836041542,0.1156195543032923,0.07023851221489064,0.060401426861728114,0.10138208759399503,0.1507619730896398,0.2010594511153463,0.25576061722758014,0.3094532365894078,0.3567459424306376,0.4103185134802776,0.46508084100345815,0.5198451701915681,0.5746094993796782,0.6293712848304449,0.6827695377480696,0.7301183845635373,0.7831685547974121,0.8305367189512785,0.8805378018199901,0.9274333932322434,0.9688430383117737,1.0,0.9976908484183957,0.9869644235339055,0.9655242240787008,0.9353837118721968,0.9014106944431153,0.8792691676076216,0.8716200242916348,0.8877850420196134,0.9083562166850605,0.9235582187052886,0.9116469110620382,0.8814250839512006,0.8589676385690985,0.8454861870988544,0.8395518257347057,0.8236958617573851,0.7980678449707603,0.7682925536882972,0.7615041689767714,0.7849737593906372,0.8156474087816936,0.8472525527610975,0.87719631573497,0.889806042254097,0.86539151273724,0.8191685490796339,0.7652264441566015,0.716523880597506,0.6652052482030029,0.6104698237225548,0.5557054945344448,0.5009411653463347,0.4461799641088484,0.39294357481797104,0.3455709984590669,0.2916214279244589,0.23685928038062576,0.1831641787641083,0.13584211534689017,0.08230676813916604,0.02970083323335726,0.0,0.02256901392547095,0.06901029608519393,0.12036321970920938,0.16873823587118786,0.22322414871039553,0.27795141820811753,0.32891102000550076,0.3779477919336427,0.43254303872436495,0.4870851444648794,0.5358248843013411,0.5871258636512025,0.6407698157037156,0.6880661912419441,0.7416539663612527,0.7959757786948174,0.8435502187951454,0.8864235153102415,0.9118000443984959,0.9130859172252668,0.8995383425217052,0.8796139115437616,0.8538778867028578,0.825025607200998,0.8064934712197167,0.8044319218418727,0.8263961908225879,0.8499611799186719,0.8453316138338607,0.8405040930136103,0.8410665306035685,0.8480979487193605,0.8423768214780858,0.8197872356810996,0.7965422369731174,0.7919057867016333,0.8170025563139618,0.842553341708751,0.8702735075343104,0.9011016660952775,0.9241962484868125,0.9075187050600098,0.8605110740579587,0.8070646636287981,0.7597316366278233,0.7062482918069777,0.6514988475261196,0.5993226215115619,0.5516611199589136,0.5081495783450214,0.46160440533689884,0.4117964773889604,0.361768289719095,0.3072948239896516,0.25862540299469816,0.20727064754458768,0.15253520600934023,0.09861989919409342,0.05293839024734226,0.03352354250975176,0.06984837825433032,0.11483582007666038,0.15357700075567182,0.20186588964367946,0.2564198691375299,0.30770237847642656,0.3564385905501417,0.411003809832061,0.4653066202987488,0.5131384156583325,0.5655689813972982,0.6202737184554472,0.6710066916674919,0.7202408601807968,0.7719697737599103,0.8188948216089444,0.8648898117056072,0.907310010168062,0.926949783591319,0.9209620024653233,0.9024191368568504,0.8812689286313837,0.8495788140651643,0.8218387839217738,0.8044113187845894,0.809261578408291,0.8318697606599532,0.8553486163082646,0.8689069061956016,0.8697501307305942,0.8741167937275001,0.8786986304710063,0.8633075747959127,0.8403089928680634,0.8167888872980775,0.8262947184122968,0.8588157952421263,0.8852073745567173,0.9155311289755115,0.9412065267240519,0.9530469489081799,0.9136390195034643,0.8660033519180825,0.8120274949008641,0.7635804366851107,0.7119547583179449,0.6574299437545998,0.6088239237903355,0.5573969222290114,0.5026597112414299,0.4482757584773114,0.4002315214268426,0.3480905377649681,0.2933408212274613,0.2387882421853127,0.19017420393908502,0.14135246672805346,0.10134589188106102,0.058301362666214884,0.05467194318373114,0.09994655794829177,0.1545338862405351,0.2050053649310345,0.25450967441050865,0.309151443461684,0.3638138711971506,0.41350919326452695,0.46360918675879104,0.5095540118199122,0.553575061889592,0.6010765941849507,0.6535521904503945,0.7064563771076093,0.7539475455738354,0.8045540215987796,0.8524796353875543,0.8990010401570936,0.9423394453150862,0.9655215115840055,0.9647739152669965,0.9451733766991024,0.920610398114927,0.8880370529289574,0.8582570698769367,0.8348245838251638,0.8262406753595575,0.8468334606952002,0.8702460315062315,0.8879667431086491,0.8841049956078852,0.8709770859160526,0.8713477572783208,0.8762365466672035,0.8570444341041774,0.8321571792738385,0.800725299490711,0.7989501404984691,0.8263149226235338,0.853624712914091,0.8874928557503523,0.9135041511594593,HB
0.20426923802554908,0.20694834845618848,0.24844840020007464,0.31752722905594677,0.4030112209209622,0.47902361609201005,0.5173698853748787,0.49154655969575956,0.43779891412834715,0.3633886755437854,0.33864554588570295,0.3080732732798168,0.23476811574435041,0.22891248013106447,0.28708788461797896,0.35233973919658634,0.3875828366873195,0.46582599160134563,0.5148116577505739,0.5602366838137538,0.6232893838706222,0.6936619548687029,0.7588165201451922,0.8025530003434929,0.776021242603397,0.7622116171391884,0.7434079109603697,0.7427402577051332,0.7410321909469575,0.7172591128726458,0.695820749420867,0.7079489449134906,0.7040487250010736,0.7193177314375943,0.7403434642873066,0.7549995616760938,0.7680690118325186,0.7534259623415211,0.7428084733116753,0.7413827090957978,0.7251507937873845,0.7613899447478731,0.7689149735185312,0.7868386487130339,0.7892489919882388,0.7484440898802545,0.7202073680811489,0.6989505422168332,0.678200863765845,0.6660507915888658,0.6815442946086252,0.7226092909614916,0.7538195825433034,0.7822099340625215,0.7939501103768274,0.7940236442033815,0.794073066872766,0.8031976846395157,0.8242972996967266,0.8536859938022152,0.9062110382584789,0.9548233707118818,0.9363903829700106,0.8840571868241325,0.8175657588401339,0.7323967182923612,0.6535875910296216,0.5859106636587414,0.500898423055034,0.4302618262697968,0.36479753424511197,0.31486548122001334,0.32918233023477583,0.3720678553444161,0.42516233146023286,0.4824734458588038,0.5469307539432213,0.6132549949076536,0.6798748300433743,0.7448309765241969,0.7825063458449639,0.7440240169956027,0.7193717152273571,0.7154258407520597,0.6945425748288656,0.6799123472575737,0.6517731981216697,0.6313236006758727,0.6033079788793421,0.5985142150109546,0.6157263559585227,0.6364403989835408,0.6580113213370113,0.6780942405765007,0.6790735134918302,0.6656581610530647,0.6483860977560791,0.6407388932964304,0.6585981529396072,0.6787676161262821,0.6911438234599716,0.6737070075263594,0.64265224472258,0.6197821062633446,0.56762399724344,0.5768424951883278,0.6008806018043362,0.6569999792051977,0.6656618010898754,0.6518784237629589,0.6238805727284218,0.6034667454281726,0.5981422865470813,0.6144932380982633,0.6294337982054286,0.6667120971423515,0.7079531857551755,0.7284051932264513,0.6792855944027121,0.6221284778410086,0.5530229163428517,0.467621772854403,0.3826051087513056,0.31559993500190986,0.23593360207709058,0.15098600141806795,0.08435261676995776,0.021996580466559834,0.0,0.01834298487736996,0.07853569827740481,0.14172131740889116,0.2052077994343966,0.26922427882543776,0.3346669887926925,0.4084761670195274,0.48814261336535125,0.4888693511797051,0.4480479977521128,0.418754630622991,0.41158722239703227,0.4255632461306038,0.39346544107074655,0.3908542902544667,0.4088829406698835,0.4096371331441504,0.426568030090674,0.4677796966964527,0.5038247456598688,0.5540538245837725,0.5970537371037468,0.6399518754383209,0.6827757788949622,0.7129980883732481,0.6941612517360003,0.691459651285891,0.691555729667817,0.7045546358278898,0.7197447833799515,0.7408250252889248,0.738585013564288,0.7053683678228593,0.6915438295082046,0.6914601663769737,0.6944847210274894,0.7307983011643229,0.7690769683068828,0.7940602557653031,0.8225215145515028,0.8463265200215613,0.8681149973156401,0.8679914044939405,0.8474613268255018,0.8547657363084538,0.8843736448949988,0.9405057044928364,1.0,0.9980083434327947,0.9551076800025866,0.8777494758267048,0.8090631253795193,0.7315410841879482,0.6458267355523812,0.5699442289889598,0.4997881844971568,0.4299870430816082,0.3757626170784323,0.3383875497588429,0.347184623733094,0.4038609003706495,0.4684769804790676,0.5339072891859136,0.5915154667277056,0.6623225370864754,0.7257679976858054,0.7548574291435983,0.7219265943995579,0.700631481734117,0.6915068639673718,0.6912073193405597,0.6747470812402696,0.6610378990171926,0.6346464506810285,0.6151450265721756,0.6150105480214885,0.6322538649001723,0.6401871582565439,0.6482924637917034,0.6834549483237771,0.6913398761260341,0.67894290774466,0.6659168135704006,0.6658081265235776,0.660056495725514,0.6253383592842372,0.6205116677808764,0.6268615558325479,0.6251693692075939,0.5863558393836961,0.5642069386430411,0.5941473069967209,0.635443746299674,0.6597968564813721,0.6943117073089571,0.7300069964551605,0.7427473910544045,0.7542945518150201,0.7704420952656239,0.7912789232419906,0.7992004551829659,0.8409871692719584,0.8971329990505721,0.9042153831502135,0.860134695061439,0.7969631396158618,0.7152846615259465,0.6308508249916187,0.5655176540269649,0.4836057071709341,0.39783654670549184,0.31208468409375056,0.2373221970531234,0.20651860329641547,0.2275063352219262,0.28253097675946837,0.34001937847769836,0.40550876980553774,0.47618075798973614,0.5456677813326793,0.6110947897292247,0.6687122885995551,0.7418945634815692,0.7830423529693684,0.7378961020162,0.6965111691721182,HB
0.8521548063019515,0.8143949176449365,0.7642656806854435,0.723076537018692,0.6908478191456475,0.6634287206542555,0.6655997063524777,0.6917549264044163,0.7106393786058338,0.7078957736665488,0.7379166192693662,0.7399084804824034,0.6747231964350102,0.6280023047450336,0.6080004283665601,0.590219062883858,0.5076042233674767,0.40065015193571707,0.2934322045862987,0.1904716807215543,0.1430659958531395,0.13828967091366007,0.13837488452130575,0.15693921123480292,0.18381982470225777,0.15571562644282677,0.19096571213032743,0.28016236274170225,0.3430835636613967,0.35893144757474627,0.37879900227992414,0.384598343374817,0.4245742300609048,0.5276030510292813,0.5967114474041249,0.6101217053089125,0.6176780633352803,0.6600035073574966,0.7200518683130155,0.7717486804183866,0.8147965795276577,0.8569898208990394,0.8785664972992264,0.8514581605262523,0.771783511745618,0.6691944355602177,0.5619826533265235,0.4547616741413525,0.34877334403145044,0.26300303552995885,0.19450967750416792,0.18538212754465455,0.25661771386645293,0.3478245422141475,0.4521222234445519,0.5392132603633697,0.6435834717242197,0.7412432590318878,0.8328277228891738,0.9278000076598798,0.9121462866846248,0.8741828283084092,0.8641296230047257,0.8706575466182396,0.8482041409612031,0.8156169464060379,0.8183941350777233,0.7645579964803004,0.7137807185939304,0.6710442207947236,0.6092044727056947,0.5868718301907632,0.5881667797692978,0.6052170004475186,0.6564045353094303,0.6873893333648149,0.7000961949810391,0.683658141593805,0.6247126411226849,0.6067238893330775,0.5766960006977198,0.5324751939469867,0.5556366446664929,0.609081177608227,0.6066554301648694,0.6635807637419586,0.7452470556136057,0.7965103729038749,0.8044096855263754,0.8188388628982337,0.7498268895513864,0.6438368279706883,0.5541060417620391,0.45422991108697497,0.3473428773756351,0.25574365670013943,0.16038693069404752,0.08419856918517565,0.08984844665954084,0.17026268294303826,0.26426484742682055,0.3582444622606329,0.4638602405129122,0.5516942729007512,0.6540694703337855,0.7484757981159365,0.8131794015799412,0.8678519891359504,0.8429619626757172,0.8100692932173756,0.7694033351685996,0.7593390103281039,0.7840146377659694,0.7757149648113146,0.7338741664319284,0.6806912348147507,0.6189101781275892,0.5914115301827008,0.5517952533518637,0.5257362500377853,0.5497605218618142,0.575922673646851,0.6272478915063737,0.6651958507693263,0.649947157834633,0.6358287183492801,0.5943040191170321,0.5422523966527728,0.4865810858169679,0.4813920306918793,0.5199019738776669,0.5843351839716937,0.6462814589090997,0.7204759467116557,0.7850291165493934,0.7813427250474061,0.8187550979120553,0.832338181848558,0.7523746480786309,0.6580070579860045,0.5509601531620341,0.4455718195653895,0.35817158378273595,0.254846305870708,0.15096588298946934,0.06794917101941111,0.0,0.009967802171954698,0.08810155032983769,0.18971469037872035,0.2914920596186148,0.3796204737018112,0.48581896690888815,0.5890150282505542,0.6764478112820345,0.7818119589463506,0.8653699264612897,0.8609686667731622,0.8614167371752859,0.8140010731422236,0.8337802278946111,0.8231221353875005,0.7922578856461882,0.7745705695898377,0.7378271015675231,0.687133438432189,0.6443690328728295,0.5969589866672789,0.5781954066443515,0.6169374601645168,0.6348632466299473,0.680777855902305,0.7238281005546674,0.7445400809200229,0.7169271537818207,0.6761788777058357,0.6435783671826258,0.5874228350113575,0.5584643262707139,0.6123728899163168,0.6696464846180281,0.7232651746099177,0.7768756055579211,0.8304253366372474,0.8737949759985537,0.895219179739692,0.8762791559537209,0.7964672917604196,0.6937455819786664,0.5874211160019462,0.4986695572032973,0.3976295496925375,0.29042406368097096,0.18639910128757498,0.14430341117771928,0.19353062504131335,0.2755727296090469,0.37910893333838436,0.4851611108260956,0.5735809936927834,0.6752152923901815,0.7769926616300755,0.8651168601880319,0.9664539673865575,0.9994412923377882,0.968921187832358,0.9523241815325396,0.9316686419033711,0.90802267246842,0.8777964743388975,0.8480138066448553,0.7991978552349752,0.7551249273254927,0.7193754355589266,0.7010852614272429,0.7176629291586827,0.7581738504504938,0.7887716552431372,0.815404587596507,0.824643547811776,0.779547058037457,0.7510497290709561,0.7265656621319123,0.7060925322083693,0.7444093224531954,0.7829255105280493,0.8345400902295208,0.8777229409630887,0.9274266297721625,0.9368426222061355,0.934026640865985,0.8927959555760983,0.8053768930947567,0.7034239744961748,0.6257389793435508,0.5567984112135576,0.4535019182022326,0.3615121713571323,0.3013154372847602,0.3401099548200963,0.42109758997600544,0.5224267806128657,0.6128738389219675,0.7117874232586003,0.8112076409567988,0.901280958861332,0.997353486607103,0.9999999999999996,0.9880876540396364,0.9892382564307955,0.9813611503114426,0.9676841749790834,0.9314782249117006,0.8839714375656,0.8528191814704464,HB
0.2960173946309679,0.3015848793107059,0.3283618364551353,0.3535967042924666,0.3990456944652234,0.4460823165299208,0.49357131174065794,0.5443658505856745,0.5894860846010563,0.6394299664484291,0.690881429387987,0.7399605908210618,0.785670048895796,0.8368164029818159,0.8880167077907575,0.9224189950557165,0.8997706759731998,0.8540879670633292,0.8027914756397945,0.7513678541031772,0.7034259016942166,0.656739609686791,0.6054007016772864,0.5539306162419624,0.502461698237366,0.4518916912168829,0.4068823536613544,0.35653782867138206,0.30506975684412985,0.25359967140880557,0.20213977567751718,0.15270552519000824,0.1072458562650358,0.056214393472946655,0.00859023434852979,0.01132830136242835,0.05646660187384245,0.10268055670308618,0.15076046132420706,0.19712409242447015,0.24624813497986775,0.2917714906923685,0.33977781441283184,0.3726184807839701,0.3776130712560253,0.35736356371622047,0.352729269027636,0.3532552544485281,0.3457281300604145,0.32543232625357366,0.3129788589454334,0.3182651675863104,0.3250764525834373,0.3207948339978868,0.3044539716574042,0.28418476976259543,0.2712737554499052,0.26959434914934244,0.2592948270477271,0.25402471017231143,0.2692986543642417,0.27880701276899766,0.2752384206157652,0.2887464519326606,0.30286451002225445,0.3048482302546782,0.33172992153667713,0.3731918298154213,0.4179295425677776,0.46707204801829416,0.5122508286696175,0.5620922078052477,0.6134433281333036,0.6602406900303153,0.7080584413768911,0.7594737253392037,0.8094279550160985,0.8502451152778248,0.8558117985907434,0.8126686305221236,0.7625045688584731,0.7174415338948401,0.6668241257351502,0.6153552168664744,0.5642286070014206,0.5186017080774554,0.469422408383259,0.41796436209063437,0.36649427665531054,0.3150241912199869,0.26357902919060283,0.21497307879427918,0.16888058350425594,0.11763341725747867,0.06616388262148432,0.01602025323276024,0.0038647021149820215,0.04780568235438709,0.09309184101341716,0.14296422077977855,0.18797571096445687,0.23646400846871485,0.2812889392488003,0.32568451426670286,0.36091804799195026,0.35827253707551265,0.3630735396735769,0.36628269699466065,0.3544936791342721,0.3356632992499935,0.33337603190409215,0.32660564060982766,0.322915506257043,0.32447402314241747,0.3142955215850243,0.29882664775447654,0.2758249817779088,0.26324485313213364,0.262609581650306,0.2606246945183819,0.2696129816561117,0.27210569748273605,0.27761860409729544,0.287487900257285,0.30349567432937197,0.31390575866764303,0.33178743186370907,0.372395672072652,0.4198515188186491,0.46588452383351053,0.5165975912755592,0.5619012539903039,0.6115670090032146,0.6630298853049579,0.7142361307654845,0.7600642116305487,0.8089675982925661,0.8603762216974762,0.907901386761639,0.9381522150002639,0.9194435676080359,0.8730261137733144,0.8222178839056047,0.7769736812060677,0.727178558099284,0.6757142983391431,0.6242442129038184,0.5727741274684939,0.5213040420331703,0.4698348748008625,0.41943199371450723,0.3800704317051542,0.33238352991627274,0.28100361153071773,0.2335618802795849,0.1863944510548441,0.1350120618869428,0.08354201825161822,0.032411944575225116,0.0,0.029608786779398155,0.07540329492160791,0.12368390306178245,0.16793367339589915,0.20547545508941645,0.24801792758784935,0.2964388280247645,0.3349233000243572,0.3576594671766846,0.3589244900766657,0.3561049173652504,0.350502028673201,0.3529235823167054,0.3311279782940988,0.3219828327158498,0.3102610245345192,0.3190692637221788,0.33015038271013486,0.32876833340941625,0.31277137075253036,0.2885893570718685,0.2647710029121262,0.25767748625323383,0.2543375058180297,0.2571340134988438,0.25549135473207674,0.2680679733270801,0.2853030440119153,0.29090513344834035,0.2957211218455611,0.3107428467225486,0.33340357439347934,0.3712517906634327,0.4159241150557431,0.466307095240275,0.5177750452309575,0.5689997710465649,0.614947021096359,0.663715388266571,0.715165811476542,0.7663340841840054,0.8120546030457636,0.8611016821718236,0.9125520419773396,0.9624313259394239,1.0,0.9969697079396811,0.9563383315030896,0.9053443542417936,0.8560819190535112,0.810506615620479,0.7594113485911487,0.7079422384424945,0.6572542075870142,0.6122266622558317,0.5620182463105905,0.5105505895133144,0.45908050407799084,0.4076104186426672,0.3561403332073412,0.30476202065589764,0.25757081720027175,0.2117456187527711,0.17443773187423361,0.13837449760992726,0.08980073085652274,0.042645750099297164,0.03165658661367421,0.0768988566007851,0.12517718140750134,0.17150137815572775,0.21947560106892405,0.2658482621440543,0.3123024371880363,0.35067282945126443,0.3693040978098918,0.36849442378853725,0.36268931254259407,0.34851108547100584,0.34463185988802403,0.32811857308088643,0.3362217278812476,0.32215792464180204,0.3144963161986847,0.32097049664569166,0.3210653743496499,0.3131037790276838,0.2865412676577759,0.2655403823080973,0.26021617487964166,0.2700563724404037,0.2679198715367861,0.26936071496572245,0.26931664832840685,0.27069789674912736,HB
0.4293582305178292,0.4407674620657138,0.47702763771985324,0.5016821350824376,0.5248079054227024,0.5407587993436063,0.5462563419065629,0.5513636296865978,0.5446257998661344,0.5534962183584498,0.5548627489195441,0.5498736252646521,0.5251768484301269,0.5013518284019829,0.48696121426629446,0.44179923716247194,0.39030295640477464,0.3388520609590846,0.2966384056382161,0.28670991789419387,0.28630166355542075,0.2886201579680068,0.30706498648680935,0.2978186810345651,0.3017961907811948,0.3437220397909482,0.37505410814180196,0.38778484233128285,0.3948600042240171,0.3991759723279371,0.4192252421862419,0.46837650129556896,0.4986439641367939,0.5090364821499507,0.4863353359091127,0.4747462298281442,0.48824206753449184,0.5108998223976713,0.5264494300962803,0.5500584828588986,0.5656590804070694,0.5538198872004438,0.5194827895533864,0.4718505831101081,0.4294828399032258,0.3796114951373599,0.33599343402785276,0.2881481018916927,0.24421152908439914,0.19835684864135827,0.16482392187921024,0.16806861590741562,0.202681380112691,0.239426896652281,0.28795530712713413,0.3394691438651256,0.3909898998174779,0.4425106557698304,0.49403141172218334,0.545552047177396,0.5964336096508711,0.6391876511722561,0.6884404119245537,0.7399571534680784,0.7914776873238145,0.8419392904980081,0.8581344126547543,0.8240441582080338,0.7835399727228503,0.7438735636208966,0.7053325167206219,0.6737214219760566,0.6495628005887044,0.6269532637408355,0.627747442966266,0.628166335306604,0.6209766748816945,0.6170333033243358,0.6183377455342651,0.6024488589679144,0.5690383650455144,0.555009196181951,0.5440942844682124,0.5210784405197242,0.4905176197117669,0.46884920034743094,0.46456572324139334,0.47992482458836117,0.5003469684635102,0.5182564858499181,0.5207594528140342,0.5298541377615764,0.5315361379944894,0.5315025163293208,0.5264762972042436,0.5244207478497829,0.5207918020271527,0.4953628344729035,0.477373440808867,0.4514876206953269,0.42845709630705997,0.43861220288132285,0.45946314929656906,0.47275765542383397,0.4918666375297145,0.5034581824432238,0.49031061529481645,0.4605176266445914,0.42204527255011026,0.37515016066915985,0.3243530617713224,0.28183507043285116,0.23230642270599478,0.1831816168246354,0.14034672090029865,0.08963431058050553,0.045704754196103314,0.004399498346001618,0.0,0.03573941818849091,0.07997044592307745,0.13111127929114486,0.17533708034387052,0.22271386199071852,0.27420817051334945,0.32438049776044076,0.36675699389374583,0.41709423148857283,0.46861450545236694,0.5201352614047188,0.5716271159943269,0.6189992520717169,0.6631940717589566,0.7141807123580539,0.7412111240972388,0.7063763634649465,0.6647708472962133,0.6243081870407208,0.5873060404666912,0.5499227337686114,0.5148693555300643,0.48705684962332985,0.47183067754392183,0.4602340731305914,0.44113894496937545,0.4280305461818985,0.413988464802185,0.39149570144564727,0.3751923169361322,0.35771163895435265,0.3530571792759998,0.3373308184393744,0.3402933398018595,0.3218293039999274,0.31125226575874,0.32475862055770577,0.3512381397539568,0.3902701447267227,0.42232082692978157,0.45480802175890145,0.48681114436604633,0.5100357251892993,0.529937324353156,0.5621360094299632,0.5872890680155085,0.6067944842266981,0.629419822839903,0.6465915473510391,0.6645112514249585,0.676987879602361,0.6710030289702329,0.6510313736117406,0.6415856954586605,0.6265552450087295,0.6376517339707946,0.6690632874380402,0.6925739300444615,0.7105434284043948,0.7357250658883763,0.746623452026111,0.738602860031979,0.7056232484623643,0.6629778109065338,0.6149204839894449,0.5635179930683469,0.5182391247364979,0.47198986030990087,0.42052880679072646,0.3698342938516421,0.32735672971464647,0.2776422605939619,0.22723616780853972,0.1854383800776136,0.1526669687247788,0.1647319187079812,0.20443926001453683,0.24720936590153375,0.2982526241600705,0.34977279651283744,0.4004805879082969,0.4429641200806207,0.49266045240709233,0.5441782808491624,0.595698443747323,0.6463627923732773,0.6888183784053956,0.7385859224283526,0.7901040225950575,0.8416247360190072,0.8928712527317109,0.9366281452720877,0.9833400923201465,0.9999999999999998,0.9661130638715136,0.9280044595699553,0.896433350447112,0.8666086188677122,0.83922371399623,0.8471712728422032,0.847753088639678,0.8359553563600233,0.8292839147741249,0.8214039024279811,0.809361712779922,0.7933205671894321,0.7739531584972299,0.7611315793220494,0.7387305137577516,0.708585486318303,0.6802404448632491,0.6521799384049207,0.6383170739009569,0.6479993101892119,0.6596778749350072,0.6667159349393839,0.6892083331299206,0.6765105483263649,0.6642499050078496,0.6713414127564616,0.6695304926590804,0.662576568788172,0.6684039178234482,0.6447779505927103,0.6129357599189926,0.5902150870438116,0.5744075374266222,0.5693646999169246,0.583922948389765,0.5954778405772982,0.6191154733452922,0.6444457042038934,0.6433378319260541,0.6183781604007861,0.5806855815099043,0.5351704422991057,HB
0.2956317776386137,0.23272263209352229,0.1549112935438699,0.08491708955081556,0.040284490789485705,0.06107746000202141,0.12818521340480205,0.1985326034777639,0.2727800213651803,0.33793996086343236,0.40300712290661167,0.47731889274426775,0.5464233994228951,0.6119980341001674,0.6664373913295685,0.6991426207273848,0.6903025459158401,0.704064098299424,0.6913158207144288,0.693463428737839,0.7070761106200711,0.743488921892685,0.780179934297903,0.8247801709540425,0.8679109873510304,0.9137034479843664,0.9422849772835376,0.9331305225922164,0.8944772478084762,0.8522340755504993,0.8094716766346042,0.7708068762050946,0.729506803386883,0.7122023031813889,0.72808500111879,0.7677402208182786,0.8114377699360702,0.8649059177794887,0.91552458014927,0.9606784965655271,0.9804683992119725,0.9689123740543382,0.9773398871717798,0.9507204496891357,0.8757804988018889,0.8071752188504742,0.7286921952862437,0.6455811124855657,0.5672251108985069,0.5151302164309306,0.4655790034430001,0.39531551887140104,0.32823336333820174,0.2591761256605367,0.19265152984139133,0.13724963219570174,0.11635276844913767,0.16237703028241857,0.2367584812720538,0.3042705574903857,0.3854145233339614,0.4648105394724178,0.5311316321613209,0.5969341230818195,0.6634928442595478,0.7335295005354587,0.7717750775044037,0.7854824764674047,0.785679526012049,0.777620523642236,0.767145272197217,0.7898873959666024,0.8235159826049694,0.8604132652812808,0.896017947704213,0.9294250809333264,0.9568764851240634,0.9260094161899644,0.8901796867993137,0.8349434444886095,0.7964514544747221,0.7440481371095089,0.6963062367898813,0.6575865532067149,0.6468483172957704,0.6593142521303301,0.7063499698131284,0.7570480679953233,0.8095954260391087,0.8426326316183013,0.864191036102222,0.8842867668549541,0.8730619213375133,0.8197528947401844,0.751125647369375,0.6755931515927198,0.6048994752274859,0.5267359361495734,0.4581532574474094,0.38651866095899745,0.3238640631486822,0.2490853604293548,0.16772262700791174,0.10011668542981189,0.027992515744485136,0.0,0.031104481375786808,0.09521283394243962,0.16155177241211005,0.22859865239389077,0.30236374521709264,0.3720191305361249,0.4391768839058545,0.5139296869551071,0.5805213625763286,0.6460466324212071,0.6892576303909963,0.7099712616417873,0.7125667707980301,0.7063094910365639,0.7075467648452807,0.7309069490773585,0.7609914061174252,0.8144562027132669,0.8600864122681466,0.897102939087381,0.9203566824648477,0.9081817667661216,0.8847743793458673,0.8444734559494211,0.8093341073548643,0.7725265950386375,0.736726428136302,0.70779674434971,0.7124610595570959,0.7495962558408635,0.795405773609696,0.8582874876641551,0.9188734183019189,0.9533282519942534,0.9644086824160758,0.9674581871732184,0.9643330741172949,0.9055493419415974,0.8340517051950127,0.7632288772062616,0.6851705658637717,0.6163578003780406,0.5341865500053093,0.4625337871684665,0.39133341047870784,0.32503188063964616,0.25863476408716446,0.18836973494471643,0.11747917965329835,0.06321386748180569,0.07356351047055476,0.1294943069974117,0.2044476521433718,0.27224209861221293,0.34972822814920557,0.41600784375491706,0.4818695319274693,0.5482578019989472,0.6191508453807999,0.6715555520842469,0.7001830166161924,0.7119073930770394,0.7163038515862943,0.7064986898046346,0.7162567355222462,0.7615350622384192,0.7973507358578389,0.8372178039371194,0.8833676814353,0.9301890996551077,0.9700454793451243,0.9764936853919237,0.951871231569545,0.918737237375344,0.8812121145627532,0.836171785626397,0.803354082205797,0.7749395497787033,0.7883613785862797,0.8222345670801507,0.8540969845790687,0.9023579275635538,0.9381752265112371,0.9441391954755463,0.9306155904347615,0.9155069592214562,0.856152003480807,0.7860788264305625,0.7075075298778897,0.63909162638849,0.5569303314251077,0.48003886178271093,0.41334365349888325,0.34746317254790116,0.2815347700119264,0.2149980490583805,0.14029528193581875,0.08838133614801125,0.07872190911231369,0.13918531882766239,0.2066155952540618,0.2866927807151929,0.35438459178176274,0.432504044135118,0.49759542103338283,0.5600167280482795,0.6245589914673326,0.6890366782969575,0.7247596670462286,0.7144359935249125,0.7210615783690759,0.7261763180409688,0.7372461216589841,0.7744498842155476,0.8139610575202196,0.8555547352733033,0.9005947966293464,0.9444101416683894,0.9845548225155696,1.0,0.9717063918141311,0.9371809971864673,0.8953150846712505,0.8457513052923131,0.7987337546247719,0.7701377913041694,0.7497187523294162,0.7717890660608364,0.817895310326513,0.8706611288328525,0.9207882741245914,0.9679389135831271,0.9850875907347625,0.9913301402128787,0.990236943210693,0.9765987152258124,0.9247954168423917,0.8584462493318115,0.7805274082513796,0.7130165570462466,0.6321208225622419,0.5561509305976822,0.48537650842646896,0.4044506410392499,0.33757425432274024,0.2712359560156892,0.1931267312985554,0.12360014919043127,0.07880465622785282,HB
0.977549601302167,0.9574813414671937,0.9347778662348643,0.9037941743429654,0.8704010306307479,0.8289413932510019,0.7882276982523906,0.7414936511830008,0.6940414374095369,0.6447880915644408,0.5983229102740344,0.5713868684079793,0.5732879383051332,0.615346133195557,0.6642702049954723,0.7091521327243568,0.7308826786041016,0.7663214666076288,0.7852279192532379,0.8073812243147442,0.8312497926140152,0.8490353629387644,0.841950142809335,0.8398418426882728,0.8485612943001264,0.8663678015331473,0.883803922072596,0.892198670569031,0.8668485217251432,0.8307302567401023,0.7947760208249688,0.7746407253570604,0.7947797471946065,0.8315664332384625,0.8785896935206863,0.9229636453925334,0.9446850677060716,0.9619249756639392,0.9503890111164202,0.8966675307067737,0.8322947203539859,0.7672395353326333,0.7062957771809062,0.6485600762497425,0.5837383118897979,0.5186478384994633,0.453557866859144,0.3893880855167584,0.33321443525898964,0.27008580319577113,0.20500109864432603,0.1408762831210073,0.08705590584079714,0.07035938854334134,0.11842067926207633,0.17536820983042767,0.24004571047454393,0.30504516174315666,0.36206085120749965,0.4117753747968329,0.467573436186002,0.5300923462408849,0.5951731488393095,0.6601772419883858,0.7197981450483322,0.7772596670351335,0.8310963937436784,0.8845197797778985,0.9348024097222187,0.9726949651257888,0.9918651398984979,0.9821171306858298,0.9577666976449559,0.9327392210927039,0.900969612783485,0.8658793653239971,0.8282113809714935,0.7989849392062043,0.7845843825129757,0.8023853544006347,0.8231095939240245,0.8218503497212604,0.8274948870416352,0.8306233731690458,0.8330115240060076,0.8439678158737021,0.8638590979947518,0.8850144072339334,0.8914786086283983,0.8616383855271865,0.8275327764503024,0.7909611573550417,0.7762625104847407,0.8078521767099935,0.8499922409547804,0.8957863082841659,0.9382222084775709,0.9589650503616132,0.9784095752363418,0.9774438422837108,0.924751829702493,0.8636991772013609,0.7986415441428403,0.7351558594212475,0.6790879200309634,0.6151712601049335,0.550082010139405,0.4849928407536488,0.4210842455384074,0.3650213830985678,0.30152217362808176,0.23643471579430209,0.17134740378484592,0.10803967860331332,0.05200848472015984,0.0010154521640153291,0.016126044112064974,0.06806685038418037,0.13204092511098997,0.19712974686063567,0.2614025763091383,0.31764900658990114,0.38060157544281736,0.44568722803634997,0.5107775809605704,0.5752740164346308,0.6318636655766718,0.6934936447915592,0.7417795869963852,0.7886841636662865,0.8417095430955115,0.8914603284051505,0.9358022930801377,0.9625313664480304,0.9562879007713545,0.9426993214341213,0.9239035739765482,0.9002733408711017,0.8616076831900874,0.8278677703454198,0.7991664921556179,0.7938583443966332,0.8076208116208274,0.8271311834598427,0.8404315091716044,0.8504733743354789,0.8555545693986963,0.8682360132634943,0.8798972116806252,0.9031884233231882,0.9111395793130586,0.8739818100774224,0.835340329042374,0.8030663610017543,0.7984152502092243,0.8338514816192708,0.8851798116945238,0.9361783294826456,0.9783560183267452,1.0,0.9984790690909127,0.990671239759739,0.9305816419622146,0.8681664968960225,0.8115988003342745,0.7471125504228129,0.6820245367969302,0.6183812307684255,0.5623531595956042,0.49855448357403054,0.4334653998877376,0.36864072057631625,0.31100555947153863,0.2499686626297697,0.18490859939491844,0.11991319185115024,0.060602398457688,0.007239355601762254,0.0,0.0532954425597989,0.11170933981909137,0.17181866788743094,0.2368513690266847,0.3019418628789674,0.36703235673125056,0.4321228505835333,0.49721334443581644,0.5623032487905919,0.6266106277652228,0.6829084455422847,0.7449778496151691,0.8007032444367799,0.8544118241608392,0.9063177336518913,0.9510024433319884,0.978373468440263,0.9808698825054099,0.9697636036127966,0.9452249554581353,0.9105727342010019,0.8733386341011875,0.841556831266776,0.8214352091265451,0.8173110532283532,0.8283581423400719,0.8449001422127436,0.8465738077876006,0.8442435137445796,0.856694093737782,0.8701660542973484,0.8860317011926828,0.886304502848642,0.8523988100036455,0.8174218246025875,0.7847459651790294,0.7826176018711235,0.8184386202142324,0.8568189923533229,0.9018190380958839,0.938107286258282,0.9482359593420009,0.9532440765051824,0.9082940598303761,0.8439610269511741,0.7792238497806683,0.7219407298670821,0.6604705505550943,0.5954046228573955,0.5303143561039143,0.46579431979025254,0.40921543860626985,0.3468379173671108,0.28175732851229407,0.21666683466001158,0.1515763408077293,0.08650440586290431,0.026613528266056674,0.008800072422777694,0.0508952584994693,0.11035473437746535,0.16890657526411368,0.21781558703079007,0.275528472796124,0.3353396825914219,0.4003646153185174,0.4654551091707997,0.5305212390913552,0.5920063591781783,0.6492772426181466,0.7135721890433511,0.7698351825407965,0.8219536181031044,0.8740396274023732,0.9228272288766499,0.949003043063279,HB
0.12346919408176804,0.15410900068512356,0.22861648145531044,0.2892811421829813,0.27250932282833196,0.21472931621038827,0.17935961877358864,0.14023977659639542,0.18186187674909693,0.23385350144619688,0.2913198374784125,0.3375949120860797,0.3399726944244361,0.30424283668961083,0.24350051851239618,0.1795927417331793,0.11629887479865353,0.059018188578113584,0.03638232920556783,0.05760351988105139,0.1238526565671485,0.185161783018029,0.22760725234453805,0.26344995562797324,0.28780123908067257,0.2876908354383998,0.35483850154786456,0.4299677745019599,0.5101270226481658,0.5818792245586364,0.6264667077195503,0.6852659713293234,0.7564455829144983,0.8295783027527266,0.8688350614757092,0.816942513799892,0.7548313656259031,0.6954410860770754,0.6253904861967006,0.5542045768792225,0.4838238851068897,0.4221548544205165,0.36986571971245574,0.3265543957986168,0.2977749459640777,0.2522513887965414,0.1894829171547423,0.13427599024601555,0.08135820861236631,0.05222787390022665,0.07613807783583049,0.14164177532358213,0.2019970522368677,0.25557670169744195,0.31895779250598677,0.37277735837833337,0.3985121454780529,0.4093828954198786,0.3934479529298418,0.3388841675727363,0.2759640629936424,0.2705051755838048,0.33551123352916257,0.4100756367597853,0.4853031541280868,0.5506752641512338,0.5926139986939418,0.6492162125156309,0.7201998394227478,0.7923452469017462,0.8434298764347714,0.8142822645320673,0.7639143174601313,0.697240562663382,0.6263364132789406,0.5499715978648112,0.4740358693605331,0.42373949089380014,0.38859504077519613,0.35297175488737453,0.29385488438889107,0.238271792208534,0.18529948131896612,0.13658121675944424,0.08826932673261734,0.04366945662889421,0.0,0.015325168105384535,0.06821729062233395,0.13195352377842307,0.1944274210401784,0.2629439626572223,0.3233534161327727,0.3696349326801447,0.4009109871666867,0.37976411188687376,0.311768206692427,0.23909092364502227,0.22319459848263623,0.2822639179299724,0.3597889180126548,0.43441752538102385,0.5079324006144734,0.5521201217979197,0.618284152437858,0.6899929945885495,0.7630176926815664,0.8108721848282672,0.7621294331752764,0.7055084481676159,0.654962341992984,0.5902060410337877,0.5193272442969157,0.4539256461221606,0.4053998552580582,0.3698712928915362,0.32027212405112104,0.263138558956431,0.2202745143860958,0.16337429574990958,0.10438792477445924,0.048701010571964964,0.031605776002925356,0.0663998107192505,0.11717078337701858,0.18014444015143738,0.24131038597752452,0.30062017255034856,0.35982326747339677,0.3997371573809225,0.38885973132681384,0.3438265435822312,0.27362221933369657,0.21863453715642933,0.25255125045853033,0.3248502971877052,0.40383476519448,0.4757584574145093,0.5245750760144419,0.5784835977061764,0.6514238623364137,0.7304422456460165,0.8102092790886108,0.8172968526948012,0.7534285907111538,0.693600662158603,0.6396405754920393,0.571758226784699,0.5012519620188809,0.4380099257104857,0.3863467358495374,0.33587232680447787,0.306378680451481,0.26091808943687056,0.19872222507384318,0.15099036868799853,0.1094206443260326,0.07024665098595362,0.08692503545743646,0.14280459074254104,0.2022417853583378,0.2636794167416494,0.3165344683603619,0.3482269966352938,0.35167030093575,0.28991741802526594,0.24742001041410244,0.287874190092404,0.368517867026954,0.44616827775164536,0.5244406828833768,0.5838627986237888,0.6257657290713876,0.6990834988405661,0.7704467616040165,0.8370706080549448,0.8191680555985106,0.7540313004671155,0.6746494896687603,0.5979470599994738,0.5421536683375625,0.47296100384103745,0.4036625405022862,0.3365809533882276,0.29423271846737764,0.26996921821175457,0.22732296385355655,0.1906937985909014,0.1379256072906343,0.08143661229033139,0.04298035288634017,0.03131738631268011,0.07726848441183165,0.13472174271641357,0.19547552531467627,0.2472232570623314,0.29110705083730526,0.3408270782280711,0.35623009712950093,0.29973888642062674,0.25974162466670014,0.2996372265426217,0.37255937647823245,0.4509417967015663,0.5273958284068585,0.5897413501346356,0.6453549340761482,0.716310228962135,0.7898815908410217,0.8648959173496453,0.8794519708506532,0.812345485114812,0.7369391087910375,0.6681341755269807,0.6077803683154044,0.5323427223570678,0.4588438303174174,0.3982870469328854,0.3452591862219254,0.31806118163700825,0.2841437433676992,0.23784681141472808,0.1948410943314678,0.1401021691658828,0.09671420160804978,0.08016885441743371,0.10667606080775194,0.16206101909950155,0.22429582782034752,0.29551885628283614,0.3521623308800912,0.39923965322366595,0.39381764391142804,0.3350407873408616,0.3071472738561223,0.3622025863427627,0.4361908789502347,0.5181628664536482,0.5974392856653101,0.6729089438486624,0.7235103238243248,0.7755885001831206,0.8506043338387861,0.9286950532048968,1.0,0.9715560100873124,0.8992852672618574,0.8276805317872844,0.7699670284245319,0.7094834765097544,0.6415815705844068,0.5713331171975029,0.5052808353117664,0.445064995591697,0.4030734625925314,HB
0.8319444782827534,0.8079569610546309,0.7785516747888317,0.7475997172095314,0.7612209297156238,0.7683438787890213,0.7841912665150752,0.7845838612440188,0.7753724605098626,0.7621497718780716,0.7619854747733097,0.7672403688910348,0.7926408604082895,0.8136735870525444,0.8287446154738856,0.8040254843660994,0.744101486756819,0.6888355914196045,0.6339444060422008,0.5752947714292405,0.5025921164270777,0.44640166670324977,0.37981422726912495,0.3156311438311099,0.24090759657869487,0.22430994634769608,0.27706572478250147,0.34412675585688257,0.4107930215938782,0.4834432466119849,0.5475586443330815,0.619233081118344,0.6746489046207422,0.7294062343630379,0.7842320862769694,0.8306700876173254,0.8563634581451964,0.8885982986770604,0.9150320034577746,0.9139637140785828,0.8969098385368053,0.8752186419984622,0.8479676533586908,0.8292314472724298,0.8120774670560409,0.8294144470476104,0.8530151189344797,0.8821024243876074,0.8976827986093401,0.8979030494571418,0.8978994970146941,0.8929664161102555,0.8619443435566456,0.8526465361311306,0.852564946855138,0.8428769933984692,0.7909683169553374,0.7231632773528318,0.6610356073708443,0.5960647837030391,0.5355967964618134,0.4870486214816281,0.43208589512206697,0.364075614026488,0.297015157888322,0.24070864288920113,0.23343396627672997,0.30205007366064596,0.36621449463988665,0.4466096527945207,0.5223083531273702,0.5886331896369468,0.6563165496022672,0.7184296723987504,0.7803446572838184,0.8354360759900454,0.8847780260827944,0.9131546912689474,0.9156666585498505,0.903597132812862,0.9197573625684625,0.9203061677432944,0.9066848084322259,0.8961654786383608,0.8780551467776472,0.8752504139486739,0.8779199197020016,0.8874132960484151,0.862515925920083,0.8388950974633955,0.8390832587036829,0.7835790950518611,0.7216910894852733,0.6658764590891977,0.5928307303539713,0.5193878205196074,0.451193548534254,0.3851671561950365,0.30991117214562003,0.24477702358776954,0.17702298308752695,0.10753463317205014,0.039079437454368815,0.02132564053749597,0.0661982189825725,0.14586909726022101,0.21740955191969968,0.2879762292287493,0.36953338347648046,0.43599337858186615,0.5120163966562781,0.5883211669162312,0.6543414707841371,0.728747969778941,0.7903352148016087,0.8397517046988519,0.8891479905537945,0.9231968958439247,0.9278149091530601,0.8846614849557426,0.8678781627320311,0.8530102826597745,0.8514819292874711,0.8315868571860348,0.8093947193036581,0.8076634648619234,0.8256316260186227,0.85355998281196,0.8731638364569418,0.8690792110142542,0.8336181506601825,0.8084918108188193,0.8209573103727861,0.8410423303935377,0.8526632357332478,0.8679913033025835,0.8962024737789132,0.9126206967840225,0.9270283055724664,0.8922402465979298,0.8360016246440756,0.7740805388848084,0.7059124462289197,0.6406671661236252,0.5768639091939098,0.5043786787389801,0.4536104204735558,0.3791813619177611,0.31419758789208707,0.26765613399271615,0.29402643944605433,0.3661483612515517,0.4334824984940493,0.5152284837853642,0.5848218739347031,0.6558090218777268,0.7168131937718645,0.7757645650795304,0.8338815808621467,0.879790527607526,0.9148781678963136,0.9215398235195797,0.9390703302723811,0.942291748631078,0.9184423994483311,0.8776044073835401,0.8394439454355682,0.8242469523825902,0.8084737200377909,0.8231550765164761,0.8299148966915859,0.8299441626252917,0.8334704570636977,0.8509866506087125,0.8382466347588591,0.8300022255109725,0.8360850382759799,0.8415890995769222,0.7846626368777501,0.7173871533418708,0.6552007312803658,0.5938960686272554,0.5350330507775887,0.4758701828498513,0.413455777395086,0.34739513423656954,0.2740588457301065,0.21126470985652102,0.18091578540248454,0.218915190560383,0.2966098901416676,0.3640925359131675,0.438925132551117,0.5196782410587222,0.5839923857140428,0.6608369884464085,0.7236612945017931,0.7852116864778766,0.8467374799352241,0.8957499541121816,0.9145073026997035,0.8855712575925123,0.8551772118464132,0.8323873185079473,0.8302111147647442,0.8440763121921613,0.8484945338429557,0.8235148290442225,0.7855809348897957,0.7541318919459683,0.739574996869174,0.7418116473761005,0.759965098825452,0.7619246588198676,0.7523081203712483,0.73970950544782,0.7530564270443731,0.7489532607963185,0.6955143506835526,0.6222656891742728,0.5569974458932045,0.48781717277655545,0.4201988120029214,0.3580845804786965,0.2966880675105883,0.2344307599133546,0.1681075509337937,0.09665064431275372,0.03616039505312596,0.0,0.035672826474399066,0.1117367217561589,0.17606234464054626,0.2550826597926563,0.3371263520470591,0.40586012113553194,0.4788289474435117,0.545860794833299,0.6079641995238525,0.6701080469520431,0.7371005898120515,0.7949093582558473,0.8497642464096922,0.9020554749318612,0.9377158752941432,0.9469964649411029,0.9681833999748592,1.0,0.9749815876379686,0.9441449358759764,0.915996461921345,0.8982556990139323,0.8934343216859073,0.862540286336603,0.8526613271550154,HB
