0,1,2,3,4,5,6,7,8,9,10,11,12,13,14,15,16,17,18,19,20,21,22,23,24,25,26,27,28,29,30,31,32,33,34,35,36,37,38,39,40,41,42,43,44,45,46,47,48,49,50,51,52,53,54,55,56,57,58,59,60,61,62,63,64,65,66,67,68,69,70,71,72,73,74,75,76,77,78,79,80,81,82,83,84,85,86,87,88,89,90,91,92,93,94,95,96,97,98,99,100,101,102,103,104,105,106,107,108,109,110,111,112,113,114,115,116,117,118,119,120,121,122,123,124,125,126,127,128,129,130,131,132,133,134,135,136,137,138,139,140,141,142,143,144,145,146,147,148,149,150,151,152,153,154,155,156,157,158,159,160,161,162,163,164,165,166,167,168,169,170,171,172,173,174,175,176,177,178,179,180,181,182,183,184,185,186,187,188,189,190,191,192,193,194,195,196,197,198,199,200,201,202,203,204,205,206,207,208,209,210,211,212,213,214,215,216,217,218,219,220,221,222,223,224,225,226,227,228,229,230,231,232,233,234,235,236,237,238,239,240,241,242,243,244,245,246,247,248,249,250,251,252,253,254,Target
0.9999999999999951,0.987337173326245,0.9738171067314383,0.9602970401366322,0.9467769735418257,0.9332569069470193,0.9197368403522128,0.9062167737574063,0.8926967071626002,0.8791766405677939,0.8656565739729873,0.8521365073781813,0.8386164407833745,0.8252282282428223,0.8164439388023215,0.8042112915751867,0.7906926332999984,0.7771725667051921,0.7636525001103855,0.750132433515579,0.7366123669207729,0.7230923003259668,0.7095722337311601,0.6960521671363538,0.6825321005415474,0.6690120339467407,0.6554919673519346,0.6419719007571281,0.6284518341623215,0.6151752750204118,0.6065031109643733,0.5940471044535949,0.5805280266789454,0.5670079600841393,0.5534878934893328,0.5399678268945265,0.52644776029972,0.5129276937049136,0.4994076271101071,0.4858875605153006,0.4723674939204945,0.4588474273256882,0.44532736073088164,0.4318072941360753,0.41828722754126857,0.40476716094646226,0.39124709435165594,0.37772702775684963,0.3642069611620433,0.3506868945672368,0.33716682797243047,0.32364676137762394,0.3101266947828176,0.2966066281880113,0.2830888388759909,0.27172373320200194,0.2621092653516981,0.248682820704635,0.23516275410982845,0.22164268751502236,0.20812262092021583,0.1946025543254093,0.1817088068359869,0.17342107266953422,0.16019881343683984,0.1466787468420333,0.13316032828082236,0.12121858184808121,0.11924109354631574,0.11890120912007751,0.11664048722510656,0.10854583228858261,0.09513349294933393,0.08161342635452729,0.06809335975972097,0.05464164099325419,0.04506170604698412,0.03912896566961466,0.02632840831196903,0.015046578539772648,0.012024607382838726,0.007134187023508987,0.011637718538380804,0.02487743260846409,0.03806688444465112,0.04462394132747738,0.05324361066833183,0.06664478119599093,0.08016484779079747,0.09368491438560389,0.10714852110559292,0.11592751998896311,0.1078549674013567,0.09813697390553233,0.08797075568467572,0.07970819995993561,0.07116258032417044,0.062288457298475874,0.05770067588047656,0.050032097794799335,0.04307687725126519,0.04377463129166437,0.050043696209152166,0.061162186799892604,0.06955677633641211,0.08165177158123271,0.08607302276079332,0.08985979708964198,0.09363208394325251,0.10007246520904622,0.10430676081353885,0.09925784419623307,0.09308352726226299,0.08869795027976801,0.08599733761819894,0.08144742927711313,0.07983673022391546,0.07712881526398974,0.06974566298954699,0.060947242800575396,0.055286126393100266,0.04842503302048062,0.04300153907401849,0.0389876798754476,0.030217079557669946,0.023424243794047506,0.018427852440149328,0.019308937338672227,0.02567668898838127,0.03563993524902642,0.0446855500011617,0.057512442477922976,0.06499214844332502,0.07304898085630573,0.08155510885523731,0.09347564375648898,0.10113014584917612,0.10888025345466268,0.116626287271545,0.1215962996992821,0.12293412988490693,0.1227225234030509,0.11790126312392168,0.11320323325086068,0.1049932323006908,0.10446439362639293,0.10285378700574133,0.0984356150751251,0.098444039781593,0.10316822402116121,0.11004255022259712,0.1192388913654101,0.12954721039639783,0.13833274750380042,0.13219717457149005,0.12480963346892171,0.11685033470093398,0.11043091101780578,0.10252281033269028,0.09482809495891997,0.08794358619828824,0.0814185172327423,0.08065016701352345,0.08561743332439453,0.08254074227774166,0.08005986033532164,0.08528930497682685,0.08569982260574882,0.07809795897541805,0.06973748275006786,0.05687805255502343,0.047862788131126655,0.035985089344632404,0.0250983612163449,0.015044141388369181,0.00559151365249988,0.0,0.0005876252186591824,0.010277044797292523,0.023790998685672582,0.03711634685512,0.04542859596898252,0.05819473957424237,0.07171480616904913,0.08523487276385544,0.09875493935866164,0.11227500595346807,0.12579507254827438,0.13931513914308102,0.15283520573788745,0.16635266544318839,0.17785635427870328,0.1872481756145905,0.20075901322126355,0.21427907981606986,0.22779914641087595,0.24131921300568293,0.25483927960048924,0.26835934619529556,0.28187941279010187,0.2953994793849082,0.3089195459797145,0.32243961257452125,0.33595967916932756,0.3494797457641341,0.3629998123589402,0.3765198789537467,0.39003994554855304,0.4035600121433591,0.4170800787381659,0.4304307010270172,0.4388918792085641,0.45148381962673567,0.46500388622154176,0.4785239528163485,0.49204401941115483,0.5055640860059614,0.5190841526007679,0.532604219195574,0.5461242857903803,0.5596443523851866,0.5731644189799932,0.5866844855747997,0.6002045521696062,0.6137246187644123,0.6272446853592186,0.6407647519540249,0.6542848185488315,0.667804885143638,0.6813249517384445,0.6948450183332509,0.7083650849280572,0.7218851515228637,0.7354043491545017,0.747924172603464,0.7565643008353704,0.7696184529341148,0.776877746000632,0.7846971940036416,0.79805624099896,0.8115763075937665,0.8250963741885733,0.83861644078338,0.8521365073781859,0.8656565739729922,0.8791766405677988,0.8926967071626055,0.906216773757412,0.9197368403522175,0.9332569069470242,0.9467769735418305,0.9602970401366375,0.9738171067314443,0.9873371733262497,1.0,HB
0.3777870531668222,0.40374767734985245,0.3919388462582977,0.37170834370561184,0.39159112846865324,0.41039463892420286,0.38555996563233313,0.3853403214887749,0.4229840836683994,0.45587942935113607,0.47988633165322764,0.48743058353102015,0.4823430082253282,0.48125265834179914,0.4628857892157852,0.4235106042278896,0.37674990004794523,0.3279690860407782,0.2778608601733407,0.22852069098255684,0.17747554916420183,0.12846105289859844,0.0772176958097191,0.033746896978123386,0.038003792309604045,0.08602893099514408,0.13645794090188923,0.18605374152192283,0.23821065858889762,0.2904623362281787,0.34099651548995175,0.3905214797349383,0.442664525987897,0.4949462221149336,0.5472279182419699,0.5995096143690062,0.6517913104960429,0.7040730066230791,0.7563113306614815,0.8066132472930496,0.8563476973354203,0.9078483321277184,0.9318514132578455,0.89396812265779,0.8436189700595764,0.799406762362445,0.7521475943383344,0.7034428840412754,0.6543019437676398,0.6065453462215527,0.5643041223589138,0.5182854432519397,0.4767109553859911,0.44306344942169223,0.41943342910929765,0.4089545433901906,0.4281938193307259,0.4542586128212535,0.4709026053131487,0.4727147523685868,0.477614330100315,0.4733892054834639,0.441508458369217,0.39298638302094463,0.3436940236415536,0.29485949027381136,0.24342870082879892,0.19115163452502026,0.13889828344126443,0.08834434333288715,0.039344080843984,0.008127030436749116,0.03801286662917669,0.08653224665355824,0.1384840031240674,0.19021958899842156,0.23912244544991096,0.2906606076762132,0.34293897732917683,0.3951204712871024,0.4448568362150837,0.49515475572270945,0.5473928447281764,0.5996745408552131,0.6519560216192923,0.7039848288112187,0.7531561273747716,0.8041415606416975,0.8564101043812489,0.9086244665446073,0.9545601105931771,0.9479441148346897,0.9000063570791925,0.8504029423956379,0.7982461270395089,0.7461683341769498,0.696902741520566,0.6475681304321426,0.5986473576219351,0.5501547812184597,0.5042382117826494,0.46482474130100887,0.4352082658687257,0.41125130664869597,0.40785626265306213,0.4296393446638798,0.4548630127957763,0.47448334764832173,0.475544277429029,0.47802950755485424,0.47625170644309905,0.44184779189879037,0.3938144787092243,0.34521218027276285,0.29561993219558874,0.24666658688142712,0.19479551970250364,0.14393155692894283,0.09467270368452407,0.04289217323825867,0.0,0.009585923856003875,0.058967574064194006,0.10813922613483962,0.159114343598583,0.21138261683286103,0.26363019283607286,0.31407973286918184,0.36367898192542475,0.41583648423186054,0.46811818035889613,0.5203998764859328,0.5726701668615044,0.623713162497026,0.6728464444706792,0.7248540296845181,0.777135440011969,0.8293970009374221,0.8801512164261944,0.9294945096397504,0.9806510520889387,1.0,0.957707689052252,0.9088477173366754,0.8575450371051347,0.8086313674302912,0.758441955909054,0.7094232410900161,0.6600879381283247,0.6113792306856931,0.5689120242291794,0.5231780748640411,0.4781386324914629,0.44286460418815893,0.4180098795955028,0.4038593806509209,0.41984521662204527,0.44483079738281045,0.46834682434586244,0.4747987939934493,0.4781956267257957,0.47605161582237027,0.44131784307281124,0.3936891883417241,0.3444816388714245,0.29564273605484354,0.24441096170645,0.19496442325258512,0.14435635260675828,0.09345442478410626,0.04591903191507918,0.028603577718149142,0.06715815144889603,0.11810091082883672,0.17033621782534392,0.22077359754816467,0.2703838105103242,0.322543068535142,0.37482476466217757,0.4270131594777465,0.47680548989842825,0.5270442636079216,0.5792786320611771,0.6315579335488086,0.6831956603679943,0.7320851060173186,0.7837347085369399,0.8360134733788445,0.8867902085394432,0.8996797218613732,0.8559993874561376,0.8064930967980306,0.7573254567844616,0.7069903398357875,0.6581648595825038,0.6089981510826323,0.5607032176791193,0.5136404304097779,0.4699602186040234,0.4359998801222738,0.4115752617027533,0.40173202520618995,0.4206200578560733,0.4482824384008604,0.4711159095846575,0.48009324260790803,0.4863242139347131,0.48164167263286356,0.4528681206169373,0.4056388821761305,0.35581331652872933,0.3069380348221467,0.25573037966964945,0.21078946580710106,0.16445122901821224,0.11363527653324612,0.06452496578269801,0.019005335835352855,0.026400353993569492,0.07448603980002377,0.12671134724232885,0.17787719303351557,0.22693311533304034,0.27889294679401516,0.33117422131321334,0.3834399288287516,0.4343286934818387,0.4835698570971117,0.5356282188023891,0.5879097848392494,0.6401760527047997,0.6910827237337431,0.7403113429720836,0.7923637985590908,0.8446383517330511,0.8959030834687598,0.9445519927084465,0.9742625153182867,0.9382234924466684,0.8915393848817774,0.8495882491495976,0.8069445042661028,0.75709304695822,0.7079795169123508,0.6569498054844236,0.605341102521284,0.5569708916859633,0.5102452861428413,0.46864419335028334,0.4379784098504043,0.412719917867819,0.4023109126303303,0.4220078994289564,0.4473885638397315,0.46627432399819607,HB
0.04814436038025427,0.05040764228297068,0.04210926502303658,0.04888306929807085,0.051508082202860406,0.03676194729314064,0.02945587154339946,0.029564508930855604,0.0367571747888118,0.03162727656901598,0.03750558655582226,0.04826675795518187,0.05704826469063584,0.07936882539204548,0.11231314023331862,0.15726460725801727,0.20193256901228063,0.2472236344768448,0.29743010943689363,0.3424166005554863,0.3882239529357574,0.4380274951246612,0.49265007462017163,0.547314149912784,0.599883644583644,0.6451984402576016,0.6988888230069263,0.7456626099248389,0.7892470799552536,0.8270070142351398,0.872018603148073,0.9223627094636742,0.9667804835539582,1.0,0.988101155779161,0.9414627195997909,0.8877480390882595,0.8426918289705441,0.8000719788479214,0.7591255556548151,0.7048482051656735,0.6501804920160659,0.5962849561379344,0.5509701604639763,0.4984006657931159,0.4437365905005035,0.38906857883735046,0.334402509075042,0.28143087195522165,0.23627444744633985,0.18262446264921328,0.12825969502068713,0.0853107976964087,0.08566659437102242,0.09045953720109967,0.08844799850800378,0.08619166991565486,0.09617575430646141,0.09932259356615569,0.07579011166971661,0.04847643392739531,0.031064019331225934,0.036056966381568856,0.041504248742184835,0.042246858793550945,0.05426825918700384,0.06516217825643444,0.05744667219631938,0.05349824194137254,0.04200381480534321,0.02527064583500893,0.01729582303513344,0.016843621568744416,0.009788090620659995,0.015756668872648483,0.026580990433223484,0.029354423895782356,0.034251570803841336,0.05626524883271089,0.0925675203324614,0.1363920256832234,0.18028739829801843,0.22640087976094536,0.2721727831525964,0.3149253221714279,0.3482592748155824,0.3962604480111471,0.4448538826854609,0.4934381159808372,0.5446441441920689,0.5908276038348919,0.6446310093783993,0.6903401934527129,0.7422622327302961,0.7969207184821578,0.8514718248595812,0.8995330202179614,0.9440796856633282,0.9544811691564079,0.9154562321966675,0.865704484906225,0.8202905590528684,0.7837383011697256,0.7336065857939222,0.678952903840615,0.6243127066983973,0.5739443139867753,0.526981892068163,0.4725092282179202,0.417841216554768,0.36318273080290586,0.311260691525324,0.26555143483033117,0.21139748283553184,0.15677496143656278,0.10696961774679137,0.06073551190991067,0.04411251849509412,0.06333975227520461,0.06602261563516065,0.06859116765102802,0.08369387733737099,0.08885187283996343,0.0700859260377118,0.043307977756403826,0.02614366452328265,0.026795938391775298,0.03246424696350769,0.04116801462335018,0.04201705953549273,0.05077401838384521,0.05290462877165303,0.036332350745530206,0.029191134557373433,0.021584650546866424,0.0070522463536606406,0.0,0.005128272155366709,0.013441074882213355,0.011424170283719004,0.005564437050585624,0.018934613633134534,0.03401669788514017,0.06657541037173575,0.11029739891119705,0.154144722321786,0.19810880060015457,0.24533528654022518,0.29054294872448017,0.3423625969000845,0.38774674719305136,0.43950311190642344,0.4849505456616212,0.5366436269127632,0.5821544796887892,0.6342061461827049,0.6817029157528238,0.7315041184253932,0.7838994455081174,0.8291597290998642,0.875114697646048,0.891427218518599,0.857933008721647,0.80411350996672,0.749530938121068,0.7010906702119244,0.6522703352457024,0.5976702022887901,0.5430021906256393,0.4883342225348928,0.43396666883935797,0.38745140777075227,0.33939316347610804,0.3031098116001014,0.2516712701143162,0.1974569629418399,0.15156556480732064,0.09991996188634689,0.05385355324990737,0.059554712136246746,0.07271028999130613,0.0863965227833372,0.08209186692907888,0.09905002789109174,0.1020230395057089,0.08781210775255088,0.062251710261363336,0.04276479437209657,0.04156756967366726,0.04156704680478884,0.04156704680478751,0.0415670468047864,0.04156703228064962,0.04131666279670454,0.03348741091423868,0.025272209264108003,0.012138140918374285,0.005018449632556488,0.004881933715030762,0.0048819337150294295,0.004919881308560026,0.010095993770747214,0.02581350000273197,0.058425650037440935,0.09849925005965643,0.14423059414113792,0.19417035959369278,0.24644135566759928,0.29189161582493206,0.3414370235114914,0.3885622988438966,0.4409148211946423,0.48622928765486284,0.539384802268895,0.5823066776525416,0.6166279427848051,0.6621811856741773,0.7100163708871099,0.7633820046262279,0.8084972432450686,0.8613045538210309,0.9056392676143386,0.9274867733779497,0.9048829428899934,0.8566147681173679,0.8078305341284588,0.770895391047683,0.7262979193164707,0.6746306564859248,0.6199689965197814,0.5653009848566284,0.5108499455135904,0.4637205837279117,0.41349604182029953,0.35885730923393266,0.30418929757077917,0.2495212859076319,0.1948532742444793,0.14018538361578914,0.08632233353986374,0.061545825867879156,0.06688663593878008,0.07645814268497664,0.07911753386087184,0.08858867055709174,0.08915763091225859,0.07020117906096845,0.03931293932252378,0.030800021423674107,0.04025316012519564,0.041983630446836395,0.05029512367138178,0.04507729083694856,0.04158115597723433,0.04156704680475243,HB
0.14063959645012458,0.16957462522343292,0.2088743706850702,0.247654900528973,0.2863254982139347,0.30422269227741605,0.34076562520051823,0.351659282432061,0.33849036241041586,0.3239347073534844,0.28394513292769696,0.2313241971873734,0.19360497932216414,0.15508019236070036,0.14835043883815668,0.1900749347264481,0.22798938790696077,0.2788341403803243,0.3117647484060797,0.3153546831603551,0.3010189663700997,0.2738551483920795,0.2511119503464838,0.2574591860858917,0.27484878806414437,0.2802139436033251,0.27790075743915876,0.26714096322729963,0.25252797788096326,0.21829201412733457,0.16734021144401123,0.120887421463582,0.07334467070590578,0.029051710858361446,0.0,0.019499832262685146,0.06782036658604174,0.11517884684406687,0.1704619935226399,0.22607818587940232,0.27680472666522715,0.3257733205980087,0.38129522923769743,0.4369633749374011,0.4926315206371048,0.5482996663368085,0.6039678120365117,0.6596359577362154,0.7153041034359187,0.7709707942548305,0.8253832146884585,0.871792292338823,0.9258888633402562,0.9729436894334973,0.9798941387098945,0.9360910111233993,0.8845211266981297,0.8323880839912907,0.7999568915295998,0.7530680952451698,0.7039914752780878,0.6552258598571679,0.6100895909412545,0.5656503392919259,0.5263261332612159,0.507267477897249,0.49812207513263274,0.4935341895359211,0.500305935551473,0.5129052082059498,0.5043776337287325,0.4984119384815462,0.4841213868000742,0.4814509651566916,0.4754701179691778,0.4782123305477668,0.4878359408515982,0.4776854923719045,0.4665683631485267,0.4582194715458474,0.45689843493865356,0.44153983533210006,0.4214957744982928,0.4176013860869334,0.43926679369553634,0.4687688924770068,0.4748059740066497,0.4842329872514206,0.49321972274285786,0.49143343658769667,0.459281072189496,0.40445328872251385,0.3563888295079376,0.3117173111001985,0.26473586193524046,0.22027801146689718,0.1902270994734534,0.21102419266628147,0.2560639652769201,0.310399481533574,0.3660659777811286,0.42064426972288493,0.4671418172620623,0.5212330248518833,0.5768998145862341,0.6325679602859378,0.6881809353063297,0.7388393323368532,0.7878726701839454,0.8434010500463907,0.8985477143429712,0.945525638024824,0.9965559757364217,1.0,0.9491155869361054,0.9024752460042862,0.847654253892185,0.796647459305087,0.762823146318024,0.7161891816317487,0.6673706344800041,0.6203716518714102,0.5757103342100764,0.533376350603818,0.4945152130117707,0.4754913622289074,0.4576011952918999,0.4464877147055446,0.4458005680008734,0.4378918984380815,0.424733839701704,0.4135859200463312,0.4029749972907144,0.4084395911619134,0.42751896932778877,0.4454309676909083,0.45108516447655367,0.44189323043766016,0.4344020653354803,0.4336378509674008,0.4215678061544885,0.398941502581712,0.3920909371055936,0.4108134040370297,0.4390231553354662,0.44697397598740984,0.456101438946952,0.45346308042423367,0.4355070499452438,0.3949916926468693,0.3471310096409159,0.2981997030346324,0.253191568293031,0.2076575468714914,0.1607526321598578,0.1450606372475136,0.18102770815701685,0.23597302384510144,0.2912552474647452,0.3387245350870416,0.3911489872748044,0.4468062831012236,0.5024744288009275,0.55814101917387,0.612533925312424,0.658932594740576,0.7133086626571474,0.7689757788276017,0.8242514441764821,0.8716869293622782,0.9235302760919133,0.967433547205113,0.9605137881297927,0.9116064920176168,0.8627210615698888,0.807401612843492,0.7591047370216812,0.7076661858365458,0.653920171569653,0.6074859630573313,0.5597849399936887,0.5153687416549184,0.4735567765334274,0.4372114963859002,0.4161171662149252,0.41055733809111894,0.41131153139425347,0.42033449141157164,0.4215542041734277,0.4093246810952069,0.39649397663839014,0.3915042672069644,0.3909457329179895,0.404694770783091,0.41985968173216937,0.41397073281152497,0.4074650992735387,0.39665268914078866,0.39004588624980885,0.3979156188428641,0.3887651264944032,0.3734436863762862,0.3650058425972196,0.3821440122462971,0.41301263746479955,0.4157319168921265,0.42215505859269453,0.42221171080663855,0.4092501543996312,0.36682108608560027,0.3177110678451833,0.2709890048251069,0.22379576759711206,0.1769661035350445,0.13834189724139412,0.13536545507529985,0.18174802879228547,0.23736591174899946,0.29303405744870337,0.3486140547712957,0.39851527544667875,0.4482709412787662,0.5038672931637629,0.5595354388634646,0.6151966100631725,0.66756720120553,0.7054628591295913,0.7528922661835216,0.8024477577695683,0.8570600436556948,0.9035157307357053,0.9407908480947058,0.9117305353950518,0.8579659221076752,0.8067405467980913,0.7582435543555728,0.7043015838012257,0.6578236376481099,0.6053192819291509,0.5587066789357786,0.5089119829190516,0.46753688386819015,0.43294726429960884,0.40396782847972057,0.3922599266585214,0.3923736935872102,0.39119356808643313,0.3980096299264262,0.3898289867566942,0.38167673270304747,0.36475406122588794,0.3710126199771866,0.3820664880278599,0.3950466316688559,0.4096469406691783,HB
0.07666075438113529,0.10678616133129859,0.12489769014874508,0.13127821844164655,0.11724335006635433,0.12679277723551374,0.16197221144450014,0.22468889589852292,0.28931746881029374,0.3563843543620644,0.42584895699822845,0.497520298730882,0.5639251743536158,0.6394693390627237,0.7114121727982279,0.7771451910032483,0.8364072683676365,0.8331272278670547,0.7713550041783086,0.7043188646861913,0.6337111232808246,0.5577517566661725,0.48367502935051254,0.4186943404738157,0.3440399414020012,0.2680306125741403,0.19215195263164198,0.1234462453496703,0.05438060642583542,0.0,0.025493204898343613,0.04111998095500047,0.04839047999766155,0.045375779815108874,0.06016883383140437,0.09696975138711039,0.13091014978937565,0.13524323373749514,0.106731661867987,0.1106446250630988,0.1405536843867896,0.17067532758848758,0.2051082668727351,0.23342919923337213,0.27826991386931255,0.33642147786321264,0.3991195034265229,0.47220948507589444,0.5373740512862595,0.6110070816873039,0.6847832854445683,0.7499094038687946,0.8240326067833932,0.8896178876307395,0.9557552971009122,0.9705000922228568,0.9173834526032292,0.8440912474021847,0.7700351891583974,0.7050515549978789,0.6303866069392003,0.5543780465077663,0.4794254393254902,0.41431172125451043,0.3490518853397009,0.29219923173823226,0.21784214800731716,0.1517142896246857,0.08184242167202349,0.07136853790355291,0.12880933361029312,0.17569591251935535,0.20462443092847593,0.2189806669697374,0.1989869952499399,0.17618467173232677,0.17428783387248492,0.17851602531018607,0.1683451147155628,0.16234229536168154,0.13795856974212262,0.14177711942894344,0.16380625836008855,0.1818156532047328,0.21096750893036997,0.22480964535727832,0.23546998025504173,0.28825089450726704,0.35301086445518237,0.426020591330615,0.49111589251198584,0.565626336295459,0.6331724965550616,0.7035836145085725,0.7765856554978012,0.8420069744846463,0.9127763717931301,0.9596091283583381,0.9328588831405975,0.8634832262315415,0.7980655569723418,0.7229464684952616,0.6516941326686561,0.5848642299700462,0.509208964911946,0.43336946593947046,0.36505289618401227,0.2954240652602995,0.21994523585146242,0.15358999712221832,0.0927836532049402,0.11157367061544221,0.15508086639269347,0.1535544161409219,0.13479639638060048,0.11569137392639028,0.13345622737992224,0.1625380324282859,0.16270630148609122,0.14179676882953407,0.11394134867917938,0.0826326035524132,0.06073766727256169,0.08780380595308213,0.12995158293292342,0.13881904551901636,0.13143958395591548,0.13896827060371475,0.16566016377343518,0.18568781639318477,0.2131019652106496,0.2565647415887313,0.31716962299965434,0.3867513728057186,0.45373388438271656,0.5293990382649665,0.6006416422650629,0.6674600537755682,0.7427749715382084,0.8095553779318698,0.8792837909874303,0.9303624239722903,0.9119219134876131,0.8397334610617793,0.7681184172485858,0.7015980089247904,0.6260059823348403,0.5499954431675969,0.474574392789918,0.40858266252082753,0.33627519409717666,0.26033243383248195,0.18977328385059256,0.12239695805485695,0.061710196091609326,0.08903071896656511,0.13464905921080517,0.15621925489190236,0.15377020839624977,0.1255758230323205,0.08331801840143749,0.03882604416552393,0.025857225941625206,0.06246487985791882,0.10028555128886074,0.1326986682155895,0.15226858807769972,0.1484403759645514,0.12980391095422572,0.14332883524970308,0.18762053894369934,0.24245431245328275,0.3054374415503269,0.37025594386701544,0.44248591670874937,0.5172370567705817,0.5822584593377669,0.6561728933677307,0.7297098343518247,0.7949018621985777,0.8690632722781833,0.9343842536323446,0.9949628846904335,1.0,0.9453793808063393,0.8705542629967211,0.7945443863489938,0.7185335950645935,0.6425228037801958,0.5665120124957959,0.4906725014975497,0.42235593174209063,0.3527270256573183,0.2767964725974439,0.20227544498360395,0.13729811662084357,0.07654663113345839,0.09549229410196247,0.12138385934935103,0.14820302408437058,0.1667341171047685,0.15620176968159294,0.12742101616206858,0.12053314187743958,0.1440961982250255,0.17170716588436719,0.19420760699855588,0.19639964623027328,0.19791943715877602,0.22099899388667366,0.263345576506576,0.32264815494659116,0.3861651502628267,0.45496184190554656,0.5202609465293309,0.5934292914609669,0.6635487432291081,0.7313842556101262,0.8041340203169809,0.8544830671920356,0.8431299634509286,0.782508273226604,0.7087975871222967,0.64219840327985,0.5706963428783731,0.49471561810745524,0.41995215201196867,0.3548409989304919,0.281005178061712,0.2061508945468704,0.14107194651892652,0.07387619089299502,0.04882669316970567,0.0972626345812948,0.1336167108464088,0.1556439888044001,0.1783059279355168,0.17206144513884425,0.14004936503998522,0.1002109532992641,0.0841339330886628,0.10221309473022311,0.13325529085617216,0.1617636057449081,0.16157253322745024,0.14776877216541262,0.15496576327294287,0.17119571933428857,0.18558556867488507,0.21998034106714837,0.28150362921633265,0.3500290531784245,0.4175868003415566,0.48785755083127214,0.5574681415724552,HB
0.13779244596815166,0.10794027251122507,0.08621467831731033,0.10736907377264826,0.12428170424723262,0.11257476426771085,0.0847285674456939,0.053074731944595,0.018220304982168756,0.0,0.019603498377624762,0.04629175924722295,0.06927387667441698,0.08457182978733435,0.10066084476240311,0.13820296200491877,0.18473534376433887,0.23755183529192125,0.28883625053849205,0.340868498782259,0.3963577934630489,0.45098802467382804,0.5005711618615649,0.5550792952514831,0.6101177471779471,0.6599435784001779,0.7137547108511217,0.765993442187362,0.8170999966405723,0.8722538698747562,0.9226661481332259,0.9742693271107716,1.0000000000000002,0.9651277822204538,0.9101785882107853,0.8546291135006758,0.7990793916193506,0.7435305543869581,0.688662056245583,0.6389849347062453,0.5848073765332817,0.5292621731474532,0.4740748403437933,0.4239582539561342,0.37053070212854466,0.3150247265620767,0.26226941532243475,0.21161833328985313,0.15640115305847702,0.11246463028111342,0.10823136451230964,0.10983773446280942,0.11822881250862127,0.13234495900165322,0.13135585167888597,0.09972900881391977,0.09105929207567032,0.11489716124211169,0.12416922445006251,0.11893524355652563,0.08881769805599893,0.057800561572916465,0.03304372942272593,0.03990165062144335,0.06297492270814886,0.08269073733600685,0.09030966886332936,0.09924925673503693,0.12752614231135606,0.1734153466231929,0.22369430239794297,0.2789182756883881,0.33099135073872077,0.3822670733426614,0.437695170712759,0.4932442823818255,0.5482037114989402,0.5977151379952219,0.6434040949714739,0.6886989798888812,0.7309453839480153,0.7794732354278986,0.8344442311319387,0.8860617635918742,0.9196465566954724,0.8978890716893206,0.8451900033027335,0.7935690940964499,0.741861435621864,0.6863937266805729,0.6310491778207243,0.5803331551825095,0.5276436801999398,0.4721260453614857,0.41666921193905115,0.36506649267514635,0.31332805794795493,0.25786300363784154,0.2036569810646791,0.15415440054888352,0.11395251253834005,0.11269381901477504,0.11946397324451619,0.12901824334017276,0.13640655711663152,0.1088743719617411,0.08841213449677943,0.1054608977679603,0.11846494821877718,0.1108351060924666,0.08136349376262575,0.04787811674904274,0.023387407335738297,0.028281266334998056,0.05365059347675816,0.0725739070331326,0.08222839123269243,0.08864566803824636,0.11550887815282507,0.1619630626919415,0.21432244087818586,0.26490328934031493,0.32005463910240595,0.3709990867997788,0.42343092248863434,0.47877102664172,0.5297051560780053,0.5821452573423378,0.6364831957049586,0.6861181696227019,0.7408250880707599,0.7960183501408171,0.8461782323959437,0.8994821085776763,0.9498000649228102,0.9621486940691459,0.9201040759438641,0.8672916827263306,0.8118767833143103,0.7604394416715363,0.7085317375550144,0.6530530644384338,0.5983775441644654,0.5487508059888724,0.49433057773378075,0.4387854371417914,0.3841173390934933,0.3344925387395825,0.28006297701979377,0.22451780984515035,0.16985717619855945,0.12077539214717947,0.09219921400919096,0.10631447295907459,0.11115948543042009,0.12085109443012976,0.1366586832644332,0.12351827228743906,0.0949904846433709,0.09482382211834395,0.11935126063230195,0.12230838964020463,0.10016282176082592,0.06906946969776961,0.03511437852452892,0.009401495554183015,0.017310569397604336,0.04153082960239929,0.062034892463388225,0.07034725647902595,0.0817047107851574,0.10928160496391848,0.15314935448984035,0.19277416256622582,0.22977687999082286,0.2822261336569607,0.3376772501279961,0.389346438286825,0.4410168120321012,0.4964795908446742,0.5520291103930992,0.6071770311698983,0.6572122884483991,0.7107596830725367,0.7662625908855882,0.8188709661725226,0.8696548778052022,0.9241034184443058,0.9594342951542678,0.9379082408821786,0.8891697457901049,0.83403945987424,0.7828013942741103,0.7306897974840756,0.6751967236995651,0.6199209425538519,0.5695341239916751,0.5164575822799391,0.4609290129553334,0.40538134783391677,0.35081344983215534,0.3012148100709584,0.24665924657775662,0.19124052593552765,0.1400919356245851,0.09695807696773495,0.09657867044813306,0.10348458108256309,0.1138581034854873,0.12216817639405009,0.13743312797561025,0.11480400315512651,0.0880218967279851,0.10247657405832,0.12266236109997286,0.12066402107389029,0.10012238619240077,0.06986286056575675,0.04506705450044013,0.050201481657267566,0.07101668397795446,0.08727232868893187,0.09790887588535324,0.11743879044404659,0.15881054800687333,0.21195259845482428,0.26186703923905275,0.31473639215811744,0.36432883467296673,0.41871130333895024,0.4720767386910636,0.5222310225505438,0.5774010982866906,0.6298324095103884,0.6807679015326282,0.7361439142453952,0.7894937050419522,0.8395544170441631,0.8870147881820525,0.8851235293658257,0.8394095115232341,0.7847932546876821,0.7318203376743764,0.6813613554753493,0.6260547173221036,0.5711037271020329,0.5213899084396276,0.4673309814131701,0.41179443569556295,0.35798811506517403,0.3081402520701064,0.2530682466021652,0.19752686791729612,0.14373592317184625,0.09786504611778768,HB
0.12681215179738148,0.11246077082315553,0.09682977534225534,0.07695512578131991,0.041988876367393235,0.014528266226822018,0.025792001128629227,0.053850341404392044,0.08433125852841172,0.11960500611839509,0.14698438609988163,0.18014800586739055,0.20741627370991944,0.22676414039663406,0.23519477852596937,0.27104513308359524,0.31875226722650796,0.37039916792034155,0.43045007187358797,0.4927389931577477,0.5549432884209042,0.6105985801022515,0.66674554194578,0.7289381015041227,0.7883661338392325,0.8411304201248986,0.9025652512787565,0.9561122536526443,1.0,0.9963157606762865,0.9523615610869722,0.8999309790475545,0.845212312157078,0.7831994256049915,0.7271019221031878,0.6716006801657248,0.6214019356509861,0.5750993753730764,0.5227809293578356,0.46121046168693747,0.39910780605247664,0.34457673147464885,0.2878445336943418,0.24942787667296917,0.2419323847093331,0.2191236435684205,0.18634588106427774,0.1533968704601345,0.12290911563602291,0.12205430131119588,0.1570550590687474,0.17307144650767947,0.17837661675232308,0.15895061441384595,0.13608562235568078,0.1039673841763693,0.06874914177769043,0.07853213541792314,0.10815500040897463,0.13438958897764852,0.16335608447430605,0.18968170068924461,0.20925082497696224,0.22910776588397885,0.24619035905523123,0.27787862939112884,0.3271832037883482,0.38285913655696246,0.43523337239819293,0.4937284735185994,0.5459452867081418,0.6069003206320822,0.6670577939884761,0.7194722533458706,0.7801919675383195,0.8294806432069257,0.8494697688389476,0.8141509648640821,0.7595886681882731,0.707527419786182,0.655343425455706,0.5939344165241498,0.53164702693668,0.4719327652506533,0.41928391196200243,0.35851045668724746,0.30605912954457004,0.25294677822876466,0.22834303447442705,0.2263609119179466,0.211358838735074,0.16757633314401366,0.1362767437948067,0.10268452933773675,0.06955058114920298,0.07171690803369746,0.10520297142758839,0.12232689581557565,0.11304141928907807,0.09247190755076318,0.0721396790156148,0.042151495589663135,0.03428463642578983,0.0507006485237147,0.06346707132129747,0.07539932309814956,0.07940489104992299,0.09757648856513779,0.1227053750891276,0.1578803303347982,0.20438333310040369,0.25622446001466903,0.3086772522028758,0.36381573660091027,0.41980519807357997,0.4762840183506687,0.5188843835829444,0.5126220857801123,0.45969188441563746,0.40755698794250206,0.35608248958629884,0.3044887320439944,0.24998182984363426,0.2000286192720231,0.151404787742774,0.12381869197031525,0.1379842441338912,0.13032754989024298,0.10758151880717559,0.08413342967693582,0.055195526831744335,0.06021198079419632,0.10590181317214142,0.1358261414244093,0.14654707856261373,0.1493304514275593,0.15138754020096234,0.1507434438201538,0.1500422529433716,0.16391985997904657,0.18574582371525894,0.2052717949952747,0.20176048904109978,0.19762158872083724,0.20055698283060863,0.21847862920787797,0.239121494769039,0.289074796975306,0.33687100123263836,0.391671595156303,0.44530718249701984,0.5071920696474659,0.5645897954351233,0.6131968400420371,0.6279581067736331,0.5868323933865329,0.5273289024303764,0.4756787995027376,0.424022412716043,0.3672176490025283,0.32151894861541885,0.27227993360373093,0.23147203343195732,0.24257135221933757,0.25185125143722464,0.2184258651129145,0.19174934216210904,0.16511448349747315,0.12960462808853856,0.09563579124619936,0.10974210581643806,0.15505174587044834,0.16845018449922655,0.1630034333378445,0.16465022046565148,0.13716204750635752,0.11648782574856265,0.09190878530972402,0.10023817609075003,0.12714014251989392,0.1532688275680445,0.16582056188633132,0.1712514331123267,0.18778898949961986,0.18686103972056456,0.20746899226162618,0.24019663775076205,0.29112545359649555,0.3482561473696282,0.40371275183236577,0.45615349525685334,0.5095994173823595,0.5662345195674194,0.6209362454312699,0.672487569327568,0.6753932307111197,0.631125743487511,0.5776646265007592,0.5254971243613724,0.47778287011761567,0.41671924610578737,0.3567701165782209,0.30426623562187194,0.24474328253913535,0.2104753927758587,0.20188954754316857,0.20351382919434435,0.16905509814147068,0.1480403480156962,0.11551019987431443,0.07636388493050328,0.09296845528706799,0.12392240022291867,0.12271598256930805,0.1215633615317322,0.10869505169677307,0.07417933726695569,0.03308728572494268,0.0,0.002761541821722835,0.03601667567672928,0.0758101555949966,0.1142552790420246,0.1553224328369498,0.18733942739852738,0.1991921891953865,0.21698123996718222,0.23921031545121085,0.2795562641838609,0.32251342195226407,0.37304367051356735,0.43161023274648125,0.4839387426104391,0.5449714030603547,0.6000630822422819,0.6567989342499017,0.7182535311630733,0.7708417606604576,0.8306505785900686,0.8902121377397174,0.9306783577082545,0.9650961073231406,0.9495527734320164,0.9019561965687579,0.8517855840796056,0.7934692929088802,0.7405762001629967,0.6789574326147045,0.6229589563529001,0.5671520607073086,0.5049435033647289,0.4426790031646184,0.3847800201168643,0.33076227386019585,0.27306525984199626,HB
0.13444946219146914,0.1138321473791497,0.07913542457248823,0.04860436445492988,0.0268362212628821,0.014151681905330005,0.007664112591034389,0.011315962318285244,0.02343737931311285,0.05660102594709304,0.09758904731547258,0.14601110398298145,0.19863613152439896,0.25924876341772185,0.3185252846015505,0.3609097401891055,0.40151134257924737,0.45932934259196667,0.5093423400866386,0.5688559048022452,0.6221265862284588,0.676896274070669,0.7376434737437045,0.7981357232596809,0.8497530408792362,0.9063131341009933,0.9655737225821186,1.0,0.9807482984018336,0.9298586777198934,0.877712196689457,0.8171141711820864,0.7591847614899616,0.7086309785229328,0.6484512381532102,0.5876386316670268,0.526882443343037,0.4717724279484199,0.4188295810667704,0.3581717651389238,0.29735946822444115,0.2374550031782836,0.18727841255791988,0.13073610469153252,0.08495099238598192,0.06957434398747564,0.07915221619791923,0.07534516325512053,0.0879569581419557,0.09448911554691586,0.0813587498659456,0.05927182334400083,0.06534061725936935,0.07177052210741675,0.08159462751041158,0.08713674873143606,0.08533355325099778,0.09302026431295118,0.10170479647776265,0.1346500600890126,0.15742173228939027,0.17667152528485897,0.17103028724271008,0.14030058639928855,0.10857304908176602,0.0842534321590862,0.05863455079490221,0.03384628972747894,0.014404524732988921,0.014055708181432536,0.02489268119811605,0.04153088111236025,0.08343943119651698,0.1275931736220799,0.1781870826543952,0.2294624718752427,0.28521650018028266,0.3353864463590175,0.39315043456532095,0.44355270458911944,0.5016928287929021,0.5601145602641977,0.6103886264690814,0.6703443693986251,0.7307667699101201,0.7821222165965591,0.8390125078264457,0.8992818953011597,0.95006701029024,0.9966314406997276,0.9930402403942518,0.9450265856725979,0.8844049678835733,0.8235921940687043,0.7627794202538367,0.7019666464389682,0.6411538726241002,0.5804066729510646,0.5256369851088549,0.47236526899725106,0.4116870060959972,0.35105569919068325,0.298190146549552,0.24299507074350357,0.18307753579660302,0.1328935763652841,0.08427545243213519,0.07049051876609669,0.0796136523658455,0.07927379189863393,0.08984418597068977,0.09492162304815066,0.07924082784639408,0.06463999098524464,0.05874299368791558,0.07265001325277254,0.07435387220336809,0.06827938936343925,0.0686232177790651,0.08223219053603037,0.10389784294430893,0.12296245717181975,0.14954373401503274,0.17258088961474094,0.1756925290839817,0.15477773168163234,0.1262160501437286,0.1026903972424078,0.07545390254613826,0.06174728010257491,0.04212860516087957,0.03166208980147678,0.03576880170073071,0.04675235131012778,0.07499411447015536,0.11588065748211873,0.16186615601062337,0.2161873306270703,0.2665170223978981,0.32195885675126057,0.3737620064725573,0.42726582322116435,0.4811775195564141,0.5327157800577065,0.5892764421969918,0.6500520376701826,0.7065889861278603,0.7582381481619711,0.8187272223621163,0.8795317453844596,0.9362829597672762,0.9591977017861057,0.9277891672160772,0.869066961076125,0.8144785903896734,0.761033458858519,0.7003449724705599,0.6395753011701388,0.5839817368606335,0.5315052514101932,0.4708781059424574,0.41006737082598876,0.3512787152315493,0.30116397589566146,0.2414113928171604,0.18156010209614148,0.13336724373096986,0.10814706211461278,0.1013983752282912,0.11614366263475162,0.11274378523184136,0.12985591038892963,0.12205996952027576,0.1039809638693483,0.08934026339061862,0.09400088954345476,0.10829525746608715,0.10180681238454925,0.09582798550315941,0.09718245759522848,0.10801199116765403,0.11512470037873523,0.13167616496173373,0.15479685668622434,0.17705277425211774,0.19137609196742922,0.17652604790065007,0.13824894236892327,0.10407015124440866,0.07671006533134905,0.048597053509998656,0.02682920684803447,0.011550242581523928,0.0,0.0009774734812602048,0.019054497288678363,0.05837582622851212,0.10527484802991971,0.15407088924658607,0.20837136611716778,0.2587354732400535,0.30852090041466473,0.3668988174017822,0.41921615177128,0.47496648135700426,0.5332101134591283,0.583579616550133,0.6433805620425228,0.6955458860857724,0.7514618163385407,0.8122280176110968,0.8691672802130204,0.9040607868606156,0.8844351800188903,0.8260230735120677,0.7652119312064083,0.7044103182367065,0.6468605680311983,0.5960288632109911,0.5357449977468316,0.47511375777299225,0.42224820513186145,0.36705276398242814,0.3062793443925944,0.2466825466467606,0.19670183549964237,0.1376969251499114,0.08401687341340347,0.05645808750072945,0.062292007298895946,0.06863591317442763,0.08269031238212232,0.09358262597049105,0.07440857857639349,0.056881116935354914,0.0641144787793233,0.07817638081753042,0.0722244341720879,0.07223642430332378,0.08164136778169873,0.08200407689043665,0.08436368640535097,0.10378434700860506,0.1187382955782299,0.1446204895104981,0.1594804231702711,0.1527358239262222,0.13577949719167615,0.10569833435584863,0.07257991634230754,0.04507445963133527,0.018462490873132342,0.008795541079115843,0.00707302811171262,0.013009434364633865,HB
0.20394001014948948,0.218517830492009,0.23166863213763578,0.2150411304184634,0.18680493483872418,0.1648509310438,0.16479653901243974,0.16882964591205107,0.17000882617806612,0.16979698827847578,0.15814287148208117,0.13684057496146873,0.11339141362192406,0.08489423785164885,0.053724189835684166,0.022749848997940303,0.0,0.01726353750428622,0.03961025667363649,0.06028123483267156,0.07913493802214644,0.0951541974540373,0.11197547273417907,0.14377914453138896,0.18724636767727354,0.2311092876094949,0.27353549253276954,0.3200798394954698,0.3613622138319501,0.4066791252636801,0.45375421951253014,0.4975355986065857,0.5322623479066024,0.5703284121704777,0.6062694681059544,0.6489428374742465,0.6926761683463143,0.7352202398252135,0.7822216823107833,0.8293222374614235,0.8739002497749508,0.9153644210116902,0.9479660839496948,0.9342036292647107,0.889934038241381,0.8448568324860848,0.8034120966415264,0.7566648482432976,0.7096046352160688,0.6679519363026467,0.633159344219798,0.5921191881988503,0.545330729822801,0.49821268113529693,0.4510946143975727,0.40427349176884686,0.3626937329556217,0.3178124720953799,0.27070745060477286,0.22375434614758594,0.18239518350091521,0.15476125486042736,0.15287239406552344,0.17019329595974697,0.1949324876293852,0.20068859347120305,0.18596246785173398,0.18542552598484385,0.19237166025520103,0.20129418682554934,0.20885564113551136,0.2099402938045163,0.197234948923674,0.17510829102404113,0.15115842558718406,0.12570466894433596,0.09784735745077167,0.08228581156779713,0.10583148323942648,0.12975248178812482,0.14908599732014105,0.16644181204912378,0.18279009335755125,0.2020902736725647,0.23149664631773792,0.2711821581885545,0.31195790447731087,0.35566750525283286,0.39739502035730134,0.4440155543355253,0.4858160018669362,0.5304154738011515,0.577514511436245,0.6246326721029043,0.6717508327695632,0.7188689934362227,0.765987154102882,0.8130467143883591,0.8564318341694621,0.8993486696546915,0.9462657444394287,0.9850565451028395,0.9836579674321495,0.9472592008188543,0.9008739249451643,0.8546635436032486,0.8137152612544403,0.7676027624469366,0.7204861039301629,0.6733679432635038,0.6262729851314177,0.5818505850309228,0.5398982280372051,0.4929808361714809,0.44586269239992293,0.39874624988141116,0.35260456669148166,0.31164951393058016,0.26805186455514773,0.24700697949778627,0.2501492453676992,0.27184576500951674,0.28011445024485004,0.2619610901708562,0.2362156198826002,0.22517714684973233,0.2246026319581016,0.22698210203374125,0.22129707377447194,0.2098569166631703,0.19801389750628462,0.1760420565346008,0.14603625959591304,0.113181672382068,0.08385618300728126,0.06321112839301524,0.0785637923670619,0.10162115167431884,0.11887807694062125,0.1302495478797494,0.14212215238430526,0.16798647794776334,0.20685008314433073,0.24760247171554584,0.2884814026483431,0.333738719507751,0.3774723893278191,0.42004066626167536,0.46704367525394175,0.5141438970956285,0.5586993891228618,0.6005552932485907,0.6474308000268811,0.6945489199291994,0.7415998075319239,0.784777107266798,0.8278972685736621,0.8748159661642889,0.9173793384156967,0.9533294531947707,0.9433545396239893,0.899528944827253,0.8529168483070475,0.8116864281092424,0.7662671337993661,0.7191543658762536,0.6720362052095943,0.6249183674769172,0.5782795210538316,0.5370318895539328,0.4916435578778444,0.444530954346013,0.39744918463748347,0.3549634488077249,0.31883023676668176,0.27744010956697207,0.23317760758944894,0.18753602994880114,0.1572329506780621,0.14499729746804624,0.1554596841096032,0.17776112652667275,0.1838731473724775,0.161733926325488,0.1512516819278069,0.16086523343588088,0.17479439472686487,0.18710074612877525,0.1921656631410169,0.19279635591919653,0.18545092322572354,0.16821554219922286,0.14597443346201588,0.11756237881118747,0.08793112522853153,0.07226370681396355,0.08750364794585841,0.11028367629409974,0.1288683363508354,0.14537701953246085,0.1614495063402468,0.18956676017580643,0.22312288753287635,0.26206225075151335,0.3058529922842963,0.3473960484536831,0.39401552613562574,0.43601570784079047,0.48038546496369383,0.5274672948759804,0.5724299979444718,0.6139407204295706,0.6607482659335924,0.7078663004674792,0.754970205700976,0.7997745489200916,0.8414195087098773,0.8882534541786029,0.9351759937656507,0.974320288326723,1.0,0.9958040397350318,0.9522969379332431,0.9054848889657419,0.8639166362072037,0.8190218016455886,0.7719165592471877,0.7248030848550524,0.6791426686004269,0.6380764852943237,0.5915289761001559,0.5444113083836075,0.4972931477169473,0.4501751328631778,0.4033833906084472,0.3619073508730122,0.31689524343856945,0.2704182202076373,0.23830904532383945,0.22323038061664957,0.22837370998167894,0.24121215184034805,0.23157656327752485,0.20395411288826493,0.1758969582136407,0.16460250531396148,0.1565117073613651,0.1620145585279844,0.1675923971167239,0.16314404298040852,0.1562923907126723,0.1361990039675054,0.11496070621885979,0.0923637347594437,0.07112894332571407,HB
0.4127787077167211,0.41277870771673,0.41277870771673975,0.4127787077167504,0.4127787077167593,0.41275727472426027,0.4028332259043079,0.3809710740382162,0.3614952436551411,0.3488296351218745,0.3486998958843248,0.33346529910377853,0.292979349103482,0.27326661608632286,0.252999760583668,0.2562095551169117,0.28590826391466084,0.32473330389166666,0.37084389125235884,0.4038951004896676,0.3826185776159434,0.3693528017800931,0.34903452072482377,0.34033059767354157,0.2908866409167947,0.228732743666761,0.1583723748847632,0.1264080667666132,0.143481972346172,0.2053520781155287,0.2825730470998744,0.3567190321309539,0.44867105587568723,0.5306134609847764,0.6011749428699469,0.692756580023957,0.7780415320904819,0.8455561848211088,0.9148530695938648,0.8657817647356651,0.7930722080562802,0.7138958012400325,0.6219980954363651,0.5443087954803252,0.473570357753343,0.4107131250354028,0.3498074361263397,0.30895534759369436,0.2853046515941795,0.2847126541698861,0.2847125901672767,0.2849155209580321,0.30172878579943596,0.30547224376994286,0.28946206574281863,0.3074767327689667,0.28531495332538004,0.2847126553551833,0.28471259016734063,0.284722200894425,0.29152294840888526,0.3312870932695251,0.3531086864309856,0.37962485724809536,0.39184469979548986,0.412462961748572,0.4130221878070053,0.43128709806808896,0.4447275390530523,0.4336784707253081,0.41309138991066785,0.41604673509670764,0.4429774093016743,0.45474019722916115,0.48517580459107723,0.5159218648660433,0.5400968472413821,0.537872679126945,0.5114555615865273,0.5092536439014541,0.5322517708437093,0.564795246676371,0.6103964830972108,0.6546598483327424,0.6562894376850021,0.6367899655748257,0.6152758162622458,0.5846242258351495,0.5717736260580955,0.5215592360332639,0.431404645435717,0.3678534053706981,0.3255408525839556,0.33316752946848016,0.39198961332913296,0.4592512993602966,0.5437406985722522,0.6333668082573771,0.6993083520515437,0.7875731422585748,0.8425761387764155,0.8260032770582173,0.7759985127568649,0.7065957574820612,0.6159946696118004,0.5506859869496701,0.49395870748814996,0.44787628663744616,0.4111103601940682,0.3830973912695059,0.3807622790747933,0.37951009037511607,0.35281606909430074,0.34875019475457414,0.34870322389382036,0.33476404516675196,0.3045747768619824,0.28498715805359964,0.28449921755049523,0.2645810888007789,0.25275598287309187,0.25506258781892566,0.28314039003990743,0.3123236210064668,0.323101304288234,0.3478290917669584,0.34944205277217755,0.3731104621275705,0.38075277736978563,0.3807621783300874,0.3807621783300972,0.38076217833010695,0.3807621783301167,0.3807621783301265,0.380557707743467,0.3607131629316642,0.34199102674653936,0.3177701645558635,0.318751797684957,0.3518886999016191,0.3966306798906096,0.4286878788488071,0.473930510548497,0.5075744869853569,0.5088281346881365,0.508828295879928,0.5080215963226795,0.4699620265534774,0.405452451853642,0.31823494500535077,0.2639458499894669,0.2560690537141497,0.3082717271902462,0.3791048353349682,0.4623189885887431,0.5314499960050885,0.6228256523466795,0.7097470596944486,0.7759562137326066,0.8665542057865974,0.9363185567511465,1.0,0.9590315143959343,0.8881032944415441,0.8218977527550901,0.7346332305820846,0.6691903581932346,0.5874170324957237,0.5201663932924685,0.4603868281120942,0.41943983776719485,0.39918178863267073,0.3775249095273905,0.35116385768129543,0.3468867530471158,0.3199622602927459,0.31673202269238043,0.31583919261651516,0.2912544715201246,0.2711645477923712,0.24948501665116662,0.2204651404667093,0.19142620392964638,0.1890167465515642,0.2114341883815376,0.2415728054917654,0.26100578012441655,0.29125543194906545,0.31591931089154013,0.3167291195555775,0.31672911955558813,0.3167279485447194,0.31008920228554526,0.2858256003177235,0.2796916744543383,0.25447789677904886,0.2526962599000422,0.2526958000293815,0.2509056814323234,0.2165932706147684,0.1884374395548436,0.1622298640977986,0.16492134773543388,0.19513554719253712,0.22601888979999885,0.26638096693197255,0.2974809138033292,0.2970095408013069,0.2837725594784297,0.25830149319258133,0.25266355872425983,0.23458550984003423,0.16416588138304267,0.094613899067018,0.03144343547409978,0.0,0.03930111344900222,0.10093248289433365,0.18166034663966268,0.2720906496115001,0.33920598532290835,0.42571183689998726,0.5176979135778481,0.59827296674636,0.6671133901549471,0.6783369537803265,0.6180424281688399,0.5369098395993248,0.47065890041938196,0.3909028742375824,0.3220983120809535,0.264577100790345,0.2008830164738411,0.14155441880802933,0.11001812654943866,0.09282175120778735,0.09261341384383126,0.09269875166707653,0.10541179193169814,0.1245011399042859,0.12464455042860045,0.13382890958328275,0.15796613945363003,0.18387765428454106,0.19463905475682086,0.2340914066337616,0.2654242318379616,0.29599296429702004,0.329281502991547,0.38656398151526083,0.4330407407952652,0.47905566753732476,0.5250093963239744,0.5711503827759596,0.6148357177057031,HB
0.280227641803215,0.2940537189880901,0.289447083716194,0.2549248099239234,0.2228249463768348,0.2242472252429859,0.23932150311538658,0.25575415059547657,0.27038658023247986,0.2787669316430943,0.27325315186703936,0.24996902588059777,0.21923637261749152,0.18718644445788013,0.15614932367263523,0.13421994038439022,0.15433478271644985,0.18554480464504408,0.2164815875071351,0.24852490222578405,0.2780288256521366,0.30195821577179904,0.31470265324936153,0.3212933113683665,0.34808511556208743,0.3843073845884739,0.42537646883603286,0.46473812649512625,0.4961916213534776,0.5392616951439728,0.5834906879769179,0.6286303983063695,0.6778884027703977,0.7227479433856754,0.7673634127501099,0.8166527054979575,0.8635816289504279,0.9063630370781752,0.9545098735912452,0.9915675891246887,0.9960279818762585,0.9535206343989111,0.9077737903854894,0.8640379735773542,0.8148096803465588,0.7654336686419996,0.7185874099369551,0.6876646086711489,0.6462855763210611,0.6096227818064872,0.5668959961394513,0.5310143234790747,0.4899451501713221,0.4458246892700164,0.3981745537343513,0.38178956253738927,0.39123642652557566,0.3975906556645121,0.4192242308543648,0.44167951296212915,0.43858935219181494,0.4083102629942881,0.37833635659180254,0.37199444325065634,0.3649743100732885,0.3643818440202915,0.360877954896488,0.3396617315543302,0.3074772618213353,0.276135710781396,0.24323960791785737,0.2087841618455064,0.17373212818645012,0.14405352101446267,0.15030729682477983,0.17902678812428952,0.2069750675947013,0.2304599727543455,0.253811769411894,0.2570700386259106,0.2407441734223359,0.24324837097867524,0.276149222810274,0.31652910134101186,0.3622435582086352,0.40492977827776766,0.45390078883611507,0.5032839540653309,0.5526209626227474,0.5979145705208091,0.6421099402242951,0.6913409481634334,0.7371718259295668,0.780859313953399,0.8298171117524464,0.8725683597253922,0.8986415031526731,0.8766801221311475,0.8313702676109542,0.7885359241596517,0.7417054340450946,0.6923524810348716,0.6460185129884641,0.602767036541122,0.5536304235642138,0.5042471683456573,0.45495890278611895,0.4104562960171634,0.3654801403109875,0.31616105675930206,0.2670407624085125,0.2269852438069151,0.21355643437384297,0.2136138795883784,0.2237596088848055,0.22783803659704427,0.2026318177294073,0.18174324429900657,0.18481025088110958,0.1910003197736574,0.20589129353086477,0.2094820142253646,0.19857159611020592,0.1762560457754896,0.1469292896183143,0.11464983843597198,0.08003179705043961,0.039185848573990434,0.0065094564592156345,0.0,0.028428259819792023,0.05730354571038987,0.09004228429240468,0.12413951414754809,0.16032068263054633,0.19029516680661307,0.219162114589752,0.23884293193191586,0.2438486409945142,0.26719605575377114,0.3051012882345454,0.3464905849136506,0.390507196416626,0.43478347920264593,0.4821859583586914,0.5245353760941831,0.5733761482586066,0.6220536407981931,0.6642968913578444,0.7120808961369991,0.7602536183753335,0.8023810537800575,0.8507573712352128,0.8967490685633448,0.934433732921369,0.9368248075982637,0.8953164122650696,0.8498664756966885,0.8059069094164066,0.7566463564956798,0.7072632411400734,0.6583586151103518,0.6158748605645759,0.5685541042163647,0.5191769896907683,0.46983917456466173,0.4243878000540475,0.38035582082246244,0.33109199673383705,0.2828534532297333,0.25031245872848173,0.24185067904488045,0.24864354152939216,0.2684265685250182,0.2848807704316174,0.2729100832917186,0.2319325311146503,0.20288043349599283,0.20829381261734614,0.2219395400088795,0.23340223105277214,0.2523545821634805,0.25989960447649096,0.24832631274534478,0.22134632214792016,0.188732775088716,0.15581057630680406,0.12289123067332497,0.093085933413392,0.10281834468490181,0.13528736965393873,0.16662017841629773,0.20098103286936975,0.23266115132545773,0.258992258086711,0.2839804313422609,0.30384879266866394,0.3151444838498194,0.338535999562394,0.3695160447846553,0.40784652646131603,0.4553875002014882,0.5046230842349408,0.5484234797578487,0.5941023619588508,0.6403447345925806,0.6836252770608509,0.732735814165212,0.7779192855885355,0.8222212477433051,0.8714845818947483,0.9187055272886406,0.9611798796654918,0.9999999999999998,0.9931921244976392,0.9522742780118774,0.9080264536910574,0.8596764844859435,0.817528365060239,0.7694259010371012,0.7200442138430339,0.6706684906505234,0.6233515995925103,0.5808585252141696,0.5319581022566788,0.4825812721700633,0.43515463915595287,0.39344491518070757,0.3679581537992751,0.37452936072420573,0.38566424798087895,0.4077443112176262,0.4192526877198226,0.3999794696104839,0.3807279518644535,0.39220662651389504,0.4019019199443159,0.40573077411113356,0.4114310465725104,0.40777550047577327,0.3871497861718225,0.3568094041195873,0.3201172476372134,0.2822601308356474,0.24925798501224827,0.2298716328505479,0.24817498508128555,0.2761832771190118,0.3066032777874965,0.33406020175401574,0.35172777967304025,0.3512273725351802,0.3346284899415781,0.34669886829225116,0.3777820238160603,HB
0.41751565835564586,0.41029740391738345,0.3965232588964298,0.3665572664953545,0.3284675010513949,0.2901216555851951,0.25484095724877376,0.21781426103639223,0.18051213233292973,0.13763189650900687,0.0915658783191522,0.06052011922015499,0.034904215423270823,0.013175416294535225,0.0,0.020306759126803353,0.06123393105464903,0.11310737297787732,0.1643423813030287,0.21510127295032477,0.2729083355922337,0.3260494448398328,0.3877324922240706,0.4388173128413868,0.49955379448307236,0.550637011068122,0.6053617029364555,0.6383792497364218,0.6926989382326463,0.7485382230505251,0.8029360495945559,0.8494650179374021,0.8691907317560252,0.8366378336245144,0.7845635442394681,0.7259793020910692,0.6727767908332587,0.6092101327364219,0.545297148600624,0.48196083284694424,0.4295684032465523,0.3696375797954108,0.3057349316878306,0.24350249380967526,0.19232559420032613,0.13243179826086626,0.11867467814604549,0.13910808332922464,0.14878034758686542,0.14041072286743095,0.1581413781848826,0.16896809423541015,0.1547544847774467,0.1189569312781078,0.09709454681490026,0.12346703845733797,0.1495873316779197,0.1433978770985629,0.14994928654322504,0.15820058925617042,0.16966026913667154,0.18641617825762413,0.20578778025449562,0.21471980813947678,0.20185277299582616,0.18530470495856077,0.1551578185584428,0.1400941486284326,0.1608799234223004,0.1879046729480427,0.2139143713212288,0.22967562270097464,0.21895796785844457,0.2084047166215952,0.18945396511604118,0.1854859132333737,0.1784359346656692,0.19006466944795442,0.20151696864836754,0.20280355580851328,0.22494045409144725,0.26869078837723626,0.31748866294004596,0.37274058803070353,0.42597209766865385,0.47722688934030977,0.5326442734306216,0.5863829043718458,0.6446055096586538,0.6981369013628727,0.7565705033610843,0.8097883564480868,0.8565637690072467,0.8535516862211305,0.8106108071058835,0.747481660475557,0.6897430791582719,0.6355168682609937,0.5717960505768942,0.5078862885329665,0.4465600584499354,0.39513093959838175,0.3322322155318873,0.2690906129518327,0.2172586492917179,0.1573061522066359,0.10886981091511627,0.10218981456950926,0.12055625408741433,0.1356398956961824,0.15555248876932426,0.1762241403547904,0.17639513181899114,0.1510158381158524,0.1132145599075347,0.09412941755908433,0.11782106168017759,0.13672253019722724,0.14757211689834948,0.15297536061777706,0.14213795098066395,0.1472857898724227,0.1541812682593693,0.1653416268822605,0.15609038469557746,0.16330716274474044,0.1635532455371287,0.17939961434103457,0.2005763827889644,0.22784194916324374,0.25768503035711987,0.2657633978446907,0.255504289376177,0.2367775841715467,0.20562283162991957,0.17061633488504002,0.1534928941842879,0.14111472837398065,0.12233004083472565,0.12132801234594615,0.13108708172149486,0.16895559902596702,0.21651002836664102,0.2681490445030965,0.31993324122829847,0.37241903692134004,0.43013235249876347,0.48142772344732165,0.5419307644521725,0.5911135273700818,0.6296166670499748,0.6800431623889649,0.7346296192631407,0.7983220015343999,0.8560027407748785,0.9072290349710466,0.938409462391729,0.9246754692624797,0.8720710097637747,0.8191593789233735,0.760053086942448,0.6961521480654502,0.6325148262707687,0.5792548226192178,0.5204867400312314,0.45658843839596797,0.3927122684321458,0.33515625793457193,0.2807697085395464,0.2172425197749428,0.16897422377959925,0.16833781864276398,0.17788995254167306,0.189891903327839,0.20121647342163929,0.2008716967279165,0.18065664326990927,0.14051916509751816,0.13350374958127142,0.1487389824570351,0.15719158989551651,0.1702494114055657,0.183556830110863,0.1925815502948005,0.19298553310908284,0.1856742759428185,0.185485223509668,0.1750861563758357,0.14318692178165104,0.13339469704661466,0.13495960694790332,0.15638316605068825,0.1909076784952597,0.21955186343478372,0.2414968109942035,0.23537525245196855,0.2223132986884755,0.2031889700334717,0.17893010515502894,0.15865650712601553,0.1523954550411708,0.13622620491597282,0.11328977343879476,0.12552937797221464,0.15493395317650993,0.1887617983435277,0.23545100192266588,0.2873448732089603,0.3400131495638896,0.3952905313177837,0.45151131114404475,0.5153279164575384,0.5788165660885309,0.6315010606613085,0.6909247609290317,0.7472741359947799,0.8027798540699904,0.8592386007692143,0.913254395412598,0.9630536723754486,1.0,0.9949692589452397,0.9479305581971214,0.8862262472560603,0.8350140219172961,0.7726831141243347,0.7087707088708428,0.6449492795710685,0.5886369272798673,0.5346953053280945,0.4934284738577315,0.4375052867917182,0.38079446404358785,0.32563372076011365,0.2621153194518011,0.20923471975189356,0.17239595976655098,0.1793487474628681,0.19835648330812994,0.20642217157609855,0.20694996267818366,0.19446250949264332,0.16496197140283675,0.12733866028519003,0.11121043463731395,0.14298678152209332,0.16780757826309767,0.16951437176068263,0.16948769706505074,0.16403002087789798,0.15371473965554294,0.1549176732654427,0.17140478065031983,0.17996736603838182,0.17652488509401687,HB
0.731444229916355,0.6941792146347159,0.6629428513209463,0.6357513766675376,0.6157944607757027,0.5998839864356658,0.597359779037296,0.5668522943369876,0.5173719407976067,0.4557610843569502,0.42077041609110033,0.4136826468350496,0.3725387981576107,0.2928011131218442,0.21126534899948668,0.1424737247588932,0.09303353183105134,0.025845932542717165,0.0,0.015937235520142146,0.09247839652365553,0.14220165629043402,0.21070933234990896,0.2889883109489646,0.3363511253884335,0.39531468474794584,0.36647777486622113,0.32113790246938345,0.2962068111622944,0.30891407245253477,0.3683984283456416,0.44920749066714905,0.515180135064151,0.5893117758631274,0.6709083775539506,0.7525231137854784,0.8312565682599673,0.8835194077943886,0.8477082816584702,0.7812405918764118,0.7134114233764279,0.664365247070728,0.6212421186652137,0.6011834820780071,0.6181589607398674,0.6230149620697776,0.6230203829828311,0.6230203829828316,0.6233208982570977,0.6376718218392012,0.6511713060238784,0.6692275258066958,0.6676675481785765,0.6378513003465502,0.6158637972647751,0.5830749224435801,0.5758140557089253,0.5665868662269999,0.5662503170587341,0.5513234282546278,0.5177793746657238,0.5065656384983734,0.5277080363927373,0.5562177659673151,0.6158718806817642,0.6731116584221208,0.689065917299752,0.6640599810655066,0.6263769222825633,0.5987167954025758,0.5747179334180559,0.5536003564904681,0.5537806920704713,0.565305994836935,0.5316468598981601,0.49238134507127684,0.4135304039678429,0.3503197937519129,0.30982215673511426,0.27670249820777704,0.2895358413210749,0.3417542046441082,0.4119682624074925,0.4880957753155424,0.552279951802038,0.6331532050225324,0.7147642344156595,0.7916090728999845,0.8136314244405152,0.7586664200585811,0.6861334128187107,0.6116924924207789,0.568209509786378,0.5524211844889608,0.5526061618220108,0.5677455618067864,0.5928283665009708,0.6375605971611629,0.6656196388617648,0.6900686287059652,0.6932664666479549,0.6763367073846411,0.67396518658034,0.6881750917641285,0.6712062628093936,0.6761774608923887,0.6870070301925657,0.6672025354568163,0.6477660334166013,0.6278610845500934,0.595439439601487,0.5608054554409141,0.523188569851528,0.5053280781141938,0.5189140746284293,0.5496799134158472,0.6022061876000766,0.6638166428624301,0.7098835943037662,0.6966142235391839,0.6694311900057137,0.6356096561511029,0.6077998272141034,0.5994695373168968,0.5993511531256539,0.5881069486535555,0.5539615022041375,0.49593990313197533,0.4304752089095727,0.3749993450002287,0.32195526778670747,0.32362857484918983,0.37177911283781206,0.4446569170010539,0.511905914176567,0.584598616651701,0.6661887341906128,0.7467275552277686,0.8100667961843935,0.8860603283835782,0.8967168287743879,0.8378942149046273,0.7642066893178794,0.7071403922192885,0.6535492218602954,0.6122029061920946,0.599518481367062,0.5994234001507137,0.5994250460415644,0.6018843099288982,0.6210492821566356,0.6230196172204177,0.6229885450369492,0.6130327665022288,0.5932885137656654,0.5725402813730249,0.5391738634606167,0.5046375663059601,0.4830347805703461,0.4813477539412281,0.46993564389364106,0.4573609878750138,0.4295232160300788,0.4109052771770574,0.42579305248977883,0.46543629849860224,0.5141496517130837,0.5579756637294948,0.5655647056730246,0.5335672299265504,0.5131834902938635,0.5050779666830296,0.50226679702897,0.4833326844322361,0.47404438771818835,0.4416231772331769,0.3753637201494766,0.314246059632342,0.2581472082582983,0.2150881266487854,0.2023131723222824,0.24550218978594707,0.31484291695636957,0.3916295175257756,0.45470662030683195,0.5110471906138003,0.5708552638871547,0.6511122270826974,0.7145736650795533,0.7903821504027895,0.8032851794662288,0.7445718356266462,0.6765119875584102,0.6148527563614405,0.5600805354146723,0.5249082055311565,0.5057597765444246,0.505598642231043,0.522073155705693,0.517878641457528,0.5051581559533109,0.5054799402122692,0.5212339489220352,0.541175745624765,0.5683524698824125,0.595541219142262,0.6194615646977608,0.6076036410332408,0.5877966745524628,0.5759260102837906,0.5709450365916147,0.545824731382972,0.5174212554071027,0.4850610298361304,0.4652904269175089,0.4744570311243521,0.5057199974802753,0.5522261248479094,0.606368659553536,0.6508248689999516,0.6669457683337052,0.6356217324335742,0.6028001268393011,0.5886052302834011,0.5759446771016838,0.5779338729030528,0.596664678253358,0.5779842726023436,0.5150593771288672,0.4563644119349135,0.40861613446030187,0.3671512378483195,0.3717348298845402,0.42041970773666915,0.5001779030720614,0.5817950659173112,0.6634126646935918,0.7442136011132376,0.8078565650073384,0.884674334866761,0.9657110146301906,0.9999999999999996,0.9439213264054431,0.8757341965925325,0.8121700858027823,0.7499646232662158,0.7035289290452402,0.6829613912326913,0.6703314375263969,0.6723539364310587,0.6914389953829057,0.6957250435836864,0.7146399769627196,0.7190969718550773,0.7378150557983516,HB
0.09205907145534198,0.0990625435032042,0.11319060464031239,0.12527130543416254,0.15219217097354454,0.1876398888506876,0.22993446508644855,0.26949055364186814,0.32154095501804436,0.3876197863296409,0.45507957582410175,0.5160785055997175,0.5725416706892084,0.6398353992534003,0.7031725342731301,0.7577283437617495,0.8218019448252121,0.873121751338588,0.9080796387495522,0.8903729836938279,0.8409189806503257,0.78188217267921,0.7176552823797446,0.6638939225056024,0.5973404139689236,0.5390120938927776,0.4799788197364192,0.41984857256484487,0.3634038738041667,0.30955323605442997,0.2456123186100143,0.18819081058366116,0.16690917561202756,0.1523704963289898,0.15138540481088691,0.18195414814339994,0.23104635834084553,0.254982570511296,0.24134884282037428,0.2010266887691352,0.16019044954531259,0.11674665710003662,0.10290509219393584,0.13231563739940988,0.14908865781434422,0.14951066347971098,0.13988031787554345,0.12178874143339113,0.1315006931005529,0.1360090756678125,0.1501082114459149,0.1712990466043678,0.19513241184216046,0.18881719364176064,0.16282616315960308,0.14755471929195974,0.11664866550557651,0.09362407982583454,0.08430122654016081,0.10576882373339469,0.13689949871460172,0.14944358148789316,0.15166961098209342,0.16578616883132868,0.15478911673632156,0.13333553968563328,0.13479217289111878,0.1651825806469165,0.21004559695370917,0.2549917937713304,0.30108661971381423,0.3619587581921828,0.41569870350799976,0.47998905042309703,0.547478193232704,0.6149742033413341,0.6816560742038007,0.7354174340779416,0.7997017773891506,0.8630318995579604,0.9175553238573517,0.9768937847946515,1.0,0.9684283312486008,0.9158040243127901,0.8495288335361035,0.7902679359666296,0.7321271002605916,0.6648708081439181,0.6074749823885863,0.5475230615854936,0.4883118882687172,0.4311394950395657,0.37777129655050956,0.31871868890858623,0.26483082293570526,0.21767779121070152,0.20297732145903513,0.20337348249552223,0.22602413199186122,0.27061671365566387,0.3170859979121041,0.3237873917380987,0.29610235925910544,0.2584598841518799,0.217945023707371,0.17052781445542653,0.16059299162350404,0.17674111456042807,0.18647364591163917,0.19871061345184504,0.18687928444313284,0.1841621566612326,0.1718834788200807,0.18260700863468893,0.17151995826107624,0.16332427985424935,0.1466966128950351,0.11850234000659032,0.08654247499560741,0.05961988804848328,0.026509823694417012,0.004882975566995462,0.0,0.011584267912295942,0.028322874610047677,0.05346940009934986,0.06613842267075087,0.06697686198821096,0.06017065346766959,0.047233704167136015,0.05040773352639771,0.08129409581808789,0.12093478848218231,0.16204060938102893,0.21672111859158383,0.27133938550432113,0.32464405548419073,0.39075454655619213,0.4457780522616148,0.5084180804164653,0.5758976359498891,0.6433938124035432,0.7108839852533091,0.7742208915486306,0.8273662825806651,0.8576063741808757,0.8328204059762672,0.7824892833435406,0.7215119136781452,0.6545565719299917,0.5994515849382802,0.5368157416802886,0.4720888110360999,0.41859230543021075,0.3613912857734207,0.3037147947369512,0.2505650992542625,0.18791406879575723,0.14076201868522276,0.11070522543665007,0.09950301376386328,0.11526120510860727,0.14514711238084832,0.18415411561095096,0.2141799153071977,0.21052799114918708,0.17163955610476034,0.1317028443476742,0.08753866689128031,0.0709176847585784,0.09631995595748766,0.12401218753363308,0.14550057544462147,0.1473283031344983,0.14078227465342108,0.14938312343112647,0.14127480912818546,0.11875943742718942,0.12932516020811002,0.12170892682675882,0.12961707163540437,0.11497976489024575,0.08785587855360255,0.07779107323934875,0.050791439365595714,0.025779134156680872,0.031339082486994574,0.056819029299123525,0.07511179417318825,0.09398777814985326,0.0971322824056875,0.11137101458285192,0.1277999972505297,0.13604673256811717,0.15782290301390844,0.1970349774470268,0.24192133468755905,0.2886379880483241,0.34364000297533526,0.40083015373175135,0.4543266593376387,0.5189835198863091,0.5771221155863917,0.6363832626733994,0.703785128177723,0.7712813046313785,0.8387774810850326,0.906209868233006,0.9634767065784846,0.981775418237167,0.9542080310915955,0.8930255092913857,0.8395658261484882,0.7748319108276411,0.7092040879807762,0.6558522247271608,0.5903034065245429,0.5338407404701222,0.4735016977438278,0.41897906548117536,0.35705872363667135,0.3040457794218563,0.24982832875951155,0.20541780283376276,0.18470783551827052,0.16995569590073734,0.1875617009768784,0.21414183756668947,0.2534935951068231,0.26787297375131436,0.23929805933096837,0.20475771497387285,0.16150902759744978,0.12300801243556103,0.12191355655212321,0.14944358148752768,0.1671454736129805,0.16737412969885446,0.17153310875339223,0.18396481827086886,0.17188259065141853,0.15517925497649898,0.14881293781185612,0.13517997354668188,0.12203414363032561,0.09578088903744275,0.06012926365687532,0.036502638404734444,0.012660152859925944,0.024090200233542358,0.04303127220184422,0.059824023041517016,0.06079470552435495,0.0607952366980542,HB
0.12615644351915734,0.124611746494248,0.1111018443978562,0.09273056727002071,0.08377288913148861,0.08361522993496262,0.08363090033977905,0.08944402095603277,0.1261624170906548,0.1740963669137563,0.2242665067878571,0.28205372944939455,0.3336095499546512,0.3942819156998376,0.4503945467174466,0.5055080400246887,0.5647882890237366,0.6170675887534909,0.6789966854539617,0.734873575455953,0.7902251884213292,0.8526267313056644,0.9077550210014569,0.9625392741396435,1.0,0.990155262701824,0.9383674999826099,0.8758838392933752,0.8132653397224221,0.7506468401514694,0.6880592444437585,0.6303314392180788,0.5767501246949824,0.5143537631736907,0.4517352636027381,0.38911676403178497,0.32649836467461313,0.26436739150824007,0.211859414718504,0.15281436343112542,0.09047871030230414,0.05274865221875702,0.09052461761244368,0.11112310371921641,0.1087790775364823,0.09837623371283621,0.09662708903000405,0.08166740598301203,0.0738728415166423,0.08322766845786456,0.08137499757458677,0.07040347188725926,0.06943714671280476,0.07135934671350475,0.08350951540326701,0.0973532227825431,0.11292970366299526,0.12520205727849465,0.12329937423523951,0.11088255386820123,0.09376712645311835,0.07292613371691425,0.05682486903368522,0.04945876195807264,0.041258593812437905,0.04609614327372347,0.07874278665674961,0.12773735503154837,0.17989584534495995,0.23308870139541993,0.29073545113659627,0.3477717473655657,0.4020011538393362,0.46196914413987367,0.5137388207073834,0.5754313695776094,0.6322507761040721,0.6867115353315563,0.7490775734983073,0.8051327300226934,0.8603028955628509,0.9194024116135857,0.9559192876421263,0.9381508836536634,0.8911109857988682,0.8317779088453339,0.7691665084975772,0.7077406709837097,0.6562253132766469,0.5954885987603205,0.5328723780556475,0.4702538784846948,0.40763552061544406,0.3457551675216708,0.29371107848218303,0.23395564732012275,0.171342301935963,0.10874291308208894,0.05059683257717085,0.0,0.0007012885513986156,0.04315129247727789,0.05515066481390374,0.055253387322847125,0.05523548657239452,0.04904402858017587,0.028609692333867454,0.03551070245679444,0.03851173515890283,0.02156058681004991,0.01285696624762478,0.012912805461697374,0.024550372409676502,0.040973258062057205,0.053208538313472165,0.06719229234104729,0.0694309785493834,0.06871637479702608,0.057090661736991954,0.043129742665484194,0.041075391272955564,0.04107246952281152,0.041578413504371525,0.05834149745972361,0.0983864276225499,0.14587761482391537,0.1966536740379592,0.2564703245100386,0.30794620947097817,0.36867234467035637,0.42146806819606697,0.4800937190449286,0.5360394662551746,0.5913065537307989,0.6537094873717026,0.7089214201737959,0.7649602079776177,0.8275018724844845,0.8900621371216353,0.9440504268616681,0.9579619931960455,0.9228435293859061,0.8655373386045491,0.8139591807382551,0.7534243539644945,0.6908089133855433,0.6281904731247878,0.5659219378677114,0.5128470788362942,0.4544961192322865,0.3918973368368115,0.32927883726585927,0.26666047063155496,0.2047271696351194,0.15258507614135386,0.09298029250565332,0.03088025988301446,0.001777661448928658,0.040794048387010395,0.06755566672689284,0.06943261078672247,0.0694228987867942,0.06609171135472103,0.05745355718150558,0.07793546422578146,0.10561517162257195,0.10928086326528907,0.098618648568638,0.10441494260162854,0.11186886450046041,0.11336315256290064,0.12464363296303338,0.1376746014333703,0.15372422544582331,0.1544121325204535,0.14667995856654548,0.12543959572984598,0.10148453238204436,0.08674521992217743,0.08886800680895979,0.0975575077016555,0.10028472369463826,0.12800587338578318,0.17013809894663323,0.22261386696087726,0.27453771146435146,0.3355265242751537,0.38720104520813603,0.4474574077948805,0.5100716810537236,0.5725223225511313,0.6269235709446561,0.6838010589620671,0.7461524890684075,0.7998828824770357,0.8574207770695623,0.914486451559362,0.9554936479224581,0.9519764933420669,0.9075578962187048,0.8487333039854255,0.7861643702727132,0.728668469740199,0.6748635368888025,0.6124523717376609,0.5498338721667082,0.48721537259575465,0.42461006438227455,0.36567380159188767,0.31306485907782333,0.25092229561797685,0.18830379604702285,0.1257680281132365,0.06997100578534976,0.021127382483548285,0.03910278399753997,0.0777723031383748,0.08379916654878361,0.09264748450078697,0.0976833360464715,0.09063875509086916,0.07295655463384065,0.06942432017202727,0.06505791681153461,0.05631037397038474,0.06669716438739348,0.07341281803505639,0.08416292972994466,0.09603366042320483,0.1106444203517798,0.12511482782456707,0.1234627004331923,0.11110527774520618,0.09417263548363675,0.0742158133646722,0.05914717317573315,0.055266868366669275,0.05533994075399917,0.06413029558228267,0.0942019144689068,0.14095208929697112,0.1931503155620118,0.25525991176927487,0.3172162134450831,0.3692614959374234,0.4289161342939116,0.4867626052892895,0.540276669363652,0.6005977189485154,0.6521627680144033,0.7135088204563851,0.7680689135620962,0.8247775403529571,0.8852063032072923,0.9310815471555629,HB
0.0,0.03265019257562751,0.07469949484237026,0.11745572393811954,0.15462299909851684,0.17684376339538388,0.19904684153828756,0.1753627020701889,0.2018603879040084,0.2529597144551108,0.3100228648138783,0.370287595229712,0.42954237019001296,0.48053206142609683,0.5389689585023163,0.5992454035066506,0.6595247942314222,0.7195097106779427,0.7719374498103222,0.8282241640685446,0.888481737292345,0.9482923374228358,0.9746620987696573,0.9237066697386198,0.8644755429866762,0.8136460739642466,0.7550438760556086,0.6951010141557235,0.6430123125163583,0.5863675655090117,0.5298745766452257,0.47791646092769424,0.4258504190395813,0.3731411555414206,0.3275148889482038,0.29101951095304734,0.2676089694765531,0.24813484998244895,0.23656198382166593,0.218344985217217,0.20637079719750817,0.20578312016355738,0.22293495378972827,0.23140597854662182,0.2455352133426465,0.26278906814100833,0.2682988965022435,0.266742660245749,0.2720189679698717,0.281655039974934,0.29258418943249054,0.2864011992264093,0.2707754878051096,0.27321849522813135,0.3053725116962891,0.30718561280780143,0.3050582755587019,0.2946778156438594,0.249547496763872,0.20296802839410066,0.15637570314825067,0.13519203007290703,0.16531844535030782,0.21771590946724517,0.269845827094098,0.32979701966503083,0.3883490264861682,0.4392074720026904,0.49847818029589286,0.558757083482992,0.619036514001233,0.6791338886900156,0.7321622808831929,0.7877537013535032,0.8479934332402146,0.9082728637584561,0.9682465817448693,1.0,0.9525305077908892,0.8930724835922854,0.8418989187025163,0.7838930074133823,0.7243063602632986,0.6730132673354015,0.6152695701372921,0.5601108171271045,0.507021648533847,0.46107010930069503,0.42136592584775867,0.37007822407752844,0.326570976152313,0.293183447924773,0.2748059535416816,0.2606131552587547,0.24587372880945524,0.24018763079429672,0.24029235096597246,0.24869764816283202,0.26444481628951655,0.2834326574470065,0.29897434064126793,0.28463607519699363,0.25555589521050504,0.23472377171993264,0.21838000883262842,0.22221070500307816,0.22466146965645706,0.21662195395621509,0.2292678198371847,0.2637239875366526,0.2772928938851116,0.26249544341986986,0.26018459251920256,0.24165618363200148,0.19259527228776507,0.13575709011221804,0.10208249068631292,0.11378261139828716,0.15873109378999062,0.2163532761551885,0.275288531220804,0.32613607377576503,0.3850261742085639,0.4453039464554496,0.5054425485484906,0.5591148816346254,0.6140455883091089,0.6742608656944311,0.7344243171818206,0.7884847790253557,0.8430163010970544,0.900984471180279,0.9047007655417558,0.8482077756891808,0.7967317503340312,0.7392909366670875,0.6836722837705089,0.6306930481900852,0.5748719936559179,0.5326817330508593,0.47444997225316143,0.42065769001329656,0.3701008713764722,0.3242552182163363,0.2803290486462209,0.2423628976873522,0.2280148392793515,0.21965105778460847,0.20997760705525503,0.20208487133065156,0.20155099441891777,0.2218187789485182,0.23684666129928122,0.2507386382216319,0.26564216309563604,0.27573263922614766,0.276688279490205,0.282718606723652,0.29672596024790177,0.2982582589747913,0.2900729211853952,0.30577138572276796,0.3306963533180727,0.32568037652165027,0.3077890329570503,0.28481595883307675,0.2421239223796523,0.199157124974374,0.17203796584495668,0.2026665286756819,0.2535165631506615,0.31068938114226086,0.3708254734242802,0.42465658645662474,0.47942437740063015,0.5396328469106346,0.5989557321696584,0.649976467370585,0.7083143890011141,0.7685699866774272,0.8252351992426279,0.866156283130961,0.8369955713501254,0.7857710099531339,0.7285956217791645,0.6750156801613074,0.6200332689543613,0.562090626872565,0.510986097752983,0.4554993402279863,0.4070097351785207,0.3588577238427284,0.3157879144528801,0.29271881320219517,0.2769868497974759,0.26405197622212007,0.2511078156659887,0.2415825996536407,0.25268976545614774,0.2661486484508009,0.2851500211884752,0.300950289159454,0.31590784756310986,0.324921376520132,0.3250850972888104,0.31672499972428536,0.2926603451556913,0.2691708005047395,0.25163998504400187,0.25315071528540933,0.2823957878648722,0.28121718848708865,0.26378012275183194,0.24111181243435942,0.2031233866919815,0.15803654546440526,0.11582729258235847,0.10156443346203203,0.13840240175026897,0.18891626968162956,0.24836948374889167,0.3023590941126033,0.35696396932613084,0.4171671374185357,0.4771231611636009,0.5294371622089371,0.5858650569540065,0.6461241061963285,0.70640353671457,0.7665610446566942,0.8080088524637961,0.7765932670512878,0.7336490927622781,0.6854330109771327,0.6328860612783229,0.5769271681033348,0.5245232418279038,0.47065723548885696,0.41709267288650986,0.3681809452094438,0.32593486983531017,0.29034886067295473,0.2669415099721042,0.24204132594509975,0.2243846595217147,0.20308722088458264,0.1827552201802769,0.16987230318728463,0.17279974764179173,0.18683758370027137,0.20643933715692286,0.22423986924805006,0.2378416204195306,0.2417089274559605,0.24737031648226493,HB
0.0,0.014591956940602335,0.0469314550908424,0.07294720804288657,0.09312952167383681,0.102894039197168,0.11267816437132572,0.13035875644227235,0.1626349723378131,0.2040376116679039,0.24779085137753198,0.29346783031478463,0.3396171295461887,0.37806961599971145,0.42124729261299065,0.46616566120449465,0.5157225445418425,0.561244627657639,0.6124638443014407,0.6576938588276335,0.7089605812555155,0.7580931258695749,0.8048157074376379,0.8568968237747332,0.9026528449995181,0.9451231769239787,0.9531697167214443,0.9135624706572334,0.8635559634624825,0.8176940711161826,0.7654080511003452,0.7143106335244349,0.6695847428309745,0.6298123843656231,0.5850185062890969,0.5474630605720894,0.5066961848369176,0.4550252179892216,0.4030256325988224,0.3576834974247727,0.3067175816593113,0.2540833874515587,0.20528880920495407,0.17389357997456956,0.19167912717868685,0.20521541443684654,0.21248633187799526,0.22643235552711083,0.25135148649072714,0.27936425149630373,0.28527983815828195,0.2608296988399226,0.2276958623862262,0.20992226669273495,0.22248249430102995,0.2373757840965982,0.2433058082134918,0.24122207553206887,0.2209565397419595,0.19073089164584478,0.15832243044919525,0.11947075852668299,0.09172586737116228,0.09467701225116554,0.11789223506656188,0.14114749537429438,0.15211370014139414,0.16091534557691922,0.17357509448205288,0.1987607967147027,0.2363555688478698,0.2798041285268482,0.3216724068758907,0.35821017471539873,0.3969772789399233,0.4407627898016151,0.48713559447263055,0.5322272810855349,0.5836120834669223,0.636286567213816,0.6889634001904148,0.7412110270498489,0.7869387136082135,0.8372395980517902,0.8860605917202022,0.9322144706639,0.9697901124982753,0.9667214210815116,0.9272017119484941,0.880049849286983,0.8340131271067186,0.7912526787510652,0.7513948775499912,0.7050065526830798,0.6525362754379884,0.6004082142218325,0.5548655533194151,0.5042247236834869,0.45157693692674084,0.4021779719802454,0.3556940862808373,0.3032507340355528,0.2512068060639674,0.2122249825693674,0.20367788161451927,0.2185932482014914,0.2195286394035456,0.22176435502204606,0.24101587157096938,0.26666946482331655,0.28091480060002105,0.25792688315235823,0.22151854946002647,0.19198200866598336,0.1864670927037395,0.1985290194277567,0.19889132753901162,0.18378453030272857,0.156401056646446,0.12305169162538188,0.087958261699697,0.054287996211958234,0.024735292151612187,0.016740676649419584,0.04074315099844816,0.06526367309280467,0.08599063631470405,0.10662512402756597,0.12247652423263822,0.13362830121379288,0.15604888248192994,0.19402881839424801,0.238422355572119,0.2872436831525158,0.3247417619531323,0.36295039227642323,0.4064486580154014,0.45221618225639126,0.49749659493112763,0.5481671143506881,0.5980788040615115,0.6441369012175784,0.6962410971800694,0.7427093752102052,0.7921124219921016,0.8413261912401286,0.875401524634722,0.9182755942972478,0.9511727596720867,0.9349287861583679,0.8923063085735827,0.8446168967481804,0.7972489176801165,0.7452865851133335,0.6998164423519624,0.6490589151310724,0.5963890092513213,0.5447571468977443,0.4995460117422823,0.4480818451924702,0.39561844022686743,0.3489893274219431,0.29975094786873524,0.24776152262446893,0.20249043859926208,0.1666103900232958,0.18833317418856943,0.20164453412435068,0.21142600163054825,0.2239333385417146,0.24476734061858685,0.2672430564025712,0.2838890527326865,0.2672151995762304,0.23115282661198444,0.19470103801984817,0.16728603974577738,0.17958552811771722,0.20231331450328116,0.21831558569638432,0.21332757069917374,0.1892880680258071,0.1574626671934105,0.1223579177657137,0.08416307285049474,0.04600559887173494,0.01820329604747184,0.021863263305206937,0.04937075435006388,0.0807991085991806,0.1083975965941304,0.12936332968610897,0.14473526314949958,0.1549176140431725,0.17725795668577726,0.2116782045081882,0.25250762632523394,0.2964526140207331,0.3405752367906507,0.38167086033153463,0.4214703258484902,0.46826533768709155,0.5183941740217375,0.5641961457303519,0.6142748160348028,0.6599010491279995,0.7119314632978564,0.7589521575786695,0.8077495430312553,0.8598631155286909,0.9054200655743263,0.9549621472206766,0.9949297117543416,1.0,0.9642199396359428,0.9191891500782514,0.8693196808627568,0.8200146996410176,0.7734634677596124,0.7210065705265385,0.6695229441562791,0.6243314311904522,0.5726989622595544,0.5200233697968706,0.46734637647906774,0.4146693831612642,0.3621046376168633,0.3146314171306708,0.2663151861209916,0.21616547282110954,0.2088584301405525,0.23344322694561637,0.2407169217352212,0.24862171126133759,0.26275177989324994,0.28843789069223025,0.31120050368787777,0.3197043179551713,0.2918424162326656,0.2580161491361068,0.23384531028441025,0.23782958648024022,0.2389714721430709,0.2368761283853198,0.22006870828959113,0.19458580982129514,0.16334555513129856,0.14304977100268657,0.13388904072861796,0.09622007258587972,0.08509165359210624,0.10771217900531638,0.12940927408836123,0.15442345604836194,0.16991668460752574,HB
0.1006656931749168,0.0741620203712734,0.060114263673791246,0.05596715866833435,0.08592351127833764,0.08112648640048459,0.06874120961029906,0.1069340387028066,0.16976154456655124,0.23334786325329437,0.30481212005992164,0.3710642495919969,0.4488199534292092,0.5152206649291942,0.5906299939854995,0.6554745761201777,0.737027111368223,0.8032713380235212,0.8629937753823893,0.8799884112549132,0.8443914919994966,0.7671202416595038,0.6874777820313045,0.6219592827316709,0.5389670914886531,0.45489268788718595,0.3708183310904176,0.2873507987661976,0.22773300797093965,0.16690785524400997,0.11818799941965175,0.13515333953554265,0.13727792324640165,0.1386559319250953,0.16021591436791338,0.19420627353635123,0.20832019025817594,0.18244384408337622,0.14363142901069592,0.1109461922089956,0.09177415361456331,0.11092475532073287,0.1123189563142164,0.09839030968062668,0.10847148623460345,0.07723775847562653,0.06512866131225792,0.05855039688218522,0.04148487354267516,0.04564978076206305,0.07805924691545485,0.08860083598159862,0.07258693156479579,0.06511573533630832,0.06545641114347012,0.07988368738259055,0.06768537371009842,0.07517329098756242,0.09759976385634372,0.14932358259213308,0.2122680780641546,0.2695920860744745,0.34586892836442784,0.41366423857632606,0.4899615806759212,0.5576559364017402,0.6210467969252522,0.6848332852596717,0.7527032266153371,0.8021446417845604,0.7830681684228362,0.7206259322417039,0.6419997682017651,0.5597276342175994,0.4948246322217522,0.41384503326309874,0.3305176759296242,0.26413178594087094,0.18652993225746917,0.14282460967229316,0.16012154892398645,0.1769644038172613,0.170107276548646,0.1703175570015074,0.18507090934916448,0.1798757136941722,0.1433806611818329,0.09172491799756477,0.06597897881486414,0.06836225908262383,0.0891309795110562,0.11020829465425752,0.1254134765858872,0.1371698683065996,0.13727827428160877,0.13738256272299765,0.14921358899747217,0.150223348368959,0.13678667979474657,0.12245792522950305,0.13545810075524578,0.14620989515353466,0.19093485402725952,0.2090970677805868,0.19512048864185427,0.1854356226030185,0.18690561635766478,0.2094337093502867,0.25644318128661725,0.31979096916683813,0.38771076056822595,0.45668910502346316,0.5316672345591633,0.6131032156982008,0.6775466317227079,0.7450049253479984,0.8184478918297411,0.8827885836745435,0.9280509024587507,0.9088694717951378,0.8410956146146007,0.7582194194105081,0.6927313002934317,0.6131325501018936,0.5314172103745398,0.4668921573786853,0.38504400797827154,0.3106313713202282,0.2504455024170853,0.2478132269929625,0.2509187045190848,0.24090824278775758,0.2615261211961948,0.2827622927837248,0.3032131120930539,0.292558616452554,0.24574094664203505,0.21345399866575887,0.1806817011960531,0.17568129347285932,0.1853203502392402,0.1854034956656827,0.18977418319032058,0.22396179972604147,0.2549123415706407,0.2579364459605622,0.2738277861694951,0.2653638666817737,0.24319129915791882,0.2123554341698317,0.20905245473088074,0.19349618645854338,0.1903478669683638,0.2275496649602231,0.22775127170878529,0.21014611191864185,0.20963170834263245,0.23061638093933778,0.2921522953450899,0.35561709047293144,0.42772689561227173,0.4934955355482873,0.5690478732607507,0.6338477710088468,0.7007048999595278,0.7750158098194704,0.8397087898153086,0.9149267687530025,0.97711739317351,0.9999999999999996,0.9624903470817983,0.8852956221861894,0.8186784195333661,0.7405073534196123,0.6564447934906306,0.5723703898891634,0.48829609159826903,0.4048952618734005,0.33815998517518997,0.27328628844261216,0.28692747267678476,0.3025080410967287,0.2842127067588689,0.30160251740447785,0.3266052234100374,0.3416182000659256,0.3488319057175331,0.31354977407205764,0.27131653608981443,0.22052982304208912,0.17545455662496767,0.14172209059430774,0.15109589228777098,0.14120796742881447,0.1255907552281661,0.093380451368414,0.07756319762483832,0.03757048590601064,0.0,0.005627486580900065,0.047552277678176935,0.09773231746616462,0.11555375868558881,0.13511275708190906,0.13326086690107797,0.10691060683384945,0.07134816212443384,0.038631466349842825,0.017351134461442985,0.01463274862793007,0.0022565389000450686,0.028519050049144123,0.07052510492152786,0.1269099237359983,0.19012631029639238,0.26320443793480086,0.32821427088335353,0.39798409941602797,0.4665277417955189,0.5309164475837282,0.6104771965040521,0.6750367339390313,0.7545835872417599,0.8134723823037908,0.8303622080833528,0.7717394341788579,0.6970936462962061,0.6276095501056065,0.5437798815838657,0.46173136686888805,0.39699902403339893,0.315616701362488,0.2316618996857156,0.15999189002845426,0.10254132476995359,0.11055427687829633,0.11517099592110513,0.14435087890921094,0.17465037983835696,0.20269783706441613,0.2306589894657285,0.24904338593821818,0.22467977559714347,0.17315455551758463,0.11930290735171889,0.09082412915223648,0.09524305817230383,0.1125428970939435,0.11321647097054166,0.11317089562190663,0.10482813626590026,0.0842397822134191,0.07856043218791742,0.09885314400864065,0.13165256986862328,HB
0.9999999999999621,0.989210642731397,0.9776875567281703,0.9661644622609532,0.9546413677937357,0.9431182733265181,0.931595178859301,0.9200840997599525,0.9117454595320945,0.9020706670933937,0.8905515794941093,0.8790284850268916,0.8675053905596745,0.8559822960924567,0.8444592016252391,0.8329361071580218,0.8214130126908045,0.8098899182235869,0.7983668237563698,0.786843729289152,0.7753206348219347,0.7637975403547171,0.7522744458875,0.7407513514202825,0.7292363959664644,0.7203620986316933,0.7112223338639995,0.7002864995757948,0.695119044075034,0.6867191679247343,0.675236025660794,0.6637129311935767,0.6521898367263591,0.6406667422591418,0.6291448374773793,0.6185594745284969,0.6139239609497386,0.6046674545815348,0.59314882693041,0.5816257324631925,0.5701026379959752,0.5585795435287576,0.5470564490615403,0.5355333545943227,0.5240102601271056,0.512487165659888,0.5009640711926705,0.48944097672545317,0.47791788225823584,0.4663947877910183,0.45487169332380084,0.4433485988565833,0.43182550438936607,0.4203141972691664,0.41194404779972527,0.4023009351299387,0.3907819050241741,0.37925881055695676,0.36773571608973943,0.3562126216225219,0.34468955293792314,0.3338336470798814,0.32651198554055194,0.31516901594189084,0.3036459593022022,0.29288699563045717,0.2854949732764852,0.2741362932726802,0.26564011171997837,0.2562356853637041,0.24862812340362672,0.23866411054289327,0.2321709748998697,0.22905078141404667,0.22566450019367346,0.2292216505782101,0.22689453643316204,0.22514642478597724,0.2210709137131548,0.22038234971103077,0.216619434930023,0.2149512647766849,0.21018144438315456,0.20544878443802006,0.20495891637453978,0.19839736547559872,0.19191759568895073,0.18878772960882173,0.1851595611267447,0.18219669352766965,0.17641692245049378,0.17103839156956957,0.16943241509217088,0.16450033736798853,0.15627156628985472,0.1547689922740415,0.15477002123260797,0.15643933999020976,0.16286348422663033,0.16971116535391584,0.17527699693014664,0.1824339322225118,0.1905723020671638,0.1998246855600363,0.21133627074197914,0.220503946976353,0.22835484437011355,0.23576356660600073,0.24292226664923577,0.250226127923876,0.25069313761372125,0.250693150895677,0.2506879761533435,0.24844877494144335,0.24502742324847393,0.23716337641509633,0.2355497766264627,0.23500746067093525,0.22739109907362154,0.22165580787952632,0.22040539475398246,0.22189107556248377,0.23195287113494423,0.2427575031349778,0.25023010619739716,0.2614691886453797,0.27008502753681685,0.26672617209310223,0.2629462564624623,0.25717236119401243,0.2515164678522315,0.24388630291637614,0.2373908548748047,0.2355955434282454,0.23841469558413053,0.24000298181789725,0.2357620576568107,0.23807350910595615,0.24393429608869965,0.24960360755284328,0.2468422177857813,0.23921007798984573,0.23054760044996359,0.22131632770590637,0.20979804501590127,0.19828628185399944,0.18985311390139226,0.18027336076943423,0.16875444565070963,0.1572313511834923,0.14572756875138104,0.1380307710766352,0.12770867921022389,0.11618775181830054,0.1046646573510831,0.09314156288386566,0.08161846841664844,0.07009537394943088,0.05857227948221344,0.04704918501499589,0.035526090547778666,0.02400300050787929,0.012785781610714975,0.005852567033590161,0.0,0.0005125858167759345,0.007279240232915707,0.01711961940721407,0.024911900902974904,0.03641705146019347,0.04794014592741069,0.05946324039462825,0.07098633486184558,0.08250942932906313,0.09403252379628046,0.1055556176775293,0.11700492995121825,0.1253530587543753,0.13507810561189104,0.14659921762869033,0.15812231209590766,0.1696454065631251,0.18116850103034243,0.19269159549756,0.20421468996477732,0.21573778443199498,0.2272608788992121,0.23878397336642965,0.2503070678336471,0.26183016230086453,0.27335325676808175,0.28487635123529964,0.2963994457025171,0.3079225401697343,0.31944563463695186,0.3309687291041692,0.34249182357138674,0.35401491510876104,0.36542072356084787,0.37324108780566445,0.3835354622615833,0.3950585174037966,0.40658161187101405,0.41810470633823127,0.4296278008054488,0.44115089527266615,0.4526739897398838,0.46419708420710104,0.4757201786743186,0.4872432731415359,0.4987663676087536,0.5102894620759707,0.5218125565431885,0.5333356510104056,0.5448587454776234,0.5563818399448405,0.5679049344120582,0.5794280288792754,0.5909511233464927,0.6024742178137105,0.6139973122809278,0.6255204067481451,0.6370435012153627,0.6485665956825798,0.6600896901497976,0.6716127846170147,0.683135879084232,0.6946589735514505,0.7061820680186676,0.7177051624858849,0.7292282569531022,0.740751341849499,0.7518623082111496,0.7591956400706726,0.7702718690793878,0.7817949507855121,0.7933180452527299,0.804841139719947,0.8163642341871645,0.8278873286543819,0.839410423121599,0.8509335175888159,0.8624566120560334,0.8739797065232521,0.885502800990469,0.8970258954576865,0.9085489899249038,0.920072084392121,0.9315951788593385,0.9431182733265554,0.954641367793773,0.9661644622609916,0.9776875567282085,0.989210642731435,1.0,HB
0.9999999999999956,0.9888650786587685,0.9769821420483882,0.9656966249693262,0.9580601435053029,0.946400304518968,0.934517343522927,0.9226343652372839,0.9107513869516413,0.8988684086659986,0.8869854303803555,0.8751024520947124,0.8632194738090697,0.8513364955234266,0.8394535172377835,0.827570538952141,0.8156875606664977,0.8038045823808551,0.7919216040952117,0.7800386258095688,0.7681556475239262,0.7562726692382828,0.7443896909526402,0.7325067126669971,0.720623734381354,0.7087407560957115,0.6968577778100686,0.6850035423424141,0.6769952452181967,0.6662736260235496,0.6543930209598698,0.642510042674227,0.6306270643885841,0.618744086102941,0.6068611078172983,0.5949781295316552,0.5830951512460125,0.5712121729603694,0.5593291946747265,0.5474501294385778,0.5376355910795436,0.5286993953132877,0.5168644378245277,0.5049814595388848,0.49309848125324174,0.48121550296759896,0.46933252468195596,0.4574495463963131,0.4455665681106701,0.4336835898250273,0.4218007180928923,0.4114591943252045,0.40300732586570387,0.391218831904788,0.3793358546891856,0.3674528764035426,0.35556989811789963,0.34399152340347483,0.33620038117183204,0.3249880917886083,0.31310514126770084,0.30124319610023986,0.29287010796566526,0.28251903333409023,0.2706404715976449,0.25986005506773124,0.2521983149505188,0.2446030354935571,0.23444140376760103,0.22840903652843048,0.2232510685344924,0.21783011049224543,0.2101403697942611,0.19916902453095875,0.18966259870481605,0.18695482086533832,0.1828572180279605,0.1896078034943719,0.20146437509040294,0.21180308405318304,0.21711805603222423,0.21527302896993905,0.2126801094613574,0.21100306928545032,0.20511232885648278,0.19906185216703765,0.1917881257066707,0.1841771366449314,0.17642754380522596,0.16796219789861078,0.16196939883062145,0.15351060332034694,0.14554354053098384,0.13661521418709255,0.12808810777963409,0.12003798060987958,0.11119246481317169,0.10266561223892112,0.09453242068877543,0.08576961924824056,0.07611180488732894,0.06823128150474478,0.05797237164907987,0.050248513184844024,0.04084166124869726,0.0317006746354247,0.021336507195140908,0.013440566459959391,0.006686237849859666,0.0010803167127529933,0.0,0.004254801449065315,0.01017576037639989,0.018289015783607754,0.026282490458566787,0.03558123391866419,0.04480407142749354,0.05257174267026987,0.06356485683924007,0.0719887137297841,0.08236085875572496,0.09424373183948997,0.10612671012513297,0.11800968497538267,0.1297794167525057,0.1380356914919706,0.14854890457030212,0.1575408871644709,0.16729483629834496,0.17867234537295507,0.18639130420791772,0.1978720342736272,0.20920482237293025,0.21694473767789735,0.22844708828398907,0.23802590430678516,0.24715966083023244,0.25747198016669015,0.26586969054892406,0.2766035202076268,0.284358154158848,0.2912339396026964,0.2983092416015184,0.3055346924878035,0.3090146103968283,0.31240619671753056,0.3104946766169209,0.30859469490164804,0.30444180234216767,0.30020816497712444,0.294753361560375,0.2908510064134302,0.28506303659339227,0.28154809559217964,0.27858810122010447,0.2785391868732624,0.2785391868732625,0.2785454723894091,0.28068092417498847,0.2813313209154673,0.27542787299882665,0.27347768992775123,0.2736111934736235,0.277514832478714,0.28148287473439415,0.28942001894585856,0.29526019638590795,0.30128736823084123,0.3071861506094423,0.30891298347610563,0.3047317685802009,0.2994664517778244,0.29533169278800064,0.2934154735772847,0.2892794727719594,0.2850651031099265,0.27770432430615033,0.27287983189556686,0.2649302065167264,0.2568948611758074,0.24580926875630693,0.23812541931343523,0.22644687333487,0.21525593615172567,0.20899894669811803,0.20772746111550322,0.21168151650955236,0.21981305460453104,0.23167295896910223,0.2435559372547449,0.255438915540388,0.2673218938260308,0.2792048721116738,0.2910857936109127,0.30186735383782104,0.3098424473061643,0.3216696289618729,0.3335526072475157,0.34543558553315856,0.35731856381880167,0.36920154210444434,0.38108452039008756,0.3929674986757302,0.40485047696137333,0.4167334552470161,0.428616433532659,0.4404994118183019,0.4523823901039449,0.46426536838958754,0.47614834667523076,0.4880313208496654,0.49979569200284746,0.507996082822302,0.5186131979142663,0.5304960818110724,0.5423790600967153,0.5542620383823584,0.5661450166680013,0.5780279949536442,0.5899109732392871,0.6017939515249298,0.6136769298105726,0.6255599080962158,0.6374428863818589,0.6493258646675018,0.6612088429531442,0.6730918212387873,0.6849747995244304,0.6968577778100737,0.708740756095716,0.7206237343813588,0.7325067014597355,0.7442147860615389,0.7519730863952176,0.7630885572361619,0.774971469517201,0.7868544478028441,0.7987374260884865,0.8106204043741296,0.8225033826597727,0.8343863609454156,0.8462693392310587,0.8581523175167012,0.8700352958023441,0.8819182740879872,0.8938012523736303,0.905684230659273,0.9175672089449154,0.9294501872305589,0.9413331655162018,0.9532161438018443,0.9650991220874874,0.9769821003731305,0.9888650786587734,0.9999999999999998,HB
0.32017737913007904,0.36173585636576355,0.40700643468065145,0.454547665153501,0.5029833032027187,0.5511651886792184,0.603255608820096,0.6574296469757825,0.7100458573613206,0.7581605248222778,0.810766311231478,0.8586964301062998,0.9091243034630831,0.9579187646751206,1.0000000000000002,0.9889181998478296,0.9434684826569522,0.892421950284999,0.84335939393848,0.7895295757655221,0.7400381116416042,0.6892165309530893,0.6355970651751581,0.5874093779128395,0.5349494975114255,0.48160397108421504,0.4336172964961271,0.38064710694585013,0.32770128939672327,0.2800940524829658,0.24271171226585353,0.2265020093016854,0.21282011281436608,0.23007854375251346,0.2557618545847671,0.26022594657528497,0.23555039011592394,0.2110877329293619,0.18785876523681866,0.15745177814748157,0.12029062121749523,0.08227939007281826,0.04573880094299643,0.016987157119448204,0.033827254840883336,0.07646539235108962,0.1144391447737696,0.14845966537620603,0.1793264695201917,0.20195315067762398,0.2197495269945784,0.23543072741731152,0.2684402568535098,0.309225396371964,0.3547659082023038,0.4023191041007834,0.453221974095382,0.5070943161983348,0.5558754055803048,0.6072087240500301,0.6558836895072,0.707298832239762,0.7558798425445581,0.8056150655203012,0.8525739467220732,0.8780124666393256,0.8505773392013649,0.8001214722630252,0.751330217408924,0.6997447952451676,0.6464404820669558,0.598462331124517,0.54554534416948,0.4955446097252638,0.4452704735115951,0.39114809444675847,0.33695724123680204,0.28284490283367925,0.23281836934840716,0.19839060245105555,0.19519327732918734,0.18611210667748046,0.20148832844378917,0.22129242917226044,0.2158087393175514,0.18679883229426042,0.16523076931657932,0.14461157353622034,0.11280278776205455,0.07749930504843805,0.04143837779865156,0.008654886453534516,0.007287682894089986,0.04323903215099678,0.0825204585671937,0.1188331025323881,0.15117496719760348,0.17590093045517907,0.19401463168449884,0.2131684004601173,0.2478862087756719,0.28955672141338784,0.33970085640147096,0.3878636427206379,0.43559833243169077,0.48609950275938885,0.5348193322377486,0.5870322057448627,0.6351773772588309,0.6860869607861981,0.7348257516158014,0.7837995014856187,0.8330808901571225,0.8620200279231494,0.8372027657873522,0.7871411123923491,0.7390410292807461,0.6855056247233786,0.6344791903165823,0.585188979918724,0.5311627391040261,0.47697188589406947,0.4228112077307917,0.3715465574483634,0.32245893060054764,0.26881766000282825,0.22045744525506739,0.18578592650006187,0.18793009634463176,0.18620298161525706,0.20358008208212075,0.2345754852845694,0.2588268202060666,0.2555287298643296,0.23610637924829248,0.2211280139924401,0.1929778388943837,0.15886958933173534,0.1227596659717316,0.08667141999448824,0.05512358685196084,0.06077350441066076,0.09855348544304476,0.1366790981564936,0.17270609534141035,0.20473855795523366,0.2289932820010112,0.2427058869944796,0.26531813767623347,0.3068335807391884,0.3532239378264823,0.3997293722129389,0.44786721629634596,0.4956247902435802,0.5469872575749244,0.5952391079069921,0.6486377163726746,0.6973191538662866,0.747846162145114,0.7957799674188144,0.8459946540430561,0.8951657321503903,0.9418857116912192,0.946245218068966,0.9074101856703962,0.8634062471442832,0.8150065074822761,0.7615997946615747,0.7132668372839213,0.6610244401920167,0.6075623454227663,0.5595387350368639,0.5067207016329014,0.4526503088805558,0.402907774091231,0.35236035996462967,0.2986796629584283,0.25044198131558026,0.20772469371315982,0.1973397316092389,0.18725060916196168,0.20344880703154056,0.2329152967043706,0.24569176566439088,0.22654797373852986,0.2048348492114378,0.18369419882633609,0.1553271557773137,0.12268999606149977,0.08871904893172822,0.052197426167964966,0.03760882995170145,0.06869460552898965,0.10743275660287277,0.14712404872762797,0.18585378564589017,0.2222529739294259,0.2495346381103276,0.2670135463056891,0.28895886649684654,0.32576422731318,0.36847408821679095,0.4147317419677401,0.46199507923757555,0.5095650629960842,0.5600719747629705,0.6085024500326879,0.6604540267831112,0.710678534075166,0.7605174538366883,0.8095210097635099,0.8598445868579787,0.9077675153453073,0.9589764853660954,0.9917315622380285,0.9677293566701028,0.9185247921021078,0.8696405644789951,0.8168024010459884,0.7688419250658944,0.715598196448711,0.6638905286349823,0.6151677701793905,0.5612731576504051,0.5078350387052915,0.4598216566941684,0.4069631858786684,0.35388737254719405,0.30605413951937566,0.2640015098489916,0.25115905702672303,0.24450459285061887,0.26243418959649345,0.29151439694215586,0.2917338976644097,0.2669121531482279,0.23908051706333766,0.21340837289039394,0.1821106527991485,0.14621420917135164,0.11007097227383267,0.07247755638856845,0.03004225371893332,0.0,0.013671558619997581,0.05116935397952993,0.09086990813717821,0.12983339808649963,0.15477007120061215,0.15706680072624968,0.1671510910730436,0.18325495313609275,0.21262927783065266,0.2517773344041667,0.2943352189156898,HB
0.11676170572624867,0.12849966057668616,0.13650307528346417,0.1490676866221745,0.17641555111501117,0.21226536642070815,0.2527444927214497,0.29538442542030774,0.34221256159100477,0.38896724125076165,0.4306822956328704,0.47427844866594526,0.5211393644990474,0.5664838901882454,0.6068630071102992,0.6507168593180437,0.6847082160575586,0.7284212290882155,0.7687084036137855,0.814612129112757,0.8560974323535324,0.8932693518099819,0.8917039408842424,0.8516309427783113,0.8114049150839711,0.7653762685786496,0.7187183748599504,0.6775536723929065,0.6333282832487046,0.5864468909675196,0.5400308614248488,0.49947336731331826,0.45440712953630835,0.40751596653922206,0.36074789255191897,0.31874242606571146,0.27544456711340115,0.22859034391726518,0.18491323426710937,0.17423136823848595,0.17458559796723283,0.1690274599164212,0.16146930715466423,0.1409176562985528,0.14582876365234143,0.1690405573139846,0.17473081490360864,0.1736684113864524,0.16630440137418812,0.1588531332295966,0.15745576567269937,0.15343003980196257,0.13338835980851993,0.10686346313508865,0.07931318891823325,0.054805203975843764,0.0487836420394252,0.07083721025360945,0.09460330190137967,0.1103719772078704,0.12371187278130091,0.1341137386476372,0.1507954695030691,0.17965173337217277,0.2145276156528635,0.25342034872123076,0.295614171948291,0.33817576201832233,0.38432150668938614,0.4246659449011776,0.47013527921586085,0.51537243363876,0.5558215560889019,0.6021687792247044,0.6481120112418843,0.6883390136836847,0.7341953007742354,0.7788843063236419,0.8196648464567395,0.8584784679933362,0.8493518300506098,0.809933615902964,0.767908546533439,0.7213158751376996,0.6797933995970573,0.6359669301897577,0.5891153952275505,0.5451530036340708,0.5037552434408166,0.4570623356600634,0.4101647785963627,0.3632898290525184,0.31943795024492294,0.2779479480189069,0.2312345258466355,0.18554291117480015,0.1713850324112418,0.18508709823050484,0.18942968885271272,0.17931548212707416,0.16996178877772672,0.15071208688421334,0.1534127324348642,0.171732274204355,0.17476825640642546,0.1725338024856693,0.16486232151241653,0.15599657236102282,0.1496686450250877,0.1535820788322455,0.14080771894475652,0.11498409340843119,0.08837906897000547,0.06176379236528806,0.03393402608886631,0.013779897954870002,0.0239760435031946,0.04997192434680753,0.07726710603813736,0.10072216143016344,0.11559705958895572,0.12533818643390715,0.14189793483140556,0.16991732889705213,0.20343473955015656,0.24349724671010065,0.2838041719275939,0.32852437223715625,0.3691275311617097,0.4140680754574937,0.4587096404020501,0.4995622510756177,0.5461032428083532,0.5929735000559044,0.6367539402627924,0.6783180771784749,0.7250338420723534,0.7719153581235554,0.816135632912155,0.857303836521967,0.9032989049497628,0.9390395503092266,0.9422873317836922,0.9034053984047123,0.8579703794512412,0.8176498835877333,0.7714554551508741,0.7245583943064888,0.6776644491251202,0.6322294626132419,0.5918654352073995,0.5456273921234507,0.4987301868672336,0.4518326298035329,0.40496808323149946,0.36137737117235,0.3196570675055945,0.272901979427979,0.22607514313593513,0.1853634188301443,0.17688399039878044,0.18314093250662644,0.17874794134422745,0.17330998535128805,0.15638636737449652,0.1475238590632837,0.16813126690999103,0.18244264527668497,0.18209914349066136,0.17458502193868508,0.1660113492850428,0.15828735011842188,0.15741547589688665,0.15264077410532173,0.13447124676300515,0.10814368921965745,0.08025621826456186,0.05358013638938908,0.0244274060134666,0.005277530026043475,0.016405143304482506,0.0427639146273211,0.07178310122657683,0.09797806292145195,0.11407400829910053,0.12627153054052798,0.1427667702259905,0.16756170250445446,0.19884181457286831,0.2387706094305444,0.27913405022924787,0.3239556542198143,0.364335223232102,0.4103764582463352,0.4515108282689164,0.4957921297870693,0.5426730892183456,0.5891013353351602,0.6294702810997916,0.6662552940430486,0.7044961002271326,0.7511821351528349,0.7975666355178734,0.8380764935905367,0.8832197369502477,0.9294618877941245,0.9696488582309553,1.0000000000000002,0.9796290627202857,0.9368980214480567,0.8958389355561416,0.8492223312341414,0.8023247995749998,0.7554892946326024,0.712642748020641,0.6702039652701959,0.6233941491994464,0.5764965921357446,0.5296030213152554,0.4842767736940672,0.4438583318603091,0.3975656562613341,0.3506683846964904,0.303841548897269,0.2612269983291089,0.21857010888713702,0.17598181217883568,0.17517789766452774,0.18313413535452927,0.17897911940258315,0.17405148361762945,0.1564319086186865,0.1471579520804096,0.16906012668707526,0.18227221889618805,0.17815017608623895,0.17048251724778085,0.16403422294499448,0.15383385412286632,0.15301142356983655,0.15492854873596484,0.142410359611864,0.11757371408694528,0.08950973247721095,0.07114160611387121,0.0850603261854892,0.08689265063682905,0.06779761231385217,0.025296525083080557,0.0,0.009518255384330265,0.03772440411246891,0.06456374874971327,0.09097232506144537,0.11052809395690777,HB
0.4202710408695577,0.4706347021409104,0.5238654469784837,0.5761745587879826,0.6280893136143361,0.6823772431031973,0.734219869622491,0.7857985256490693,0.8409404077964425,0.8857588006669771,0.9240361833899035,0.9150737151277045,0.8685421844608096,0.8203629778481859,0.7697228427977404,0.7168617594617103,0.6604276773525984,0.607955923372144,0.5512987333043543,0.49371773045327283,0.4361387797130346,0.37971776279395264,0.3272033187489515,0.27143200219039876,0.2395848339433343,0.24040522825942456,0.2413788998391614,0.22058094193484734,0.1885756501249659,0.17862570314844473,0.20485892256595506,0.19575602957474414,0.1816647296168773,0.21111943385614607,0.2569287808907784,0.29757614885234884,0.3457977255754273,0.3950459136145442,0.4474036135488749,0.5000426486337729,0.552984901774879,0.606868880335634,0.6593136596363883,0.7126328107500478,0.7657385166494176,0.8147418044386247,0.8654787904454925,0.9189381966660158,0.9706525803866949,1.0,0.9754327507565833,0.9293864312456687,0.874087487685877,0.8214754060640649,0.7645898081611883,0.711249816239209,0.66393185419053,0.6178739427778762,0.5730821975516401,0.5179528318322425,0.46215804212957,0.40934716931981796,0.35438013792065626,0.3064028221787657,0.26956751898333364,0.23474227598327346,0.2405634011699348,0.26439594227592866,0.2980932768534893,0.3320198365721826,0.3250961265168505,0.2958151551491036,0.24757676415440566,0.19854348133106614,0.14935394919272382,0.0996978303278695,0.05258237361729856,0.0148128920194871,0.0,0.03539972080709808,0.08180476386232838,0.13132451708722037,0.17566122411726326,0.1985388889520504,0.19711881477618964,0.2271226159383707,0.27753805848924895,0.32868697184619944,0.38027011545262923,0.4333721305259087,0.487507124136494,0.5418681236949215,0.594884824902158,0.6461483108264735,0.6973011536096797,0.7486063956056256,0.7996686305342514,0.8482813386475218,0.853189519518946,0.822079509297372,0.7741898371731594,0.7208932098801809,0.667249529002301,0.6148946023764538,0.5612192144741056,0.5075064128497596,0.4566316099026121,0.411570924192746,0.35550057864978724,0.30300748904261254,0.268542480027666,0.2287668978059324,0.20043779309694376,0.2076070853537585,0.2413728269443488,0.28229533734393264,0.30720713554226353,0.2933815304980144,0.25760935337449486,0.2126853278504609,0.1718528982234916,0.12686215410557233,0.0794525152669886,0.04064535501289945,0.05248608344027039,0.08470098782449809,0.13047935191839077,0.17933305837890234,0.2122333642207811,0.2341725632879076,0.245231753694778,0.29308940914436177,0.3453136026813074,0.4002791158666369,0.4526259553120656,0.5055910021366777,0.5582297309033358,0.6107135587893998,0.6631014491303154,0.7153675072944016,0.7632502368432997,0.8109981846059956,0.8391871240153178,0.8096713334877085,0.7721481207304927,0.7242555068740185,0.6699877835288971,0.6166759728491226,0.5608940591973471,0.5082119792983425,0.45371824995226684,0.4011017005104617,0.35776303822114286,0.32008278564245896,0.2920786575153066,0.28876750581923594,0.26871693675194164,0.23021698283276015,0.1877917980704048,0.144383191424996,0.11464973510508747,0.11851739394313865,0.1463588629618615,0.18625127403058772,0.2265719375725045,0.26686370200458265,0.3139515653963455,0.3638326690876411,0.4152022991776564,0.46778792782436873,0.5208825903851594,0.5731293241276926,0.6256155878710613,0.6720616911549723,0.7194151464084394,0.7743166341518833,0.826350924769763,0.8776911644242807,0.9228607387498603,0.9307188725373287,0.8940523407903319,0.8529607609767457,0.8031247206972246,0.7471195769480913,0.6895454719922324,0.6321335272194178,0.5786338416128104,0.5238060204207388,0.4701427438801874,0.4153971454722255,0.3590230100123678,0.3073161077811445,0.2773820578144731,0.28991844972183933,0.2950329004047031,0.2765530345470547,0.23915577750553008,0.20099270934258795,0.21383286508147525,0.23944910155734,0.26773071787706904,0.2938233539806948,0.302321394556072,0.27208121711083366,0.22810902111044207,0.18309769607240378,0.14252057607933577,0.09644239649731379,0.055621950582111945,0.05089600765738056,0.08519244885499078,0.1252832663470037,0.16447246854643882,0.20230061431186475,0.24040710875224713,0.2810083555273907,0.32183048333783526,0.36992402106514877,0.42047117063485884,0.466280763691688,0.5153843600768945,0.5692541314922778,0.6224720844678947,0.6770258459254169,0.7294966702560887,0.780473453377814,0.8284890123049987,0.8560671037397526,0.8361780788880834,0.789548238478771,0.734319951141693,0.6768904582263499,0.6230853679667535,0.568497537143796,0.5138433703869644,0.4601864812255757,0.406125421783902,0.3598469232522602,0.3469112099860657,0.31966971663303767,0.2746052769297319,0.22463936660420158,0.1784066891697207,0.17289052676675676,0.1516625392105978,0.12067605960046346,0.07850490374201258,0.06853483468344157,0.1045431622751879,0.14027711050299685,0.17842766205884852,0.21614705488683883,0.24035144338854642,0.22881109346313167,0.19237010464698734,HB
0.13050956334417574,0.15891059084514758,0.19078725336049418,0.22258392167591357,0.2454533646387289,0.26310183406463317,0.30851071923842044,0.36967497533845917,0.43163103326183316,0.4977564530425007,0.5617632277096396,0.6269406027402114,0.6939586362014034,0.761551642779688,0.8226179468100967,0.8621928267826342,0.836983774501423,0.7720961209731825,0.7066436606990045,0.6395969876508869,0.5662878344652977,0.4931784276915119,0.4336423339303801,0.3750079049209223,0.3166292402812547,0.2611206882841488,0.19769192311927997,0.1257012869455263,0.09536203331598037,0.1404922002493283,0.18008218460088576,0.18990991852215977,0.17723856810886174,0.14660985588984943,0.14901185363048342,0.16705291873398576,0.17933323663562417,0.19002420681722798,0.18939724488406684,0.16775255139681455,0.12607811824181603,0.08185311232403292,0.06996006143290101,0.09019721615806997,0.11620051683672061,0.14140208249664576,0.1714716169717656,0.20074229955531608,0.21288730342038642,0.2516500330192417,0.309828560575129,0.3752496161050294,0.44079644819310415,0.5071180903836603,0.5732112805066811,0.6464645727250931,0.7198514672368073,0.7932373469872407,0.8651796070015649,0.9254858867272509,0.9639067991557306,0.9365737269088132,0.8743373377220611,0.8018509872010209,0.7383916349590351,0.6689654305012471,0.5955975213133651,0.5229124346610048,0.4600829184089834,0.3898572478862934,0.3164998131795853,0.24732951521029456,0.18370479718376354,0.11103311194987642,0.0661702055950224,0.10236825124299287,0.14787960168440373,0.16886195359926015,0.17608382490686258,0.16824719874667027,0.13453219728231902,0.10909083119171914,0.12345199774168414,0.13298460777179688,0.14178581187683248,0.14720883603877066,0.13972377533181035,0.12710992647354225,0.0952385452280593,0.047238439373791685,0.008988173615969153,0.018701813226051023,0.043167510312149826,0.07683395462371978,0.10433232501346712,0.13255025924025876,0.15785375052451123,0.20576706110755127,0.26551365845157937,0.32735545456002635,0.39948514278922564,0.4728648250023042,0.5435496216187166,0.6060894017144096,0.6785620396677361,0.7464036247435013,0.811180394152045,0.8825300388311543,0.9444888758070715,0.9998772727028751,1.0,0.9432562813434378,0.8702480023235157,0.8026393406239372,0.7376409163899247,0.6644579133834521,0.5919220130438663,0.5293729834450156,0.4587192461709888,0.3857716421490873,0.322004529139277,0.25296897287229525,0.17960875362583284,0.11013677672817135,0.10600848092456694,0.14178249311115732,0.14738866618677315,0.1474110572327758,0.14709652646542226,0.13952659384381372,0.14582086704915342,0.1472662450542055,0.13984512997374798,0.12959795012907316,0.10184255165321376,0.0659187387139859,0.04394226756509001,0.04169887593392829,0.06799370388501291,0.08774706523918008,0.08745498606521274,0.06976975039066113,0.0742918813977651,0.11352056454253834,0.16924422035579934,0.21303548537718386,0.26964875473449235,0.3379015654020163,0.4018896226010602,0.4736249641833341,0.5358063508815016,0.607246016589357,0.6773145194583297,0.7402502860031701,0.8091720992321814,0.8625769134573695,0.8699386590232279,0.8138423612262091,0.7423338790966003,0.6800789836980909,0.6084393772085286,0.5350572889541847,0.46361511345201123,0.40142959814902657,0.32943431083001506,0.26307112557667534,0.19686225826277637,0.1254486223021387,0.08320884454734623,0.07366670315261148,0.054347219426517324,0.04646459365793909,0.042813905996927026,0.028515812554524178,0.006970271928559146,0.0,0.017825253662990814,0.043845647863916426,0.08008561146831195,0.11146081251495232,0.14110911448233354,0.1787004343913705,0.23449147009598859,0.2933172776609667,0.35855522287025643,0.4206199902524097,0.4889424277579977,0.5517690842057448,0.623711344966055,0.6865570364956883,0.7568098483559744,0.8292234547822823,0.8917716061746366,0.9573825916792855,0.9941807005439216,0.9666167907043586,0.9044738425771035,0.8364853649324098,0.7631367211311648,0.6897498266194515,0.6163630108035103,0.5434481759795884,0.47981705028579125,0.41060888202752377,0.33725563846902595,0.2671499634145871,0.2042220435648905,0.13200719555954654,0.09326680821811673,0.13367285206588075,0.16147661368491217,0.17470029424440758,0.1825690734640837,0.19696859877256045,0.20494265645452536,0.20130844750800492,0.1687191162690711,0.14001057959006147,0.1541120441845103,0.16174875410897238,0.15986604998949083,0.14358170866826736,0.11205722325769596,0.07624134055717269,0.056235860134596916,0.08604593799901483,0.12301038277563725,0.14945975339319872,0.17392929485413688,0.19852825445960454,0.2320197927680585,0.28401503261513206,0.34616873781356716,0.4080787963952144,0.4796522719357137,0.5469238374129692,0.6122509044701423,0.6833017650254849,0.7456750540643795,0.817397754814964,0.8810662570821477,0.9376717216813648,0.9334819442512834,0.8722150217491103,0.8067260692527993,0.7334877367639252,0.6601074672340155,0.589293328716364,0.526759170394206,0.4543697311806758,0.3824587237156418,0.3201742299070367,0.24886261229822715,0.18403363760834202,0.12366448450861212,HB
