0,1,2,3,4,5,6,7,8,9,10,11,12,13,14,15,16,17,18,19,20,21,22,23,24,25,26,27,28,29,30,31,32,33,34,35,36,37,38,39,40,41,42,43,44,45,46,47,48,49,50,51,52,53,54,55,56,57,58,59,60,61,62,63,64,65,66,67,68,69,70,71,72,73,74,75,76,77,78,79,80,81,82,83,84,85,86,87,88,89,90,91,92,93,94,95,96,97,98,99,100,101,102,103,104,105,106,107,108,109,110,111,112,113,114,115,116,117,118,119,120,121,122,123,124,125,126,127,128,129,130,131,132,133,134,135,136,137,138,139,140,141,142,143,144,145,146,147,148,149,150,151,152,153,154,155,156,157,158,159,160,161,162,163,164,165,166,167,168,169,170,171,172,173,174,175,176,177,178,179,180,181,182,183,184,185,186,187,188,189,190,191,192,193,194,195,196,197,198,199,200,201,202,203,204,205,206,207,208,209,210,211,212,213,214,215,216,217,218,219,220,221,222,223,224,225,226,227,228,229,230,231,232,233,234,235,236,237,238,239,240,241,242,243,244,245,246,247,248,249,250,251,252,253,254,Target
0.7334484430961742,0.7335390292341396,0.7587576657931109,0.7448536430395353,0.7178869071452895,0.6967578724852107,0.6866832694613928,0.6792409820571207,0.7090382388230884,0.6945099736881656,0.6256464237175635,0.5524002845082715,0.4808561779594045,0.4093920846836834,0.33318018733585253,0.2739921568403674,0.31537967546488654,0.39421541372848923,0.4738296094091782,0.5523831075395697,0.6252236266855568,0.6927285372004844,0.7585774442855223,0.7868504198611525,0.7689466282470109,0.7297518357522362,0.715247448772338,0.7206309430804306,0.734735905542882,0.7625277074783364,0.7513410402221875,0.7094706203879259,0.6848263958685444,0.7010945465591861,0.711374174563424,0.7362029040287946,0.7248558244468862,0.6595884782447771,0.5863125956337042,0.514251663167422,0.43998300349431196,0.36868701333264486,0.30239417008892155,0.29533972071135906,0.3695379783302418,0.4470618286684558,0.5239955967400716,0.6006399445848308,0.6776109490702343,0.7543076407246437,0.8197551465666512,0.8534746638398917,0.8619097510669688,0.8488403915153974,0.8847630214196288,0.9338760877967557,0.9966125351383844,0.9999999999999999,0.9455900150363762,0.8768969820239049,0.8193958665679734,0.8187700071479925,0.7977177806253845,0.7607593230394124,0.7607145146783983,0.7707000593471524,0.794284544883766,0.7573483627699032,0.6935329953145305,0.6314819773612322,0.5611326193330474,0.487301073650254,0.408658767006421,0.3260822563537078,0.26470130525996094,0.30189224304100226,0.3796057502261547,0.4575634363350627,0.5326207411570987,0.6095259305795805,0.687018961583847,0.7616355432498051,0.8170108519917368,0.8229428028925402,0.7956536129975921,0.7688272710920158,0.7874505473887975,0.7836066135137217,0.8071062781765589,0.8486419789338348,0.8475845001507559,0.8048959232867167,0.7676091758332625,0.7434002504548064,0.7368999082402291,0.7586238263398578,0.74531714703979,0.6807029309247749,0.6131551643350267,0.539726087136914,0.46109866851209913,0.3826946378353081,0.304827153785474,0.24965855473265086,0.2951366143473221,0.37146195980741015,0.44867759338513424,0.526314987904516,0.6026843304878023,0.6706417075173939,0.7441067652821197,0.8175341672998303,0.8593792777438148,0.8531840477466205,0.8238040459113337,0.7896848484847402,0.7775311674668158,0.791886408387866,0.7910213401735396,0.8028680471215982,0.7919374623514474,0.7565080426098932,0.7562011259046554,0.7457649487477812,0.740198528458884,0.7524951999840338,0.7880828868694109,0.8183452430379813,0.8134573911619069,0.7515934421128915,0.6725170609216388,0.5909759537250047,0.5134311345992443,0.43649561263755743,0.3597125598786137,0.28217974651842925,0.2026865750234761,0.12748528265486847,0.09902517866368721,0.16078053576282125,0.24166495917921604,0.31991354718283105,0.39777984358400353,0.4730603001563395,0.5473382739236895,0.620331391162256,0.685112015492558,0.7096388449096863,0.7003749589418234,0.7060106326483878,0.731956742711635,0.7740029594552206,0.812027696867977,0.7965087434308887,0.7550241537003818,0.7499560934645052,0.7383579584344503,0.7337739253655721,0.7661283826447521,0.7871894029699195,0.7541407427507715,0.6801066389319638,0.603570671113202,0.5271424202193444,0.453111699088409,0.3848193769880832,0.30855342088469195,0.22996716744354861,0.15291558729393384,0.08887630224234633,0.10902266435620467,0.17524665779269166,0.25332408367877135,0.3309297894549037,0.40804551133548317,0.4756938351086656,0.5363002005448337,0.6054998470149412,0.6761630359222671,0.730757606269936,0.7282763370226205,0.7194272331297736,0.7142589258908151,0.7337842878505457,0.7700350242091357,0.767041420221026,0.803035905936517,0.8746223684882223,0.9363421786392031,0.9213883808838305,0.8717115150635396,0.8264085661553761,0.8080593741890923,0.82346546434808,0.791524423364076,0.7313407199165148,0.6557784510543317,0.5792406026785965,0.5115393377246569,0.4383150075413771,0.36120438965740753,0.2813302930716651,0.2031866056457421,0.12178593313356567,0.04660498659570833,0.024266416321278295,0.088226681584054,0.16536112671462977,0.24357324611894582,0.3226192838759615,0.3994321927671155,0.4742307223688125,0.546784939186472,0.6198175672413918,0.6840976371415654,0.6823494102334319,0.6568320238490527,0.6406378233816866,0.6573537154252053,0.6933841062455631,0.7154529850214809,0.6988500762699706,0.6931808176141693,0.6728485284135487,0.6787933595149885,0.7185469965269163,0.7532067059639566,0.73934706924565,0.6730524794715099,0.5969722283730433,0.5216465344638989,0.44562555514425406,0.3675505577862058,0.28992728681794366,0.22129102635612885,0.14366462021027893,0.061185507788627636,0.0,0.026314948211824563,0.10275688066709554,0.1811505668599046,0.25915232789141907,0.33761680482230927,0.4137636763438789,0.48752205357358935,0.5617502393045014,0.6248272606860531,0.6452320681740206,0.6418392561169451,0.6549976835252035,0.662416782294618,0.694078360743739,0.7249918491307469,0.7021236437846542,0.6887655138190151,HB
0.37724335499110384,0.37715162106850664,0.36010204318752437,0.4007704954786635,0.46324721544302716,0.5313576975315646,0.630005608640672,0.7400548792038331,0.8504836453353928,0.9555724596402178,0.9951705910176689,0.905662166660071,0.7919652903412058,0.6778739856625349,0.562151857765701,0.4442439181112161,0.3312343811165037,0.22483827599159945,0.23581455564400455,0.32665281691534553,0.42532961966587157,0.4723857532841331,0.43150020594377136,0.3597138742623285,0.3585832165017675,0.3629064740923733,0.3526348784632287,0.39415320086517824,0.4617595489587385,0.5308471829567465,0.6245423393253411,0.7260814580986081,0.8290229983120585,0.9351500941711524,1.0,0.9315850804929231,0.819460851549052,0.7036255299042036,0.585786303942003,0.4727374678836169,0.35500369340069304,0.26008710929853796,0.3029306732188457,0.40513506843042224,0.469734896715025,0.4404420019802213,0.3661909470050815,0.32951754828895696,0.3659707683058433,0.3478859357748063,0.3424182133160758,0.3972928106874809,0.46381659674534337,0.5311162972541659,0.6292554060672813,0.7383377040511752,0.8481009468310206,0.949718205987385,0.9636188242512538,0.8626085598434949,0.7437837773995957,0.6262755987493722,0.5131491560119146,0.39507387247168757,0.2809022496019715,0.20835775461520178,0.27803177468286533,0.38286276312411904,0.4564010643378913,0.44238705521727684,0.37706021768216513,0.34807626778161005,0.38203970438317536,0.3488380134954119,0.3456313134521176,0.40055895388016927,0.4646812208438682,0.5392089649461662,0.6475974157085873,0.760336483211016,0.8701530637563231,0.9640292873773861,0.9487727914806987,0.842567554462256,0.7273477877220296,0.613007489561165,0.4941374854118903,0.37503449978985826,0.2569855676434929,0.19155547960151842,0.26759070428498233,0.3717571276453091,0.46067368268712916,0.459811761262106,0.40241117441500673,0.33751973714569683,0.368237685625898,0.3765850795495247,0.33582550171947845,0.35324253671617534,0.4138937889261438,0.4767505684109039,0.5630008873163266,0.6676365829483886,0.7782299368071837,0.8897491001739728,0.9866362612185906,0.9729162506068783,0.8655761298946159,0.752650533385208,0.6354978657447046,0.5222827168111892,0.4052022033064542,0.31071629744693996,0.35419929441243125,0.4444361062738049,0.47006520780602346,0.41666665053467766,0.3532251292205566,0.3761012526269234,0.3724961093450905,0.3671751830552057,0.42536084071392866,0.48642015724702214,0.48078784155199217,0.42143554513120307,0.3445341513919058,0.24729699363543411,0.21495800069101678,0.287977488205144,0.3227333922572373,0.33651595756748676,0.2985272763344866,0.31999592478597294,0.3984831809756919,0.4284036621975773,0.35365505900805716,0.24741612475279684,0.13696455855249878,0.03531155295910815,0.036140559869110245,0.1409090415766696,0.2538531355419571,0.3720096017236425,0.4882469878146065,0.6021423553415122,0.7159792535055134,0.7412778645105937,0.6435816418156339,0.5351422183296728,0.45180448799759265,0.39009743189533075,0.32648195726070606,0.2942622202675258,0.3220274857764971,0.34345767777767366,0.29738444845960865,0.331769470699252,0.4033437335503198,0.39308948538734123,0.2975315908053979,0.190517485133475,0.08057077364325482,0.0,0.05169283198719499,0.16281382793978372,0.28075609434187254,0.38744030093646487,0.48997267942289446,0.5962456944281394,0.7081708012575216,0.8109706799250056,0.7884761052930864,0.6824648813566516,0.5739226454066446,0.4761226776198222,0.41384006476790214,0.34855296160928795,0.3029139612340277,0.3110302048417217,0.3327296529549908,0.3112613013175076,0.35966410806188476,0.41817321967453247,0.379566507573907,0.2768193037767954,0.16698047201955357,0.06012739053017824,0.016796043336564814,0.10641800636599585,0.2224415368494992,0.3361659575855416,0.45332788978497196,0.5664363514265516,0.6838890264086148,0.7592116110410074,0.6913056109692848,0.5838829020978791,0.4957730913453047,0.432663216746658,0.3640677834219357,0.30559780439411477,0.3043866731597815,0.3144597683359689,0.263286981316049,0.27974730001905,0.36014429235305756,0.4270854541489604,0.39192999219149627,0.28657245666891873,0.17775721547231327,0.06806357803359231,0.01363223794775692,0.09296292307013343,0.20456321554037737,0.32155438370646694,0.43552285461634654,0.5516681946020294,0.670721339894039,0.7895619675365164,0.8792672486983186,0.8266924188266696,0.7171966689940592,0.6078523086086929,0.5154822606014278,0.4479220626038243,0.380251303776842,0.32357102604446886,0.3130037183782395,0.3277795632680256,0.300526533070818,0.33793426507652113,0.4102894734030349,0.40589716150399346,0.31381996773428433,0.2019214133649061,0.0893012404204796,0.0013200465306658637,0.03652895626618813,0.14750937326043578,0.26293335849815747,0.3773982416190311,0.49625071278697686,0.6126230866649165,0.7262553331081942,0.8210937768681286,0.7735407200486084,0.6594762556616907,0.5537560848640539,0.46837944311565005,0.4105553675782394,0.3489203200944915,0.32319653106843527,0.3388032734698305,0.3164297452591185,HB
0.9106381335612559,0.8614369561898081,0.7741141380925494,0.67454432010868,0.5601597691600881,0.4500518729848859,0.4508751638816837,0.569996110417307,0.6919390097048272,0.8089625399983942,0.9255100129963041,1.0,0.9607050266679558,0.904318845539474,0.863851382961339,0.7920589624410259,0.7582072653277936,0.8082280500605719,0.8528687056403053,0.8716388806863202,0.8468110323573153,0.7981002259481684,0.7703799707751937,0.7944899510196057,0.8486552702643495,0.8775805180600917,0.8843731306849412,0.8724302273210034,0.8015646918324468,0.7090484506570105,0.5975464763086498,0.4823588974622801,0.3967676630571324,0.46371341340712435,0.5879394938426121,0.7036057098030186,0.8177632715715446,0.9195273461037288,0.9473689118620912,0.8734715876396892,0.8234080250489035,0.7688139414138591,0.7000088877171682,0.7027796694931889,0.7558207651000695,0.7966049465063079,0.7966078128089764,0.7568875703895057,0.7149492310743315,0.7033426674584802,0.7149423480179498,0.755961615390484,0.773794511507405,0.7885940294154543,0.7569205040063718,0.6802438665703283,0.5785176364620321,0.46598785005862364,0.41194276482642556,0.5018029451783934,0.6229240449849542,0.7379346287260669,0.848924749521617,0.9133467121770944,0.8613183721046442,0.8407093630699465,0.8092338535113806,0.7394389506258308,0.7227320516242979,0.7706280164151003,0.8162415882660246,0.8611564062870412,0.8747853658580138,0.8472504983752871,0.8005694748042718,0.7716314694616555,0.788169868930106,0.8363232419832243,0.8755633898050013,0.8934663813007715,0.8592730741569552,0.789348648462397,0.6983430471651357,0.5899794867586454,0.4652412082477455,0.3754853905560298,0.44771345425831033,0.5705681832958698,0.6866749194937394,0.8072816263397464,0.9133532708648402,0.9560531261524621,0.8905062019973546,0.8541187563052137,0.8090086166591997,0.7963114070655508,0.8612209081873332,0.893842761574315,0.9002400768944168,0.8880736539531964,0.8481820110277947,0.8122822311059301,0.8312268252027724,0.8690122603281618,0.905196786355682,0.9021733083763648,0.8729497953405643,0.8194237185406759,0.7262615071456802,0.6498671804027571,0.558547628837351,0.46088810016107296,0.4932816363860355,0.6106415510112053,0.7299895139438837,0.8464987933239421,0.9493278442071387,0.9551244297276216,0.8791320513614411,0.8467097665930452,0.8280722404655831,0.7169846564484748,0.6298570010322733,0.5176256222878539,0.4127365488879895,0.3436597459829025,0.22681879990354714,0.12083164739184271,0.10549655018974247,0.20524398188277404,0.3181735241490653,0.40800924605975775,0.5133376821674664,0.6250232162988287,0.7246223110259331,0.7911966529851182,0.8234561545363794,0.8274379497521451,0.793779617977795,0.7529349926747293,0.7383314921934816,0.779214446161733,0.811425329761934,0.8318154818891546,0.8254914875650368,0.7894041895636632,0.7230153155135914,0.7175941119001212,0.771801868568438,0.803157313006627,0.8420250290368951,0.7944641876288681,0.6787680238732325,0.5601313368390501,0.4401387462076407,0.3179372091972339,0.2012054889947814,0.09495847045087147,0.10960808677608891,0.21687878069076283,0.3302084008964694,0.44821347686536717,0.5642684875821695,0.6729834393564551,0.7619547403116349,0.8116317364299359,0.8057485825592496,0.7689861684376238,0.7243516777102652,0.7083690255495845,0.7292872026619741,0.7753486397485596,0.8036160554416987,0.7742174043117447,0.7312669697537553,0.6766034972518695,0.6302394028487961,0.6577601840096587,0.7290716732958065,0.7708633760044781,0.7635264201452019,0.6809721945154643,0.5650638264657957,0.4428746978264737,0.32434188637718986,0.20423584931931038,0.08692692560039683,0.0,0.04571761056639412,0.15720186549512882,0.27666050495724437,0.39095493649489965,0.5025427402865317,0.6128769323928429,0.695702194023522,0.7126584107332246,0.6989139022394353,0.6724382795889752,0.6335625254552997,0.6279218127667723,0.6514755374011392,0.7014544978919508,0.7312695641520297,0.720137564917199,0.6667634575993371,0.6103970111002677,0.6086784647534835,0.6773648201401112,0.7466393421354525,0.7894149636702421,0.8034824059500725,0.7145575961182824,0.5937500913068559,0.476818041782165,0.35154673430377503,0.23454254001092156,0.11786162895501628,0.055566134394779754,0.12207872499737715,0.2181171447875403,0.3310989843911798,0.4460621652737373,0.5614205060570314,0.6719227659891067,0.7594350615009842,0.805240266671936,0.8103070214034434,0.7850273594378865,0.7361160669594256,0.7055549251461333,0.7249628313966867,0.7689615886874379,0.7995216048070262,0.7899269331528695,0.7569433882085961,0.7048645639377424,0.6970401646136173,0.7594279379764441,0.8247335659087156,0.8568023781214826,0.8732849916235503,0.7791776967367912,0.655948969205443,0.539928770286946,0.41522460672795525,0.29787161789385297,0.18393400035799767,0.12763290289029516,0.20668244383181777,0.3215042680869138,0.43838963852007495,0.5536890037769933,0.6668885622281762,0.7656854473720589,0.8318065210642418,HB
0.9607703086725873,0.9772776877365937,0.8965805474283693,0.7904364749034273,0.67942729184421,0.5674888166179856,0.49658704892579075,0.5699858745875542,0.6864346578824002,0.8038707231723826,0.9109222741224864,0.9732761932263158,0.9444777697649663,0.8967276630278614,0.8161498849919547,0.7742264113612608,0.8294209986452558,0.8751788597298055,0.8892748904434599,0.8606353032852764,0.7986035988769872,0.7327176134576133,0.7477606424659055,0.8206480293736297,0.8899231424696367,0.9378551744463904,0.9659082826130522,0.9021333471800043,0.8000234361259083,0.7022286522294364,0.5889512828644018,0.5160936145072407,0.5875907202820522,0.7048578455845823,0.8175656674767756,0.9198254962467171,0.962060788427448,0.9295958254288929,0.880570506806431,0.7994913842778685,0.7502048569987908,0.79723627492922,0.8280067344856264,0.8471032365657342,0.8288062512389475,0.7696869532614398,0.7206735747137168,0.7484147065343453,0.8229310029447895,0.8816187320996812,0.9206268742644469,0.9073632430446655,0.8142032627830557,0.7051736219624484,0.5943238785687096,0.5605512189161345,0.6594109708816714,0.7700888036372647,0.8763332731260384,0.9570503032201126,0.9376467181886096,0.9028562855190082,0.8319884281243638,0.7577611905634446,0.7797000237267989,0.839299379034035,0.876854511875938,0.8969864915286686,0.8840675698807813,0.8237907879533407,0.7740885067282514,0.8034033014487253,0.8730837443953546,0.9354216814376678,0.974870827452902,1.0,0.9300044947789045,0.8242293690750954,0.7090852512228724,0.5923880633910265,0.5351310138821462,0.6214568445919565,0.7351250129690668,0.846485958236573,0.95010112052889,0.9932852315244486,0.9872586789680683,0.9521354873908253,0.874280392686786,0.8029964052390902,0.834078925739994,0.8701225493089885,0.8728493775494638,0.8402772985947778,0.7824672769962947,0.7254690153150297,0.7249203043094273,0.7955487549872683,0.8605954532477319,0.892098836626518,0.9031427637893304,0.8238585578839713,0.7296744214137968,0.639323836025307,0.5367363781118354,0.43254735513408804,0.34601321965718357,0.4040919816202516,0.5180226623742509,0.6297655890196309,0.7415337772400364,0.8476492593879928,0.9025889956536185,0.8529580403986247,0.7707513550411412,0.6627455668595011,0.5608695330044059,0.471053294261386,0.35688175573306957,0.2408854616156474,0.1293724887245361,0.018732314207407286,0.0,0.09611644634360617,0.20665947342367885,0.3225934148047268,0.4338167700498258,0.5361569672659309,0.6305920263319652,0.7268890527843209,0.8175363464635746,0.8575716164583181,0.8332542879591741,0.7883802631921596,0.7129565475794656,0.6649803000029556,0.6936863610321572,0.7578402503697127,0.8140076459929205,0.837058621253639,0.8259803459292446,0.7631343888194316,0.7369784747977627,0.8053623338213861,0.8927010887090482,0.9372181967832515,0.9035908128847349,0.8048468260779419,0.6931176549380395,0.5792599339408523,0.46673644081518784,0.35222188621121486,0.23653779939822683,0.13501566888669492,0.1411384743440527,0.2471756184507229,0.3599299796031946,0.4716138544943268,0.5854988332010621,0.6966187078889484,0.8088318292707516,0.9100770084706576,0.9292982105265503,0.8879204865371019,0.8208425286062014,0.7522651677460833,0.7374741335869431,0.7880847444095681,0.8431580080255029,0.8394106836461671,0.819533904509555,0.7735571197450605,0.701903574292504,0.6979031243191348,0.7754865927981539,0.8572139218361402,0.8871516121150068,0.8228388089011706,0.7138240709239735,0.6021997803637024,0.4856649313843243,0.37436005012309004,0.25791983743667235,0.14447792607604193,0.040997009482203084,0.042097566440545964,0.14529117506279599,0.25953546771469027,0.3717846414805245,0.486556367692924,0.5983433541775042,0.7101547809149978,0.8184245917113843,0.8800953979016363,0.8502808964286569,0.7906771296853542,0.7151262492231348,0.6756653715948117,0.7161706509268287,0.7757940550564256,0.8064771058321293,0.7911809626297978,0.7558815302172243,0.6924897899217463,0.7028205439733431,0.7888525823745484,0.8643550748831109,0.8999155792463326,0.8462486768687877,0.7383630283199941,0.6246614988865408,0.5134307480792412,0.39722712981846986,0.28551611225133244,0.17049325980765806,0.08864489167606837,0.1443350454002994,0.25533703496818283,0.36723942818934996,0.4803973734483967,0.5934825990328078,0.7054595293691929,0.8180363671165815,0.9029391119140581,0.891761326186658,0.836254001772056,0.7649686440684619,0.6999592418998904,0.7058239320953713,0.7711973606171695,0.833431161258677,0.8496352236715013,0.8219239992301232,0.7645679802305437,0.718770739020793,0.7756539240144124,0.8604641578394033,0.9056805087264074,0.8691114962134513,0.7654485301045891,0.6626118077138595,0.5687378008479894,0.46456017756734413,0.35013257499759287,0.2357213921209137,0.1312085708147318,0.1268093980344842,0.23000151014651482,0.34259441961487014,0.4539086870177237,0.5683425255139768,0.6792704286166596,0.7901504876749265,0.8914114478978289,0.9111400239996584,HB
0.8680443814778367,0.9612127986037189,1.0,0.9149089509704291,0.806474821821074,0.6875856407173719,0.5832182542478166,0.5816461259418855,0.6817435140493329,0.7593139097751509,0.7313556106664434,0.650907383756429,0.6239161976419432,0.6142197181753541,0.5872983860093979,0.55469749518043,0.5469499810802922,0.5843520901872199,0.5892863312580352,0.5769673729153135,0.5744524774820494,0.5404379762136533,0.5113193933060058,0.49005424337950876,0.5087001992115585,0.5278210243882553,0.5439114134868985,0.5495452896460815,0.6145268501278283,0.7032528531360578,0.6851288024300568,0.5898738552984981,0.5716161004336588,0.6653954915097944,0.7105544182087762,0.645741108281511,0.564337016458778,0.5142277494682528,0.4715963931351488,0.46974415032892036,0.4700176473256086,0.4605199432998126,0.4713995539153002,0.528608161016435,0.6217572228881902,0.7233968205286332,0.8319859033961778,0.9088164576911733,0.8653727182680906,0.7589785744233617,0.6489477314391126,0.5340421456423621,0.442119826801298,0.49940475787351524,0.5583465974200852,0.5403933880252363,0.5514932215848432,0.5461831488890185,0.5588819396488032,0.5606968446711931,0.5506587938272482,0.5743402457076896,0.6088927578183148,0.6375009881975706,0.6052567569779055,0.5965124802010493,0.5993174239996262,0.5848905675266627,0.5431153580172468,0.4694055043069487,0.3707057145007946,0.2796874044639708,0.3085699096336074,0.4185259635339884,0.5156204808753388,0.6142215276564409,0.718221290375094,0.7799182279680714,0.7325534113384675,0.6698667110449339,0.6419589110677744,0.5868440885467012,0.5893298509734914,0.6341064284256333,0.6586100398452102,0.6591096925963797,0.6490949375189339,0.6066831697723503,0.562907094212318,0.6282791273233927,0.7368687267192304,0.8287528529556987,0.8205383950440495,0.7251078289459327,0.6464458063025376,0.6347272478559653,0.6346774684193779,0.6372076382704006,0.6458909141067459,0.671344610567012,0.7004934876503488,0.7508535774327343,0.8523210546916129,0.9493826428484891,0.981895462975483,0.897751860545704,0.7851721184154674,0.6763886100455427,0.5888222797018496,0.6481735303411891,0.7393822131344239,0.7522765805141605,0.6925585645337651,0.6654136382106053,0.628293905197491,0.636788521515188,0.6468555135549301,0.6250959786423569,0.6117944822923378,0.6149708152238156,0.6198473432436713,0.6252353283041541,0.5855934423990776,0.55132219962944,0.5128790152686102,0.538591710844623,0.5692898086558738,0.5470821503040972,0.5605524224525134,0.5547507912413048,0.5753189791894662,0.6001329158495956,0.5838803364525864,0.5717329188242237,0.6025817112428586,0.6323397428710704,0.6392675215678869,0.5708134664113045,0.4843426847001031,0.37335513766106354,0.26507342326712635,0.1691406229211263,0.18871947376439513,0.2921483724653995,0.41216353871377187,0.5326572677279935,0.6450018645188922,0.7241531721255399,0.6852724197489946,0.6553446921503574,0.6193697530484177,0.5916074615819809,0.5903037388914596,0.5906148677859102,0.5862236927493298,0.5801599118842589,0.5927613505808798,0.6427967024520589,0.5823524755232778,0.4725772975363003,0.37608803444237626,0.3623584979660488,0.4479883215987188,0.536943256529725,0.5889580224327964,0.6084713466136455,0.6084245856248054,0.5744749252375736,0.5357072288620621,0.5393138761990017,0.5829327412391576,0.6086546544021916,0.6268641198851461,0.5483951940996961,0.43305610586674703,0.3243857605310829,0.20913326144470457,0.1004339620677892,0.0012368078481279632,0.0,0.09787730180731158,0.20586199343804346,0.31227069039345734,0.41410071626191547,0.4959133933039057,0.5279445741258599,0.5352848302515274,0.5343467649254188,0.5309079792140836,0.5543362073287503,0.5311783906759171,0.5056406226366414,0.485253214625716,0.46997500960478256,0.48189651364716823,0.4633337450271173,0.48162693611986507,0.4806311783295101,0.4693323453070848,0.4654447689364396,0.3694078086852324,0.25996063843141837,0.15151819766210384,0.04781557564612404,0.057048473924413035,0.1614297555845421,0.27729635450025025,0.38693559247636866,0.49707356568729333,0.588459281842125,0.5955981131637382,0.5156542016405936,0.44597315763530343,0.39725233476043087,0.4046598858164616,0.4098857980521009,0.42107346578910754,0.41373887285786504,0.4465947510916761,0.493562213776368,0.522027057231464,0.44848155401062284,0.34584316509897617,0.3077675625188703,0.38561148893105424,0.4899880653463202,0.5410559497164407,0.49284227606524533,0.4927863050082686,0.4777338930815853,0.44914731183991696,0.4387443155878392,0.46391874173080394,0.4879045183252395,0.5260096779787395,0.5333097745099891,0.5403493505809802,0.5111064961831349,0.5019909200698445,0.5154587716963195,0.544153977278869,0.5665062139741512,0.580922088061842,0.6002137547819255,0.5328228739595797,0.425239746158379,0.30976181520293133,0.21212106168406963,0.20989044989938366,0.3107145830529645,0.42039817453361383,0.5403874252911764,0.6601737426200573,0.7260900535664869,0.6635083196469926,HB
0.8856241667028524,0.7603533205202906,0.6294529701340275,0.5639378363265797,0.6564202464902986,0.7528587726694123,0.7992017571099814,0.7916979918727471,0.7718121270587761,0.7022795441306307,0.6313908283077834,0.6055517062211453,0.6661174326476806,0.7145946958369862,0.6888929941718582,0.6480806872438079,0.6837035797630007,0.7391839216570362,0.768315610429148,0.7824395999391291,0.7866558947383813,0.8193327477860368,0.9113222506443153,0.9360641432120307,0.8452976889937123,0.7264887366721817,0.5856459726930803,0.536126029501816,0.644070106505231,0.7392179020168128,0.7909822580324684,0.7713261377258518,0.7650693486112257,0.7182673385592735,0.6428335656560336,0.6025946402092117,0.6486319504065441,0.7122836004179436,0.694334903097376,0.6557395194454343,0.6250621485590768,0.6598629716065503,0.7145639803119832,0.755916242688492,0.737324243376559,0.7627278543918985,0.7865056119643437,0.8277224272517238,0.8300073405694719,0.7407229721866826,0.6070375905689263,0.47513305929956173,0.4202669324574497,0.5342792239722525,0.6686067835734857,0.764517051930321,0.7989955650471359,0.806951390778448,0.808306568628633,0.7454926236015846,0.6690841075237737,0.636943133043248,0.6880390430255439,0.7246641541549805,0.7018396824892927,0.6711662753499801,0.7147798058711565,0.7527971421174326,0.7812734524870031,0.7901959186454897,0.7962585268206879,0.8474680959642007,0.9449699214477456,0.9786392620606157,0.8720390533795825,0.7304714691979184,0.5953129157406329,0.4670484125315091,0.5019483241237288,0.6360654147175109,0.7556551375446534,0.8132763727331214,0.824594277384874,0.8173720118905705,0.7755182914543091,0.7053031006469861,0.6417093297703014,0.6729930652432605,0.7255687868948444,0.7271470140875582,0.674643751130195,0.6438333603172053,0.6821503070370238,0.7245460400817101,0.7517410975452865,0.7809065815946306,0.7826159993939035,0.7924953733580193,0.8607391089843959,0.9778550974474784,1.0,0.8868497397199668,0.7543525654530479,0.6296880919604022,0.5325187775843867,0.6075658275598452,0.7043828359726088,0.7827929649966605,0.7919764554205404,0.7601651958579301,0.7173192402786852,0.63415311555503,0.5970294984668003,0.6470259282290485,0.6887962554148008,0.6935914474870182,0.6518921577504551,0.6782818152143775,0.7275640840797091,0.757467323102559,0.7234316674265169,0.6166282605239357,0.5171872142698324,0.49107870265436837,0.41497391807016326,0.2770899978409438,0.1478820893726942,0.12572229971174176,0.2262469414972732,0.3641529938839474,0.4289955173350899,0.4622078696461398,0.45439594269649364,0.39562612444652956,0.3844990613303425,0.43794166816079594,0.5102485764760254,0.5433297174998191,0.5571458219129122,0.5468206645260838,0.4877309097718969,0.3560511695895965,0.21925964375679774,0.09497235965782025,0.10007439977628829,0.22503906277613916,0.36110974467346013,0.5021323183023827,0.6354598060932442,0.6554049736699095,0.5719891818932918,0.5413640222195175,0.5539770045896084,0.5310133527021765,0.5110148762608695,0.4736354352515493,0.43092909709592364,0.43397725046361213,0.4871839333230019,0.5078442085397632,0.4545750152763457,0.4326646642207015,0.4931489143438563,0.5624025063535578,0.6067507967563457,0.603417808417849,0.57351735229983,0.47336435405890587,0.34692204729263887,0.22968005686746995,0.22729221018901447,0.33637303692831866,0.47577419851574154,0.6100387349263068,0.6660119841012211,0.5932491795498351,0.5509139374828287,0.5407825837850941,0.539887913829733,0.53411650743781,0.49635609871467956,0.4649084376473507,0.4676889006622007,0.5033516517621583,0.4761808490380952,0.4155487151263628,0.43735247578988456,0.515710193639928,0.5777142521501601,0.5691109771012353,0.5758872542974633,0.5246566185393426,0.38922097396265043,0.2560200884385071,0.12275812564881505,0.0,0.008188358533245843,0.13033161341525945,0.2714171002175103,0.41666010495847106,0.5501825713790778,0.6508159736689412,0.591136629205081,0.5297746945666,0.5078522391694982,0.4858851832001516,0.49062807451631674,0.4547064297909733,0.4039063556057725,0.41822223434661554,0.4374773858490064,0.4741316222700842,0.4396304795013939,0.40967203347780545,0.45032943648141055,0.5135009327496238,0.556808290742064,0.5736010327499774,0.5538560945474731,0.4560705043052087,0.33113481679963197,0.18584857313792114,0.0762921405983712,0.13379499980945342,0.2724537691797728,0.4079322818365503,0.5553386742174138,0.695015873420167,0.7381031201526631,0.6444084061111566,0.5565295693204071,0.5411761070088952,0.5359301312484863,0.5448495484925315,0.5057306786972262,0.44954653379979215,0.4105636183517807,0.43693148323523356,0.4801018535050585,0.44529744443850916,0.4085637753952249,0.40255813937644813,0.47386985183494845,0.5471460898043721,0.5759583091904164,0.5899641799561559,0.5700673052348644,0.4842534476429021,0.35325290033546297,0.20931891829482563,0.07404678880712723,0.027029175551629425,0.1381548631136833,0.27210144440267436,0.40512376486974144,HB
0.8274046688227319,0.7833627873581079,0.9107219482198934,0.9599612498626149,0.8659947598960902,0.7404997455143456,0.5775203474061379,0.41186113788500833,0.29797104213166214,0.38944226244261326,0.5414757940418684,0.6558619988657179,0.6580792817430119,0.6161087152705695,0.6959619985498291,0.7923371503657468,0.8721024961712196,0.933785299094942,0.9771079417395034,0.9323480818189305,0.8066046606745045,0.858316104969453,1.0000000000000004,0.9787992425713803,0.8689663269529952,0.7778125790032386,0.6284362906056913,0.46322757127452574,0.3382176329997004,0.4092698820107228,0.5556806405219223,0.6633001904713716,0.637356221432968,0.5998261254152082,0.6783375394604638,0.7767887923019265,0.8538846511631082,0.9104231779428842,0.956198097928251,0.9362383845670998,0.8069666008118856,0.8565698721262676,0.9892571290434664,0.9456700475305095,0.8369781959023035,0.7127509335741644,0.5515896206750805,0.40006480006038325,0.3707346859965077,0.5030236025209094,0.6373580946416286,0.6407082352888405,0.6107946820961829,0.6666517487997403,0.7619489519416427,0.8288360025931789,0.8997601698075681,0.9542231136145838,0.9237183411123517,0.7756139133258295,0.6667167603920658,0.7632363023889495,0.8849898324649397,0.8638891463964335,0.7566394027958112,0.6078569684950259,0.445219601146551,0.3520491145341449,0.4630063795593511,0.5884336460259245,0.6403671201590844,0.6060537780588531,0.5646598611103708,0.6329673572906565,0.7348131887246252,0.7817385175406275,0.8286202215097647,0.8273105812722643,0.6824389588609843,0.5096527923241339,0.3731122817426633,0.45021880924858015,0.6234092098158945,0.7799011820275186,0.7824005117957609,0.6800404326414449,0.5376328330997988,0.38870469197581947,0.3355929716449362,0.46482761696718633,0.5857074856648863,0.6035894550566296,0.5940563353974895,0.5795914785610461,0.655548673161432,0.7566837429163895,0.792590322543838,0.83529868367334,0.8629610404799681,0.7664110917890956,0.6161512031612482,0.500689062705459,0.6005773352729915,0.7617764706994654,0.806518328734743,0.7186914208656834,0.5797235576691624,0.44084154434675904,0.46052553975342914,0.6081043022822592,0.7203208978747226,0.7203810562396069,0.7129821837192285,0.7952193474952218,0.8717420548482435,0.8499047158807995,0.7717771618164027,0.7738495700707775,0.7081720257118507,0.6384880245783457,0.5439116145502219,0.5533602451622284,0.5522918107075974,0.4314482281736165,0.27968381519738417,0.1993623584956037,0.3039780096703186,0.4452269347133293,0.6043723965010268,0.6752086837419027,0.5753644084361289,0.39412500424881136,0.21733467094444903,0.04508392930075056,0.01871037533107467,0.16966544565853692,0.3508250691535766,0.5209128261040239,0.6617836428513009,0.701679939752224,0.6346196895172831,0.5271421298239347,0.5605679030106492,0.5171661894385386,0.42995974933427084,0.35188850858877174,0.3681281310522171,0.4416023534171063,0.4371511132349837,0.3285222062865989,0.1967322015901174,0.17667517999253368,0.304178984625469,0.4527532191277128,0.5872015863221467,0.5751660839156227,0.4859142035949193,0.3203967431546677,0.13700057510830943,0.0,0.05658146248047036,0.22183986094607944,0.4012363365333673,0.5761308130625826,0.6984971238964697,0.6933662566566539,0.6739653489529744,0.6310054078873186,0.5636586121771314,0.48706882591137957,0.4526126863599935,0.516482192194931,0.507551595084347,0.3813719655276029,0.24799275264865184,0.2664527454977943,0.39857047725441186,0.5585339912816139,0.7109852479857905,0.7563677091185017,0.6193292912055188,0.44592599974356917,0.3055931984904632,0.36195770630059476,0.5257809854173479,0.6963731288187889,0.8380120958218784,0.8399729816836627,0.768970625328556,0.7404473908024443,0.6542885842650379,0.5645139577615095,0.5271480798828923,0.5713091528562626,0.5144486889467155,0.35931555544274785,0.22708639964657262,0.24724065256939687,0.3914448165056661,0.5574728826121924,0.7090661154373485,0.8066078389854834,0.7888148289592314,0.6145993814447377,0.42944265825509254,0.2973012334223726,0.3664311825806945,0.5365024323782444,0.709672893759254,0.8367690991507732,0.8295943512692538,0.7714787204593132,0.6875805980304905,0.5818137724207277,0.52276026900712,0.5630144381576971,0.5172082892404695,0.3742585411166721,0.23494330871795555,0.21205894081782084,0.3413489688780458,0.49789170322746035,0.6544558744667026,0.7759564447403746,0.7942918413178739,0.6470392185726377,0.4645789616207914,0.2965960258318008,0.252992320670828,0.3977121915420656,0.576415009398934,0.7532546736910826,0.8819269859351593,0.8570853576024602,0.8063630659380312,0.7336257365838996,0.6396086088408786,0.546633663759565,0.557141200490507,0.5464982908024609,0.4116409362602176,0.26412968514527035,0.20872881909661478,0.3197876220722975,0.48028153069597757,0.6498092702262692,0.7902487978859436,0.7658753854384424,0.6042811933723979,0.4241783426272221,0.2566322380584922,0.22807592467464444,0.38072891613673443,0.560241476072072,0.7199777388279474,HB
0.6887382855103377,0.6989455942406033,0.7516239972333707,0.78973791634551,0.8089561314096734,0.813430461115314,0.8292705205984368,0.8423870419081092,0.8792536166002438,0.8555609065544603,0.8076536681922117,0.7925048463360447,0.8111818454269131,0.8057953022702036,0.7638829014682009,0.6862000802711468,0.5908237125662572,0.488685267232442,0.4652596739360497,0.5635342250338964,0.6797590598637526,0.7932496788872558,0.9043848670380916,0.9831691246748682,0.9404212379634467,0.8952607744325565,0.8637595430821341,0.7921624698118401,0.7326141563894428,0.7796395508173426,0.8188939730683547,0.8356234444562618,0.8512060306630549,0.8471005165676939,0.8595540475774326,0.891024084114844,0.9137678017537587,0.8720587818577952,0.8344492075007042,0.8228616788000214,0.8185852622344247,0.8122540779700393,0.7641942853660979,0.6845973263509666,0.5897165700904734,0.4853611835264382,0.4633942332090555,0.5686261340190011,0.6792318963166555,0.7950032012005523,0.9031645454865946,0.9615007643745261,0.9040563279522547,0.8655730826982058,0.8218901626553061,0.7471765626507774,0.7216138054488226,0.7677966235344249,0.7874431419864949,0.8036056797690232,0.7910515513923475,0.7932269275916293,0.7929505438855189,0.8315818784333586,0.8464170607744574,0.8176610115502274,0.8029877640651473,0.8134680658549367,0.8250375559204144,0.7882977282904002,0.6946713420385386,0.5947734605280626,0.48846549316674337,0.4121644921943701,0.48678132599746915,0.6051288969435695,0.7154413962016906,0.8320674310262184,0.9398483617794031,1.0000000000000002,0.9381752034893649,0.8822190251008555,0.8585714836405531,0.790530937036926,0.7326807798993873,0.781536322704768,0.8287113916496309,0.8376195898768517,0.8535991585369354,0.8476441553168785,0.8394224373368282,0.871417826132957,0.8742636931891081,0.8532212017811249,0.8321287732808866,0.8496917448273849,0.8353614528279831,0.7758581490726522,0.678975373561918,0.571914557085347,0.5057050599725814,0.5813895262063202,0.6992917085047734,0.8111088668408526,0.9234172734129211,0.9925436619327208,0.9503294784311509,0.928314693168274,0.9073905584772646,0.8486813177225112,0.7728309108078089,0.784186972868931,0.8380969047624622,0.8764224404652545,0.9009134342012695,0.9093121885554576,0.9023855907175953,0.8562094684330719,0.8334477019323854,0.8107553601912503,0.7658943620361136,0.7166693809901818,0.6798111649613714,0.7327544579419929,0.8127898505800741,0.8386645534717878,0.8727821155643058,0.8230405327398918,0.7143461613622917,0.5975801480034761,0.4790393229526939,0.3688855535530402,0.2507063973799719,0.1345455292310973,0.028521525154210803,0.0,0.09950455682752746,0.21950997445986475,0.33794052388174056,0.4479086247277215,0.5586819792159161,0.6571892476810157,0.7422845301960768,0.7807979276423727,0.774795636384116,0.772126828262236,0.7855182504321199,0.7995697459990307,0.7766628419173183,0.7690970890571285,0.7794335126780194,0.769536385958842,0.753547465407858,0.7031879149763578,0.6624523688853257,0.7028383983623001,0.7787706896541631,0.8005907114034259,0.822022311934506,0.7786054943711627,0.6624556407785616,0.5507534785537327,0.4352398824649113,0.31958925411470807,0.20804771635809183,0.09261847004088586,0.0016165982910549825,0.02907223261438152,0.1402162950578687,0.25041425008184826,0.36757872563428284,0.4784851143685238,0.5934108782305072,0.6970333862249698,0.750462916980325,0.7350267550595431,0.7346272605637265,0.7452831765196464,0.7505389418778987,0.7692590458135793,0.7258664018703198,0.7128793624485932,0.7261352579352243,0.6940779486599304,0.7069785956286412,0.7147172941613877,0.6974378184685153,0.6544094807499576,0.6234344445722526,0.6841165442953672,0.7591854683614698,0.7844540435413851,0.8019787806312271,0.7553863897022628,0.6411922373347994,0.5302533325713121,0.4113806823316515,0.30016024959359067,0.1845095421366194,0.07543863586660082,0.022659602606649676,0.10134836227217403,0.21524374323077833,0.32686529601769965,0.4382649927649567,0.5475719079373824,0.650438858191354,0.7231291971194775,0.7423745624400537,0.7340370338031199,0.748916427967006,0.7848614589813427,0.8126793626470972,0.8042931046972217,0.7853015519462849,0.7766750537929814,0.7678691316006427,0.7625874827692172,0.7678770599462246,0.7313619181274433,0.6708998017465102,0.6672447524850316,0.7342380020338786,0.8014584537138678,0.8332637874803941,0.7834734157558241,0.675818415608205,0.5568012316833058,0.4424287203645605,0.32969824226281785,0.21286150238924995,0.10245748809669886,0.003731010784726818,0.02572194768858793,0.12588623826462064,0.2237826180480278,0.33234551250262423,0.4454846556359968,0.553516479351692,0.656600420908598,0.7295758162282413,0.7375826093903604,0.7150879546442728,0.7179220078985835,0.7428006035467922,0.7888565409707928,0.7858239127881828,0.7515300009750818,0.7425544576136802,0.7135693526074383,0.7282290409611278,0.7160136642076849,0.6777888159417087,0.6423530206640595,0.6093590514634257,HB
0.8460965421824695,0.8134317757643938,0.7474244555778469,0.7560338984641313,0.842226294452207,0.9145970084025448,0.9621173021591318,0.9683937424025475,0.8985206581738703,0.7790112605570492,0.6438600573600717,0.5062098545471219,0.4035077487073908,0.3688991752138169,0.4905539758848183,0.6350909746147939,0.771430418446472,0.8853707861256346,0.9434032604727995,0.9031885738229788,0.8412124710943176,0.8652194546821586,0.9424742351560156,0.9637429970559988,0.9320884945809149,0.8949332476434113,0.8225753134537375,0.7316137520597408,0.7306000319770127,0.8122123492866742,0.8935571670703093,0.9476005605701732,0.9593271489837487,0.9047319328420358,0.7846762912456711,0.6487644933391754,0.5105276264634784,0.3717523946453569,0.3275558412277324,0.45520954304947936,0.6043820005622551,0.7473064904469318,0.854499268863776,0.94775773960283,0.9451059707766236,0.8737700218804123,0.8348814404410827,0.890696145317275,0.9510498351632293,0.940554756952735,0.9102969323134678,0.8822613966740944,0.793298673365318,0.7257362644302201,0.7704499533498914,0.8600907478024598,0.9434882358809398,0.9881819060581443,0.987929612270807,0.9241177830432454,0.8110859691165679,0.6784180424247748,0.5392709701999128,0.3906959885739758,0.2690288250125672,0.3271871142997307,0.4632049431359888,0.6086172942343742,0.7428401257117498,0.8455064302046742,0.8912588210854218,0.8343052228566143,0.7598756362700481,0.7615661755447516,0.8401706609077972,0.8605404790409874,0.8526832905134809,0.851598010610559,0.8032259384297589,0.7492117559566023,0.7887281063087335,0.8710819203602009,0.9369923075985993,0.960810055719753,0.9602387220333226,0.8711305084675016,0.7388927717538494,0.5910073648014278,0.45165723512066447,0.310460114016035,0.26752732503930443,0.39560573791249687,0.5393680314897586,0.6777090906050554,0.801076270688841,0.9002334154704108,0.9390914627229285,0.8925633261464656,0.8566094966664657,0.9256314213003625,0.9534829312115483,0.929533452815025,0.9182001434465679,0.8672834509039979,0.7920163708500303,0.7431506886762966,0.8025778067091818,0.8889956031196176,0.9555680428532634,0.9974245753173887,0.9999999999999998,0.9196696943794687,0.7933330181104725,0.7138705839222912,0.8012337624156911,0.9030299994681739,0.9242935488508637,0.8524819429795978,0.7464606217292917,0.6510594486506538,0.5216763230463022,0.4106020886268029,0.3156977545019577,0.17990074897832753,0.05652003233843961,0.025074216810106797,0.13048423445971435,0.27665346119869705,0.4031641156614698,0.5305942952361302,0.6687865541608888,0.8053842721802844,0.9069318740949461,0.9233919271962627,0.8662891202780141,0.7813614545073866,0.6927977271094339,0.6409684357064631,0.703620583563836,0.7816384284165181,0.841051729511969,0.8610856502126494,0.8482190147826232,0.8341564491475688,0.777900007891249,0.8038348848508396,0.8778132256228799,0.8483736469346448,0.7424479334178289,0.6090105052774695,0.46736816306164575,0.32590222097339017,0.18368412335275308,0.05597913031569335,0.0346703237838466,0.15523501028323938,0.29495730782782226,0.43618317857210065,0.5769794262638703,0.714310131296173,0.84227656707707,0.9023499508760768,0.8830801964093042,0.8055857057124449,0.7223546241216436,0.6748395721289613,0.7149918569877742,0.7843408109325176,0.7958159894427281,0.8022079995755618,0.7799284866204814,0.7061435280384403,0.6541040969957777,0.7139224105338264,0.7898362931026386,0.8142228222659174,0.7284647732196394,0.6005232948635746,0.45662471025247275,0.31684568858328466,0.17440588456340822,0.042179454866617894,0.0,0.10098701611180982,0.2226163599761335,0.35837642095237654,0.5043267963105562,0.6422148578136373,0.779382643938346,0.89249665335842,0.9320450250555725,0.8981979946284084,0.8147137874309645,0.7236976564740198,0.6597635248501914,0.6978462924060864,0.7855733245340051,0.8460828271523939,0.8855632927011701,0.8690403135308629,0.7995670146810208,0.7332650033628341,0.7727295683303901,0.8544344435327911,0.8741457466931839,0.7842157166471313,0.6624251177240763,0.5197465703180495,0.37993843299548513,0.23483170510401497,0.09927442184536583,0.009981163614258382,0.08246629348134937,0.21661744471114752,0.35868187200029955,0.49770559636122536,0.6360617220017597,0.7707536407224278,0.8732621623897281,0.8958605158762045,0.8499151643040788,0.7694323331678483,0.6833753703467604,0.6457153346980673,0.7100814838694374,0.7966139295649943,0.8570651014077393,0.8977498250306344,0.87103669761044,0.7919732493757785,0.7252678281319695,0.7533234760382592,0.8425982255208735,0.8769816784278921,0.8022597143862666,0.6767969642235265,0.5382679809710689,0.3941174510180965,0.2544647357663914,0.11364603382662897,0.05131211767684074,0.1470238854131174,0.28734327667283655,0.4270773981317626,0.5678306577582475,0.7052907160269608,0.8360462862355538,0.9144162063230798,0.8958900445785021,0.8358071917888499,0.7550219709211887,0.6813682516317938,0.6960259246748011,0.7642424002732524,0.7979509891316916,HB
0.8223998263046526,0.8743764270055596,0.9117949037653403,0.9328868732509235,0.9236706394965601,0.854572541923134,0.7515668800914459,0.644758194386438,0.5533395859613897,0.4543670502064385,0.47904453883549736,0.5910707335721332,0.6993830548905495,0.8096015077622369,0.9174762971347721,0.9780530518250758,0.9511893137358785,0.8966784982057301,0.8261867149806923,0.80790255604043,0.8531217685218118,0.8835331653194358,0.8817852452353265,0.8807484982275247,0.8767287575960703,0.8390064956241061,0.802240791135465,0.8256162407965655,0.8740914391461461,0.9207648849185044,0.948547360073102,0.9572997974108954,0.891923844871831,0.7866817650162483,0.6762264089597141,0.5662909408265571,0.4592045821844475,0.4309480064658784,0.5331830793050207,0.6451584976370897,0.7549149076639106,0.860942120077584,0.959678320579227,1.0,0.963854320150002,0.9030302962877723,0.8389942962179076,0.8269171061667047,0.8783929395227421,0.8964022098305575,0.8964914406776465,0.9014802920931766,0.8740354295060513,0.824863284910573,0.7842018845174623,0.8095633949426788,0.8591849308694939,0.9005963207605752,0.924638761064132,0.9124259029189079,0.8432862037690168,0.7413130715571572,0.6299972183690166,0.5201329187858681,0.4087842828160104,0.3770614493060336,0.4770681433541033,0.5947757303293608,0.7118454795708757,0.8200733059292045,0.9190552746022846,0.9628687133675711,0.9209051516126419,0.8704003045152313,0.8080621475924508,0.7983234974503164,0.8524914993507879,0.874339142705022,0.8788360387380107,0.8788892663089118,0.8618574806309898,0.8168620096095127,0.8117753255288065,0.8535550653045054,0.9070463028746074,0.9484765138147657,0.9724151598652817,0.9563649064867739,0.8656550426436032,0.7590205363902056,0.6465193426946465,0.5376929978950762,0.4337462134805883,0.45386651957331714,0.5611966968663753,0.6739036718754516,0.783222722140716,0.8904095116975124,0.9784268205544406,0.9857879474690372,0.9451773005127868,0.8738567652560443,0.8307547389495316,0.8625853183398737,0.9039280257666351,0.8954489420741134,0.8890735788188162,0.8806510303651849,0.846668293580326,0.795510281895301,0.7792334401620327,0.8096224591935703,0.7682581280583878,0.6854848030377128,0.5742281578772928,0.5121109844884681,0.5566716255273252,0.6655179329609426,0.7158756746846677,0.6326332535683981,0.5323524320175239,0.5158962148140029,0.5951035688617696,0.7032241596323401,0.7743175965786184,0.8190739719531219,0.8420138769688887,0.844589409985816,0.8497977750690926,0.8441588779675171,0.7912882558436771,0.7773265736623203,0.8213959844403935,0.8954560071272764,0.9338423354536238,0.8759635051750427,0.7708412948811247,0.6614810488495151,0.5504013911521242,0.43804227273588214,0.32743314768256404,0.2117611791734617,0.10494615431440146,0.04102958021877612,0.10801128718496567,0.21684197320389065,0.3278701750132158,0.4396327086790486,0.5572657159360221,0.6745014753576923,0.783860748640393,0.8887054925649323,0.9362230635333599,0.9152685154588753,0.8719478168868258,0.8184869076302812,0.7759939442559167,0.7670782729349979,0.8097576403435647,0.8430386505862666,0.8381092527774214,0.8346887855084542,0.8014455443553734,0.7434107997775847,0.7432250996901955,0.792682111654436,0.8558553456642324,0.8777553792662554,0.8042780485963363,0.6978119978271373,0.5831467862449646,0.47457651011482116,0.3601000106418841,0.251311622490374,0.13805232429937986,0.033251817565552066,0.0,0.09037922286451883,0.201121950841187,0.3157655973020588,0.42305304475436434,0.520930225330303,0.6226060280947694,0.7324933967473508,0.834082635894136,0.8807510882922926,0.8556786741245683,0.8123841768678801,0.7630549558489914,0.7375477290101038,0.7658474740550014,0.820744605427183,0.8503972783097744,0.8516622240072138,0.8541087476975533,0.8415384995705648,0.7880791699684337,0.7764177957704734,0.8280040113639564,0.8956955542330918,0.9327831602280421,0.867160968269213,0.7634720732311697,0.6491451913152906,0.5390946404884915,0.425953770701331,0.3120967595967208,0.2028272017510182,0.09430403029539303,0.04070451737988856,0.10186709782965142,0.2006241665335331,0.3157120371138291,0.43348135072690863,0.5506236298119478,0.6598106373508001,0.7693310195981371,0.8720296828666347,0.9165127150081007,0.8935635412105443,0.8492916872964265,0.7985381521205084,0.7601993609677482,0.7664593454826942,0.8159765157893943,0.8456821209325462,0.8487746378199605,0.8445139144668503,0.8027186708194134,0.7582331687148516,0.7702738205612478,0.8295546241082201,0.8948051923989713,0.8750900746800387,0.7792555209235195,0.6693491413813413,0.5610265781051527,0.44473118991245064,0.3269522824367459,0.20925064289236484,0.09668802656473297,0.008890080117727184,0.037636846510744615,0.14184429126919817,0.25636128809781167,0.36490936684910547,0.48100622441841834,0.59060790049636,0.702781929381473,0.8086892414369027,0.8827315953125918,0.8860341361219777,0.8601449899421891,0.8149481579892432,0.7672272694044251,HB
0.6307625686055132,0.5601528250140388,0.4694810841018642,0.3633542963440741,0.3244547938031921,0.4343653745601799,0.557863507784881,0.6880966930715209,0.8205811266627552,0.9242832840568469,0.8927208004388087,0.781856941819751,0.6914125363495378,0.6344040575997565,0.5647929176366295,0.5592431947951639,0.6178996360814875,0.6345309762329534,0.6547470012894525,0.7275381228661062,0.8247813921410683,0.9208520481220348,0.9313107689911204,0.847611357833693,0.7611647480158537,0.6988600326523899,0.6678593944916273,0.6027143119579668,0.512432237588949,0.4071363103591006,0.39896607725339717,0.4960858255796867,0.6240942590919731,0.7508756696669749,0.8721195305252047,0.9271018532940802,0.8406194933762974,0.7358045201209786,0.6789186555308824,0.6112035886714051,0.5654631413578661,0.6108893389294647,0.6552315890199956,0.670584809716547,0.7289467543196602,0.8219729154288258,0.8960146324642762,0.8628912105410316,0.7749429582564487,0.6916970736061918,0.6441600478898017,0.6159150041749162,0.5387513568497408,0.4378170901363194,0.3530000012671839,0.4284845665109269,0.5540713620592777,0.6803617973201197,0.8052198596060052,0.8980304093565814,0.8487253418498812,0.7443187909377489,0.6878350488369893,0.6238007120135247,0.5760038056926646,0.627882936367774,0.6839721479773777,0.7204981770563301,0.7561718038992016,0.8344452205794388,0.9216520143938465,0.9600818970205744,0.8962513150201459,0.8080192983525389,0.7376545245695341,0.703279020367825,0.6532817093627874,0.562472430201578,0.4548401510987725,0.3961633501682078,0.4970175928000966,0.621172595374861,0.7500412984888123,0.8772886856441628,0.9834488761519551,0.963315015991637,0.8509396173439732,0.7525993264812914,0.7026555725715347,0.6320190615215524,0.6239186495770177,0.6883323797658485,0.7084921218255555,0.7405335690712986,0.8161330873096162,0.9064732498181072,0.9814277282360551,0.9592921747525045,0.871898378716196,0.7842485951239144,0.7235151844700987,0.6971671916841373,0.636714761421656,0.5554801818030111,0.445848129995414,0.3716389576920516,0.45984779105903506,0.5806736089189517,0.6892001860747388,0.8117582452731336,0.9325011894227502,0.9826356447224232,0.8954121353542477,0.781890951955138,0.7247556237214456,0.6563161639514994,0.6121769957178373,0.6696257906496297,0.7156324408078274,0.7324853565002072,0.7837287617769029,0.87431148342628,0.9681823702618302,1.0,0.9302168625870655,0.8973776603696866,0.9309182898259745,0.8577321939304747,0.7688711861459305,0.705312334585634,0.6803077858372415,0.6395141178436305,0.5624573398341504,0.5501818196689539,0.6120746163685018,0.6851895511196417,0.7349929572320413,0.7344865264751665,0.6157479082042054,0.4875302798766543,0.36262264385716536,0.23474495807113227,0.12120571447923978,0.11282987359879071,0.2263264472449229,0.34747747262787954,0.46438582179076415,0.5677787711228173,0.6476824719210432,0.6791640057615598,0.7269411562274009,0.8040810879964688,0.8910620956264506,0.9002774438546863,0.8168578691717805,0.7377496475209115,0.6793055546828053,0.6608860940573793,0.6166842065555547,0.5535427057848237,0.5709973602693177,0.6475626872194975,0.7006120690995861,0.7502662737729935,0.67888625186901,0.5520187382223658,0.42711286982647745,0.30152766508502893,0.17900926791812322,0.1194836423126786,0.20410733925755453,0.3264639099794877,0.4511128849441013,0.5520750208464662,0.6326079333317831,0.6761641212650935,0.7189482555443982,0.7941140005842184,0.8769685536265608,0.8688202229753075,0.7826819092026991,0.7113006868036615,0.6745382047274417,0.6318968615559193,0.5648759769278757,0.5136979632598395,0.5491529736880518,0.6228251515247591,0.6657547759954543,0.670736144243202,0.560553170554408,0.4368336777430526,0.30577794068571484,0.18226585385132177,0.05821964405162494,0.0,0.08373793650801709,0.2058817636111725,0.3278150697342601,0.44690729307460053,0.5439178035179482,0.5947907747523122,0.6255628835629534,0.6929102234322948,0.7776187440105056,0.8260405529777239,0.7524398641935055,0.6660720757729619,0.6251558296736119,0.6128868966486696,0.5664526508548042,0.512269008315712,0.5368708557186403,0.6094835777088456,0.6650671370624828,0.697998026222975,0.6185800212673223,0.4886366632532346,0.35559744306486585,0.22427245334030999,0.10245805545452091,0.026083755766918237,0.09622286870745178,0.21693586411151222,0.3378833277561981,0.45460272366816445,0.5563872063699007,0.6263618241022164,0.6514795142401701,0.6980509534762422,0.782593043140773,0.8682614304594587,0.8526650323553899,0.7556390218826423,0.6625394879465358,0.6034834626135339,0.5879019011780264,0.5650077493490819,0.4936272413738836,0.48330707894376745,0.5456760985994551,0.6157263746235904,0.6674948973565149,0.6706264105346254,0.5690793025745284,0.455809330199505,0.32732600602738127,0.199771911668972,0.08005270405305764,0.05250608523134481,0.15514914304513372,0.2744980751154025,0.3913834099862965,0.49137394436667803,0.5758904195891783,HB
0.6444032819497159,0.7041189356960131,0.7842855860526858,0.8538627075127334,0.8868034821894126,0.9086474866142378,0.894672766980426,0.7982590817088868,0.6971224699223761,0.5787911321146759,0.5117583687132368,0.5969505176634284,0.7237301932515197,0.8435773830196769,0.9451938774235249,0.9197082363759892,0.8492529510212925,0.7829548187672437,0.6942007112923305,0.6804406864565113,0.7473463531535247,0.8037208881304918,0.8132727375570117,0.803978155861482,0.796502387759719,0.7708660193325321,0.7012818077869827,0.6734848145304213,0.7394957845619385,0.8209748379508677,0.8760156294777446,0.9109090546468346,0.9314511552560336,0.9251326532013839,0.8342345157734499,0.7175087708234782,0.5995601541984061,0.5458439068941718,0.6434359721808478,0.7505349385835742,0.8620518053115347,0.9604178022614744,0.9391982039367288,0.8631766023924106,0.7891331202456111,0.7158014185836097,0.7306199459746081,0.7911108850342641,0.8319256997057238,0.8392374843996568,0.8504378354887059,0.8304239463330318,0.7791411162920008,0.7086137145812021,0.6854804047225438,0.755673120142222,0.8373284530793421,0.9015597594078508,0.9377576218896786,0.9445769132595985,0.9179952518419088,0.8146403882710411,0.6943853395829163,0.5718095426841872,0.4689814706265987,0.5068842934793654,0.6240803846160452,0.7513131424436132,0.8707688385218855,0.9610918003660134,0.9281223834985497,0.8637240968351809,0.7910626965600762,0.7123309349390847,0.7434523887030913,0.8211174546109887,0.8776877256718503,0.8951865521076254,0.8768057131502072,0.8400022164619203,0.7828546270604504,0.7282014177188303,0.6842546186393379,0.7242000774520576,0.8118951870173177,0.8944830469524108,0.9518980704392137,0.9869206956528311,1.0000000000000002,0.9759914673210084,0.8806950456078286,0.7613780483256714,0.641458669647027,0.5189345634159133,0.43517286852374837,0.5110892137389753,0.6403198666701033,0.7698801980205101,0.8907616708615225,0.9808261885471914,0.947918317886496,0.8735042121482934,0.7979872280428102,0.7129973684572215,0.6811736065720833,0.7501735624783163,0.8115307026818492,0.8325335274338233,0.84430644462879,0.8394049617867065,0.7897231553458532,0.7303576676931576,0.7063446413175287,0.7150825217175691,0.641812551381524,0.5220660641226078,0.43764807769432745,0.4724068427371806,0.5853754884414077,0.6234437823405312,0.5252765152412944,0.4395016647379568,0.4796711079144651,0.5983161153673489,0.6821230016368667,0.7370524735973054,0.7875983787237886,0.7936176356567424,0.7787428187213437,0.7458751543234856,0.6682975752185916,0.6047947598556032,0.643273506711328,0.7282383399122987,0.8124319181945794,0.8619945223118479,0.8007625637789617,0.67627701266661,0.5551598811488625,0.42892994718706334,0.3013597315471084,0.18106564797463975,0.06474438280203776,0.058560048350014604,0.1646012005073514,0.2870012472403185,0.4104254338389921,0.5337193857655294,0.6588760350600398,0.7789170060300348,0.8928201840734686,0.947335888628946,0.9246469729108491,0.8795709902630555,0.8094221355016209,0.7154216327594527,0.6453911873556761,0.6328990814588449,0.6874012704715453,0.7391201125376818,0.8009133842322929,0.8346905642221134,0.8217468151030018,0.7699313016163563,0.6881598671770217,0.6521433487806034,0.7131841804313559,0.8009106268974311,0.8224774120234029,0.7390416329637424,0.614409517497678,0.48883748250959713,0.36725404165894493,0.2406432674936798,0.12031820753596434,0.012147181214043679,0.025511736955870834,0.13783175611806797,0.2583204405695487,0.38386548559130884,0.5044971538430081,0.6271860096797102,0.7485660315112195,0.8648612228248986,0.895911654552018,0.8841321248559975,0.8337104926843446,0.7567103376545277,0.6770577848688857,0.6264108765151939,0.6600113453225156,0.7324179135810727,0.7707189715327016,0.8018716778519341,0.7880437136488025,0.7739243183290012,0.725776035036189,0.6591895511448509,0.6506866814485817,0.7220421142974447,0.8022837538224785,0.8368120452427179,0.7480224313889463,0.6231522359771631,0.5023784029584324,0.37357226769882024,0.2512883792045366,0.12707735596567038,0.02941989531645528,0.07352956640273667,0.18970396823395896,0.3151282442172283,0.43589204255867076,0.561607270907786,0.6817566710356593,0.7990798459496531,0.8751784029618117,0.871620333864844,0.8293935832234862,0.7685599463074737,0.68730189007795,0.6178347952835093,0.631750678836726,0.7003368099046663,0.7476841585938605,0.7602064803985622,0.7591043280405392,0.7620153809934427,0.7116857998669779,0.6391371536505186,0.6033835157873717,0.6652625048456773,0.7558982857230785,0.8021994704402988,0.7406137868943021,0.621523480393084,0.4958153796940794,0.3746768879992983,0.2464733986340386,0.12609660321295424,0.010507810744364132,0.0,0.10531024504821263,0.22933072114685316,0.3508216797685033,0.47427565476758504,0.5973805039887206,0.726832414230336,0.8377530173127712,0.8591877296714612,0.8386354176002617,0.7979075693048288,0.7286398212134924,0.6424358380351458,0.5861828817385744,HB
0.34339930915542904,0.40297621188646726,0.47212350513591694,0.4914646899288928,0.4836107588089975,0.44948508575493973,0.4026706150896602,0.38225853877130644,0.4204510273565316,0.46428957242660207,0.44432725042614685,0.40871006970361634,0.406092945739736,0.4326404695949515,0.46281627232189537,0.4884918144017858,0.5003368978321188,0.5266051659622337,0.5967130822766022,0.6985177609649735,0.8059428356005545,0.9093650163408546,0.9154662098925779,0.8256210748694488,0.7191215095851939,0.6036425136641195,0.4967700543608706,0.432062137756259,0.4760188424271674,0.5300737849882728,0.5560537672489576,0.558638683972696,0.5208432157117513,0.46930377790928945,0.4458786744675214,0.4817535434161142,0.49937923612037594,0.4740292537759574,0.4600932072333008,0.481581865909837,0.5175300232744635,0.5454459067348831,0.5687038428136257,0.5941874597829138,0.6413897678566993,0.745660245460968,0.8533069606176547,0.9537796720943792,1.0,0.9339380738053529,0.8314810017774961,0.7194595214333313,0.6094516398578982,0.49538903790725053,0.4612569559790236,0.4895110622226273,0.48136158921470384,0.4470218248148372,0.3894990227560098,0.33007500119493827,0.2734523335699408,0.24893609715391163,0.3022249048264567,0.3466537684738209,0.3592702109860282,0.32482128703689384,0.3288983226073845,0.37025082879578664,0.41413452715905175,0.43440850459257074,0.4358700305625738,0.4304124106085174,0.4867873669650664,0.585392254447354,0.6910683262581894,0.7807963421041508,0.7748654890026287,0.6823309158576341,0.5701914927042369,0.4610284408211385,0.3475534098401565,0.3235177275751031,0.39021325279004104,0.42637564812308604,0.4298891672775591,0.40986500367135337,0.37014311547227363,0.35304392107231974,0.3939210659454937,0.4601279877852025,0.5235301370276257,0.5350104108626761,0.49872837056718655,0.4773510268755934,0.4988906886298068,0.5262128603488607,0.5349375341058185,0.5344077608058604,0.5426623250655833,0.6115756036484266,0.7096218818886575,0.8138659993875943,0.9134944240891674,0.944558780747343,0.8672596629673763,0.7501198477738984,0.6391837806665173,0.5263978455189311,0.45311824389695277,0.4893253189702209,0.5235691737832275,0.5115378177308134,0.4857726020895563,0.43363575601471016,0.39249756091911925,0.3861946477899125,0.4309108395394108,0.44769658808947943,0.42047736196006325,0.3954276954145062,0.4148528365500894,0.41372218127024807,0.3644120124293839,0.3139267244982542,0.22001008649954468,0.10021801025704757,0.009227382004426854,0.004835267917711494,0.0850083421098411,0.2043928843160141,0.29921653449663,0.2870010014028255,0.18118213263128657,0.06354433987486319,0.0,0.012600215181454377,0.10608566253373564,0.22548798900795974,0.30743632785918695,0.3422596253794765,0.3842896877680091,0.3760072520111768,0.3288495035118775,0.32550598933353037,0.3518781646154774,0.3945664333837047,0.44397491834419167,0.4625165245521452,0.43029699947053857,0.37237027427130087,0.3033706159550742,0.3120542236024173,0.41275389529500073,0.5311701744428556,0.6388640226120583,0.7295832724618077,0.6782298484884843,0.5819425461370686,0.5097545017680933,0.47569328032967384,0.4768990751193014,0.47261443762561983,0.46708018831766784,0.43349732054138856,0.4188750134646928,0.4448297232955034,0.4732907864327469,0.4284109454962177,0.361556623268104,0.31006649284740506,0.2939125117037973,0.31977134885718783,0.3584961708121228,0.35292723204402465,0.2963171047449489,0.23777806765573128,0.1579052054221508,0.14625517545864852,0.24420181450121792,0.35180132006436127,0.46684817492819786,0.5385665038945353,0.4799328409089676,0.40293552560932566,0.3671135422311087,0.3753815487182415,0.3667117513845297,0.33651537533112075,0.29298690392413373,0.2632843884011362,0.2655145099965477,0.2842726619963525,0.24936954724804528,0.18288308334436998,0.17635875908252308,0.21442140931746057,0.2712087625964261,0.33529902573399006,0.3884367001932807,0.4307469416622314,0.43387866997872404,0.3842586968727226,0.3257464056766919,0.36176951793791545,0.4670728571533469,0.5841127511011495,0.6921679383665515,0.7927615225150029,0.7595508531157011,0.6604997863640238,0.5745712322434517,0.5302183852360951,0.5140215441025666,0.4888955891404376,0.462605372162181,0.421255418689102,0.3925906817918725,0.4003091454434857,0.4266468523419422,0.4299165204214157,0.3904709499573418,0.39716761511449405,0.4237916395711747,0.47560886809475633,0.49849746756253355,0.47898101758512546,0.4215458626341899,0.3541229632343694,0.28047398651191413,0.2935790636714959,0.3913676348136135,0.505302688199821,0.6122410849700932,0.6600710745426746,0.5721615206803592,0.48550560531974707,0.45234031528105323,0.4386997843786098,0.42240215836876294,0.39320564679912406,0.35968697484707013,0.3398043398139654,0.3578445141826956,0.3887741234194455,0.38247100688963576,0.3251880947326673,0.305822533546952,0.3361497451320128,0.38205760437835234,0.4242122898236862,0.4369209889244914,0.4085541429592281,0.34176939010378327,0.2662699691749584,0.18444271913317944,HB
0.7274055552348715,0.6101995537141325,0.4951499078496253,0.5377538556211579,0.6684198025904529,0.7828306385115891,0.8978130923858774,0.9906079260680642,0.9997796813869417,0.9523441959845669,0.8634609066036218,0.7692114858908532,0.7908562399987047,0.8631035608888138,0.9350843408889138,0.9521449357792067,0.93701948577701,0.9013286752215244,0.8955598253227124,0.941351071254307,0.9633439582201633,0.9440542816681101,0.9182798462373203,0.9235870692286259,0.9353863444798991,0.8832787614343003,0.7830157893579863,0.6602908569851849,0.5332081145782981,0.4240554846261788,0.47710988461936044,0.6019164135233992,0.7227142436912226,0.8480603710368659,0.9205751217116345,0.9094101898738631,0.8316652373109892,0.7262584705465454,0.6592958947796621,0.7274313736856968,0.8108322877955674,0.8567077347880092,0.8640270268304486,0.8843281052989576,0.8640054734753266,0.8609864339864304,0.9024175284056608,0.9628577022382316,1.0,0.981292180224127,0.9807709859988791,0.9859974745903535,0.9749857450816757,0.8964405994395115,0.7912561330926251,0.6714120880606123,0.5440150130197954,0.4095733489192628,0.35049962037582993,0.46525391209860034,0.6095222275117305,0.7222667344378477,0.841723854266319,0.9328956221325067,0.9279021478139513,0.856569368127178,0.7674217567226136,0.7026133661006164,0.756037714740291,0.8314872584059025,0.8816188576319859,0.8804012710691129,0.863418353294271,0.8498956752323421,0.8883171450740859,0.9519726686713437,0.9716355357407078,0.9486723826723336,0.9385544414981193,0.9232935394784696,0.9202854365738813,0.864957585291481,0.7479558362002052,0.629265464818292,0.4953575803821231,0.3646034124759989,0.3286133133721374,0.4507182785818964,0.5745334534869326,0.6938680536053607,0.8020768745592002,0.8352117499038383,0.7870685651602525,0.6989068817244175,0.5998511987225355,0.5726394489975788,0.656688296403511,0.7396202987880609,0.7946279516089576,0.8118740934153936,0.7867192933122618,0.7748025894758723,0.7882943392086226,0.8376396167739899,0.9064845500065357,0.9330438404183949,0.9156495024630189,0.9024068913083192,0.9218930596407144,0.9073491482985938,0.8720542256774331,0.7781221532153535,0.6677690344898362,0.5499819821080849,0.46663118968326067,0.5670296728870543,0.6535257436631476,0.6323851450125595,0.5248515084241605,0.38872388058757323,0.25041389486613275,0.10972947332428751,0.06241118133988843,0.1633427780184138,0.3094528675240298,0.4427582338621794,0.46949949192341833,0.34330054795799025,0.2918266859516563,0.34688072530904446,0.49161472485686986,0.627537505526917,0.7227334349601158,0.8113630840058321,0.825020231050166,0.8251482732931934,0.8497119892928233,0.8361902053335162,0.7715651851667187,0.7203102342425942,0.6907289170332005,0.7061509323291353,0.725850453140136,0.7116717899515574,0.6468019907017513,0.5571540409795466,0.480264845548223,0.48693788101058155,0.5696176949941312,0.6775794468589176,0.7503661668873942,0.7340780694497417,0.6155713803552594,0.48696744475135345,0.35604335681139876,0.21575356500065945,0.08385107453835605,0.0,0.07033533319446406,0.2209421827161604,0.36623518238639896,0.49914314096378964,0.6205401434305475,0.7307164001849045,0.8335549882337485,0.8463323511668683,0.8509958191417213,0.8697223014994946,0.8829139461432365,0.8620513437910975,0.8042253187124229,0.7732026464600326,0.7919257303731673,0.8046934901387433,0.8099508199079528,0.7762802012417618,0.6984425744222307,0.6171430676064698,0.616974386627593,0.6994045144875609,0.7918621902344971,0.8552188554423434,0.8004041744769093,0.6809911805839439,0.5706815110531891,0.4423377440921641,0.30804993837189576,0.17145509491319721,0.06449068003464786,0.12498468278069019,0.26200854187725087,0.4041933836353353,0.5422174693707946,0.6699668480150813,0.790631583055649,0.887980464737542,0.9089772439334394,0.8988594716413796,0.8948361358682786,0.9120458481690692,0.8795889852360403,0.819998907289865,0.7826867785719771,0.7705281656765797,0.7618317286575635,0.7722926103180816,0.7799259812805936,0.718704506537629,0.6293086999424631,0.5682733376135971,0.5976622652258161,0.6907070499704466,0.7959237359905704,0.8414336756062628,0.7767759527740434,0.6519977785024635,0.5210843449184042,0.38494791714512466,0.24456355425388265,0.11814518558124831,0.0669722432946247,0.16264917235512355,0.3040922694401509,0.44853703022725355,0.5898061738182276,0.7082016633297865,0.8092896823309066,0.8533337682431195,0.8420462184489996,0.8519537825998404,0.8613992464721112,0.8958099395200869,0.8613123678888366,0.8137468603077704,0.8217707839169393,0.8309109451884136,0.8593737882136265,0.875605499868044,0.8191136631342117,0.7368528101477589,0.6723911367617195,0.6952775550169163,0.7863706003386568,0.8805883933180083,0.9178182197182103,0.8377007007380093,0.7288840516950614,0.6066892128504189,0.47259593163920544,0.3357408243637985,0.19657697894703663,0.08237175464185276,0.10684221803578131,0.23981166567758505,0.3753625811391297,HB
0.7579101013576723,0.7564774807585888,0.723123366124736,0.6760482841086626,0.6830662459343948,0.7429264274965823,0.7967484831818661,0.8377425756727672,0.8664049753205116,0.8917647596274909,0.8794626137354924,0.7748439921736674,0.642471416210014,0.5275734762747324,0.5966070215668351,0.7338754623954098,0.865403073024174,0.9174415297768999,0.861770747793591,0.7935193567431305,0.7091076006938675,0.6245432188847038,0.6499669418643697,0.7285925776303546,0.79794547467763,0.8105953111865793,0.8225086984723857,0.8458235057734744,0.8543411644858563,0.8376944346086792,0.7853144692120759,0.7541118125958679,0.7999336306933977,0.8666772945927952,0.9095822666728015,0.9474958508124534,0.9654643621151826,0.9713416283129384,0.917383211284601,0.7911891129426656,0.6702037195800115,0.6547008437270416,0.7839782962880482,0.9184587797479336,1.0,0.949715717221804,0.858628129667875,0.7659639133820226,0.6723244630465892,0.5631721913706191,0.5106612809767728,0.5758811537977233,0.6599790181996923,0.6963605876890488,0.7086206986328554,0.7256535120605481,0.7241005949358406,0.7139216933206431,0.6766597141053214,0.6167772404782759,0.5890862255351075,0.6409290345510632,0.6851756052387148,0.7289894559746997,0.7537296020445461,0.7839528789875514,0.8263131587276287,0.7894062714909365,0.671268348717053,0.5390941221091947,0.411117095307989,0.4085295258251662,0.5458112746957497,0.6813606535037549,0.803582249145542,0.8152519685825794,0.7634820364116184,0.6963814741711394,0.5970369382151901,0.5529574023559172,0.6204996433617365,0.7108541149717666,0.7582379007986106,0.7775821769210745,0.7992815653717606,0.802657891446219,0.7872709127266759,0.7388835467307309,0.6793498434408969,0.6628897946823673,0.730508279199984,0.7941684753335294,0.8430733800436592,0.8785608870686161,0.9118802498437915,0.9388704862294022,0.8808992930769413,0.7563707480663191,0.6248532558320301,0.5288388996516971,0.6123277510489933,0.7500310479495762,0.8630913527045303,0.874939741007442,0.8184702950878169,0.7434781147169396,0.6373307821990357,0.5342843233480523,0.5229435329655616,0.6087544791639536,0.6940269808348103,0.7203588419401346,0.7443017964536871,0.7541493609890573,0.840619584592396,0.8715940668239064,0.8450280580511538,0.8055773375751647,0.7407580622052738,0.6610240795391022,0.6196814658366745,0.6779133883436161,0.7463889327383351,0.7899469169918589,0.7864281877820885,0.7040781596681591,0.6733411565508964,0.6623652538052465,0.6385633520007254,0.5703333602343488,0.47555585242537735,0.4203021783822969,0.46261634122450834,0.570725769963571,0.6732494054970908,0.7536122087535313,0.7721327748913951,0.6574277465757743,0.5256849820295049,0.40818083692385043,0.2763771544254463,0.1394179202327348,0.0930798132731403,0.19420287566263905,0.3323273746043762,0.46801630376678727,0.6010651933047417,0.7364640007208751,0.8514417907412581,0.8384025840263369,0.8132423877750554,0.7702141797131041,0.7167517779426817,0.6483828073932076,0.5907647201261086,0.5809024614489862,0.6447763288030286,0.6992060969482674,0.7290009921665366,0.7414856291796492,0.7260175874030663,0.6943190043183232,0.6540294570983125,0.5635527109617131,0.48196616486562593,0.4741742369810078,0.552663353691492,0.6416916466537868,0.707117217538229,0.6710703980028607,0.5607013306918738,0.42447061918700557,0.28097437488400434,0.14256069295827656,0.011194590709701302,0.0,0.11609179360351396,0.25636804207633945,0.3895411439613832,0.5279032085435982,0.670870563470563,0.7323287141701909,0.7036094451122974,0.6740527475290232,0.63123114237876,0.588408817601529,0.5323951065237487,0.5243984505980683,0.5767746598909178,0.6281279661234667,0.6494976063658244,0.6498136388567763,0.6396796115228396,0.6306766362304792,0.5870000014634189,0.5016591512990534,0.4312195380664394,0.43921646458691566,0.5353672962042446,0.6371647681833608,0.7303254972242819,0.8284995085043119,0.8567219541878237,0.7388850401108744,0.5940993676977575,0.45689335659173924,0.30896057451100534,0.20408433062486075,0.23739471353717523,0.36823647608759824,0.5095477974002471,0.6522263375840232,0.7795492967459348,0.8903523553464714,0.9060037841202533,0.87684659796607,0.8475674904699217,0.7967205454268451,0.7272100262054608,0.6779381963856803,0.6987376571132318,0.7539891477733636,0.7912411173805389,0.7829111266219182,0.7704958395850601,0.7399054307601487,0.7385879846700987,0.6704627340916121,0.5866588114239564,0.5443988787454912,0.5879977817853073,0.6781373454572805,0.7633201859108669,0.8095116046575095,0.7165807656049443,0.5818075867423089,0.4356172552547073,0.300052573942291,0.16709804078420554,0.1463664676139067,0.27442236012241983,0.4083024988540349,0.5327412364167783,0.6606922442342094,0.7808555203872629,0.8139125650711203,0.8048557459465484,0.7719809585832165,0.7227661555032125,0.664394703661968,0.6160438265404857,0.6105240031960006,0.654370709331606,0.6911113260146324,0.6884278246223605,HB
0.8805234736856943,0.8542017248084518,0.9040343604217395,0.9614427828374773,0.9843847193832643,0.9464866883519275,0.8594090976546837,0.7624167205862197,0.6582684765870618,0.5546686536756792,0.44991163598828343,0.3766686451140958,0.43238141094941474,0.5374712336641331,0.6431578760700797,0.746497782055883,0.848613180057146,0.9486039961642448,1.0,0.9542638005818934,0.8907404472869903,0.8659077188390324,0.8975318265229396,0.895802836366777,0.8896947667854754,0.8580077712307864,0.8142643691140309,0.8430721291179081,0.9085154461226831,0.9527153547667627,0.9530358040550085,0.8820571092912005,0.7836241928833662,0.6832356622483843,0.5808571637780618,0.4757741087829249,0.3952214447023098,0.4393892761535575,0.5441313488987264,0.6472002425092626,0.7529985725669789,0.8554281816033201,0.9504581611858532,0.9777354142244553,0.9244006490474129,0.8600228643800351,0.8560504478621876,0.8962619869483545,0.900028224844789,0.8971601226841367,0.8627995122353987,0.8274955063017208,0.8686030222970927,0.9298323236848619,0.9666135516281119,0.9512870815979605,0.8713861433050384,0.7755883537935396,0.6732204260104943,0.5644185936675828,0.45633211956230235,0.37767252959925923,0.4258930861627087,0.5283702264997395,0.6357850586235808,0.7386422325327825,0.8422757544994451,0.941541539537751,0.9984811791697014,0.9545203073976812,0.8928645996916335,0.8504564305355741,0.8747677066708793,0.8790506461750515,0.8647035098150609,0.8422803251894292,0.7882338055948453,0.7887227323711573,0.8537947928947761,0.9099378411345452,0.9458183663866301,0.9132295271252663,0.8282748750184156,0.7295757633781307,0.6287650510001698,0.5255630831568426,0.4221372335860355,0.3176334952139068,0.276301727999955,0.3649528891069509,0.46809296182659643,0.5741610558533358,0.6770569840496957,0.7816406072000336,0.8854793474421395,0.9768109669923523,0.9731083478180641,0.9100317322129069,0.8543418331695855,0.8641680374474742,0.9000939173581292,0.9044958916094076,0.8981306213978922,0.8574757993974395,0.8465745041388953,0.9057272876153596,0.9624597160300853,0.9919758096986245,0.9623001602867135,0.8800703099025279,0.7992365497493142,0.7201702502972521,0.6217796930996325,0.521697907479859,0.4128520258506908,0.3118970696014338,0.230959564112157,0.1290443736829472,0.043301941097807606,0.07571841772441634,0.1758025199803982,0.28016159994304946,0.3833608515960757,0.4898377478651351,0.5888531225032795,0.6825942704609201,0.7822482589057144,0.8790294871207872,0.950230206638497,0.9434100494728107,0.8899341413429133,0.8252980994533196,0.8054853422549529,0.8480398568739488,0.8759695168006635,0.8718777723909193,0.845897597628252,0.8017137767862023,0.8254806294341509,0.8838763255638781,0.8827721160322423,0.7912541007339927,0.6889474753458232,0.5861069963173405,0.4797067253604107,0.37045409723081024,0.26125995825229775,0.15586437506245954,0.0532496314015376,0.0,0.07107326722909646,0.1732088552910468,0.2789211798697253,0.3830560572393674,0.48884415486406196,0.5934211188196715,0.6948113272144624,0.7939463247832711,0.8850608970118073,0.8999095572601253,0.8516507314160874,0.7869721236664083,0.7407177957376606,0.7702960308205519,0.8224339753668352,0.8400725545369628,0.8508281154690301,0.8202690451607334,0.8275916178245938,0.8850540934645009,0.9103874623093619,0.8328592401902765,0.7298699153492884,0.6240689452507334,0.5201745690698952,0.4142147547425531,0.3106850828818589,0.20729823668323932,0.10198893089505745,0.021971979373137995,0.0657992032429886,0.16971080178438747,0.2735514922602541,0.37738929026476187,0.4730793046636611,0.5686376395899074,0.6732643991465831,0.7747768341001061,0.8700685984973865,0.9339034126775952,0.9157124262325876,0.854377349898667,0.79667494638765,0.7981435601136134,0.847088677883535,0.8690866851855626,0.8677652543154643,0.8317523749002572,0.8135111223284771,0.8668548055163404,0.9191893221999218,0.8771412252397753,0.772176839713859,0.6692448881977898,0.5641352481249672,0.460441949862059,0.35606232554024586,0.2509378505455714,0.1468147974808558,0.04541407140694376,0.014707207259538557,0.09866688727080375,0.2015829223335468,0.3066922895518225,0.4102814207817157,0.5168789490757703,0.6259911942841768,0.7304932571217996,0.828573031877882,0.9106641723301819,0.9213224871387263,0.8807425177880911,0.8143554948074171,0.7771048314610379,0.8092433914168452,0.8541698764803859,0.864952613973431,0.8719303742104362,0.8397529687085817,0.8275295409657258,0.8820684524693115,0.9237962907617444,0.8691424661323722,0.7689575737269582,0.6630991823060403,0.5538713812866037,0.44493218576874194,0.3411023179017939,0.23635462707412014,0.1335004084926813,0.03968410675623224,0.049633069947117914,0.14786143638014926,0.2510677036453147,0.35707387196236273,0.4600163201648292,0.5652153504680862,0.6688685691818769,0.7769311219957472,0.8748881423391316,0.9436811318962252,0.9381635134554417,0.884790125182113,0.8270939397230205,0.8259243903773347,HB
0.3725415998099826,0.5126543144113227,0.6550414116939121,0.8028267886732814,0.9388694820393959,0.9699667903389382,0.891294292981653,0.8363077262135321,0.8090187860779845,0.7766501697929642,0.7237071899159822,0.6998358177998418,0.7215645830154878,0.7563367742813925,0.7501687490338704,0.7172963876009351,0.7226570205063667,0.7588445940350046,0.7531489324552738,0.7214880730966002,0.7229287388665404,0.7586556289184769,0.7871583643027713,0.790400231981939,0.8035441835527348,0.6974329181713075,0.566771825913571,0.4434605067731039,0.3229805209958525,0.3640244097548426,0.5189815323329214,0.6647017786121041,0.8018651913733295,0.9356279704397799,1.0000000000000004,0.9105693334414773,0.880881526910636,0.8997666410116874,0.9307603099191772,0.9204734708417077,0.8635948833327123,0.8321328395810466,0.8982411727706388,0.9465138098420751,0.9779959347811755,0.9393817987243476,0.9186886701349972,0.9150383281391741,0.8688290099988136,0.8411898703397438,0.8134166086462247,0.7829620378447912,0.7892335725697595,0.8002873957699621,0.865033237777364,0.8361263922922926,0.7111371852108621,0.5803504116470708,0.44166496220033613,0.36075355543810295,0.4675610147183211,0.619106815344542,0.7527601487233002,0.8843667973496987,0.9886285252853582,0.9540794453615953,0.8652895769176809,0.8298587988392465,0.810373606966301,0.7883526171034627,0.7296148924343551,0.6905981308424063,0.7391278274359236,0.7439069111832342,0.7126946819527578,0.7080323349621875,0.7108920199688273,0.7342294518473804,0.7292879141681889,0.6984153863300882,0.7190501349597187,0.7460389793850619,0.7716861502008876,0.8343700233482285,0.8140018763067132,0.689786103229451,0.5692660550590829,0.42909278344761104,0.30779690522205394,0.3760313339163779,0.5212967394728456,0.6596292488809126,0.8194677831431876,0.949497769510526,0.9633092389702411,0.882883555485543,0.8453272341654761,0.8204731178334259,0.8367694720489527,0.806469455001992,0.7574014507781404,0.7278950212498798,0.7470991548166412,0.7464273499558121,0.7161449731020197,0.6950274911564684,0.7157672257392771,0.711398624430974,0.6887605230426987,0.7153915756952967,0.7508659238691444,0.7515775722806963,0.7552919806810361,0.8101798879738884,0.7571702852282969,0.6199030673596391,0.4894381400779717,0.35795866074959504,0.251162406187464,0.33321364592245084,0.47145029775934466,0.5928186822311692,0.7399634607595087,0.8626760552868009,0.8872170249090812,0.7908674805852631,0.726064364929258,0.6674991975160709,0.7036990483481902,0.709687782253607,0.5893520513188002,0.48498406929786997,0.3477545561532982,0.17289588791381938,0.03491059147293285,0.0,0.03321672117342844,0.14600199159728744,0.2777210533122161,0.41137103425461996,0.5551394143506871,0.664198987203291,0.6605319712079454,0.6573170404912427,0.6513949944289892,0.6111508585896117,0.6068422393152608,0.6264446790853628,0.6090102812366527,0.6002110202536328,0.6349373803844904,0.6408065975226527,0.6275259086916187,0.5743332793243803,0.6229958213204072,0.6942130827698434,0.732064611802898,0.7391005420847239,0.7296852534997975,0.7656215947486449,0.7463936723203521,0.6085051241817045,0.46670815261540843,0.29729337295908076,0.14028321077692585,0.029916639244279786,0.07928573503859093,0.20807204841031668,0.34286692565834764,0.4862548799793367,0.6247691877217307,0.711275780221658,0.6799803238817543,0.6468727592166688,0.6323331425311731,0.6058960678263134,0.6087723955028577,0.6393510692863216,0.6193425928223788,0.607691937918402,0.6173190598962868,0.6577985488533051,0.6606923545710557,0.605357065925729,0.5745053075492277,0.63651732458916,0.7044868152656991,0.7209221050365753,0.7400912123393142,0.7713711511726067,0.8231822372634237,0.7549577709385775,0.618950826498565,0.47232277668488587,0.3199736859788618,0.18679029717562834,0.17227803855039925,0.2940809064137482,0.4264600942928367,0.5520792052540942,0.679511315476589,0.7338860633229571,0.7112530758825888,0.710053788800892,0.7172545181862398,0.7368514134733934,0.7706795180128299,0.8210762833831482,0.8441309957336407,0.8663875564924566,0.8746642643155647,0.828541241468876,0.7534745306605983,0.7294925010794988,0.7917916647297907,0.8257218507938195,0.8077683603992862,0.7863946069264292,0.7744933546674297,0.7696734981244746,0.6466776478591485,0.49893769791061837,0.3437718657511346,0.2119463383306659,0.1025706261009054,0.07520934949391833,0.1807487312334568,0.31013662324151126,0.44345127326719647,0.5646304324237419,0.6636198945521801,0.6406788297691413,0.6373717741496363,0.6491505015847783,0.6229658936632299,0.6274664535918801,0.6467027625098933,0.6286028269187125,0.6128703299515741,0.6338499321878603,0.6639201528588088,0.633936795732509,0.5931699987787202,0.6069376344599795,0.6674180181711917,0.7173860097190112,0.73758858515829,0.7714768450388783,0.8188479902526651,0.741442393701147,0.6049763674755968,0.4520949931498106,0.28764960510651294,0.1707050417296867,0.07973054522854639,HB
0.8057751348985773,0.8491083495966714,0.8987233155485712,0.8599313744904387,0.7587894415848684,0.639254324244082,0.5806639802946694,0.664951237937291,0.7565968112342794,0.7799149588410192,0.7320310843405449,0.6520247339024641,0.6167161419338676,0.6648575511335935,0.6985655392032473,0.6807558005777499,0.6277580336886386,0.5751291344192038,0.619313335988434,0.6916992938945903,0.7534231750245413,0.7992821474855183,0.8285918223718163,0.88756414753718,0.8799504483617926,0.7760032719085417,0.6584062207624606,0.5630596296232451,0.6165754500998317,0.7267231325658905,0.7957254528356823,0.783961772638659,0.7246723949487892,0.6399311832425041,0.6023463951801502,0.6501935336773332,0.6992004034612687,0.6882347976382381,0.6345814812150099,0.5480178029140692,0.4755315995659073,0.5080594515632804,0.5808193896559843,0.6505768410645851,0.698870245533604,0.735116095671664,0.7604103176723975,0.6931988701512029,0.5789010664428842,0.45693214899167156,0.3518183996228579,0.37335582350283736,0.4911168391050156,0.6068476179630409,0.7056162736572253,0.7159174559787251,0.6704105560951135,0.6001400398336596,0.5794793619241596,0.6248464937618841,0.6546726799186624,0.6524470727439651,0.6059811661656398,0.5556004693242351,0.5918482284221813,0.657342146982975,0.7330113424418316,0.7814397152437444,0.8457869750799785,0.9094583697741343,0.9388288030224974,0.8601717454914772,0.7427000485910957,0.6253179095190426,0.523587104197166,0.5684793153671142,0.6846214002046795,0.7843662527313349,0.8124936079637513,0.7704018140070605,0.694784313261009,0.6604300680689041,0.7304962026404134,0.7888943699223967,0.7928674631287382,0.788613125933562,0.7705869385254953,0.7042147939479895,0.6955133022248909,0.7599883616024621,0.8291556860932996,0.8827249901370195,0.919071603152513,0.9707526305715493,1.0,0.9084275998362563,0.792411274366426,0.6784865539877472,0.6831889005660248,0.7874779806639376,0.8611774832175838,0.8383926370709989,0.7807194122630046,0.7005178565704706,0.654365963581022,0.6890859553044746,0.7108386527647141,0.6901924634603449,0.6392973190949154,0.5851241764874535,0.5269103260111354,0.4555061803876035,0.3627027878000857,0.3257288607467661,0.40296460514333954,0.5008863118117739,0.48256699381953183,0.3710463655339804,0.32230289621800945,0.38342878878250386,0.4995667605521732,0.571780017856085,0.6197167838225974,0.6532796288737739,0.6251073760926849,0.5829705789100106,0.620296184613661,0.6970738942718726,0.7698749478103353,0.7946934875123097,0.7099110905230255,0.5926312485726206,0.4706764349057866,0.3499608419182676,0.23434529725173192,0.16724036571089518,0.23831252771281264,0.3535127691561286,0.4770103613710326,0.5945183822084275,0.7169759100413677,0.8334362958341353,0.8868717090394989,0.8634681998063951,0.8231385942335461,0.7611400736326877,0.687543516132803,0.630957045363417,0.6529036648240223,0.7170743149874563,0.7399396947980894,0.7486271012380232,0.6980328100349964,0.6164409505330122,0.5992139797913825,0.6618909558947736,0.7366391755882375,0.7472301785044326,0.6515264344352496,0.5292725539361567,0.41178305906968937,0.2890978023898423,0.1775651554212272,0.14942047272899672,0.24627338438350677,0.364094920791985,0.4836934819443759,0.6055678420553745,0.7234921862024786,0.8340117110761529,0.8346621725974388,0.7732930239841531,0.7174711164908407,0.6568034640281959,0.5846651296308529,0.5181677801965265,0.49432927333166066,0.5483724370106975,0.5985600991915829,0.6015982254226753,0.579374112315421,0.5332607827405944,0.5343468672975344,0.5963695125033217,0.6578790168665467,0.6354039245110328,0.5285431722189502,0.4118489679676196,0.28888996182962834,0.16268773185104202,0.04421863185228081,0.0,0.08864754690922894,0.2065378123296362,0.3309144485445077,0.4476520695837165,0.5694874604628768,0.6738576070786544,0.6902420070246826,0.6538228435109366,0.598132499270057,0.5299497408541263,0.4591182438101413,0.4120395840458124,0.4462317237834659,0.5365309270462304,0.6134976538537789,0.6454172798395232,0.6142541538836523,0.5589062086847649,0.5623270239038902,0.6262235354944905,0.7037752757098392,0.7348552604449008,0.6798368392272858,0.5658566068137034,0.44646245402291496,0.3269351907728102,0.20872799867317227,0.1119873844564141,0.1455939306978875,0.2639974561008376,0.38255757469016305,0.5036785215246686,0.6228892531492818,0.7379913870773787,0.7815164782256327,0.754383871938515,0.716305041164774,0.6539810682250318,0.5809943687250305,0.5223823755609436,0.5466706797979626,0.6116095315739853,0.6438604959928562,0.6141996767435747,0.5647095188214859,0.5818969828335301,0.6614923784519564,0.7234872612181626,0.6988848929984535,0.5911294635645508,0.4752469188527586,0.3526994303316602,0.23600976077044478,0.12375954663129951,0.1167685047984437,0.22292305935108736,0.3405520498941177,0.4630204176583552,0.5803333099663708,0.7056166131332389,0.8047294215084464,0.7892790271716414,0.7517935714499213,HB
0.9124574500210322,0.9088879111086788,0.8421508076748215,0.7529715890530514,0.6637064380305718,0.5713286709039661,0.48316278559462555,0.39184419243845603,0.30017379423276014,0.28347327383875853,0.36925879148512786,0.4628656783927535,0.5560155372436498,0.6493084872115659,0.7399736432030818,0.8302021092620594,0.9267192895349031,0.9935323562257535,0.9964940049150856,0.971387123657585,0.928891179463409,0.918541027707063,0.9269371948178379,0.9252600336979514,0.9336074944216642,0.9167748008846198,0.9097064456455576,0.896968049692804,0.8727318939496137,0.8713352560975766,0.8829778162365448,0.9078538272459024,0.8875454311037337,0.8244250824433458,0.7462155876942781,0.6644740564411947,0.5754763004383404,0.48854440916565467,0.39132724318472134,0.3283134396801898,0.3851249397098243,0.48120293686765747,0.5734921006989421,0.6654954702180843,0.7574968235310658,0.849089764046692,0.9394247668801793,1.0,0.9973040884692862,0.9720860294903554,0.9303618914125219,0.9240193271453695,0.9341286412037498,0.9243974501835271,0.9254042248436457,0.9082001757312047,0.8819622775180681,0.8761696725410816,0.8949775870543505,0.9179676103514925,0.9183865140661863,0.8577228737985975,0.7708289037784662,0.6807235693107591,0.5954781539470132,0.5105656154204546,0.41985086811717787,0.3416470796079102,0.33206220824752075,0.4162448086631084,0.5157203891266208,0.6099442745303324,0.7038477737024506,0.7963089504093853,0.8870904771685154,0.969037719364937,0.993790019027924,0.9920394726131555,0.9461688334502832,0.9085888840554662,0.9064355366414593,0.9321274349771093,0.932981499219781,0.9212923034527211,0.9265111445356354,0.902223194993356,0.886662394795455,0.8956086850558566,0.9097492171991096,0.925885500687123,0.8837713982622614,0.8179248895649892,0.7383893556898126,0.6460493189493096,0.5561249389902435,0.46714837156464106,0.3759030894057248,0.3417707060467202,0.41478888329334784,0.49621915470349653,0.586736722549592,0.6784297581472097,0.7709124725881146,0.8662443111449066,0.9546362433910577,0.9948469418684008,0.9968295199358889,0.9585693413143982,0.9205479389316763,0.9206187107569429,0.9385028699235921,0.9383666524087314,0.9196066453495092,0.9236314096153065,0.8855917902446607,0.8680734700899336,0.8812311413660384,0.8853984946578349,0.8561248978551167,0.8272948434269008,0.8193044273471476,0.8445336538612652,0.8746361965456376,0.8717275596833448,0.8861054234555298,0.8913524688873277,0.87794937779773,0.8725233557107471,0.8751263528457264,0.9180360609233275,0.9486638432199642,0.9240787180697719,0.8439769365295692,0.7517163281749776,0.659976215589905,0.5651009157914914,0.46688524729120406,0.37346602555288355,0.2801118371177408,0.18479992696201175,0.09250463449798074,0.03660826793377847,0.08964228224917425,0.17103324739058745,0.2620710690144463,0.3556652416452427,0.4538569071693549,0.5454967967441192,0.6307127101099509,0.7183833775900182,0.7957842202275577,0.8584005114357668,0.8581677367190267,0.8391025140716989,0.828057006343896,0.8385723701417193,0.8694648203796184,0.8799355050361811,0.8788209017956691,0.8895767505956681,0.8619361756308445,0.8507439536127602,0.8776343381674231,0.9258034727548546,0.9448743493484996,0.9057142430383246,0.8196708773077327,0.727765331980666,0.6370084289748267,0.5556995259367269,0.4648990689780673,0.3727504011856789,0.28009278899425394,0.18598045292725562,0.09008628177251277,0.03619444132162719,0.10105984576465188,0.194907928667307,0.2888983952802303,0.38199939041399367,0.4747388338301365,0.5620812555449269,0.6365024892230388,0.72084104799771,0.8156523238858259,0.871771313580756,0.8629878794264342,0.8463855227290268,0.8298839435020201,0.8445045829220496,0.8708573543895409,0.8742984644919937,0.8886585532384169,0.8825567776483242,0.8728875092873788,0.880905863200368,0.928500428533744,0.9503187833763308,0.9087536391670771,0.8154985067112167,0.7234830764429091,0.6309038381406656,0.5381152180697774,0.4450366625770098,0.3496685443853208,0.2556741645630549,0.16079949707652308,0.06551609909066147,0.0,0.05017331898631339,0.1443701652385162,0.23890600327256983,0.33162214874714346,0.4106450682583257,0.48363373036371093,0.5673476294422285,0.6560027280037034,0.7471978880082099,0.8291515462776505,0.8592110805997876,0.8420344533065428,0.8338966607465877,0.8154612372478082,0.8384374970604481,0.8698859459172267,0.8616576300808939,0.8775305086911708,0.885602915337023,0.8666926467608002,0.8534005610938217,0.881065880247737,0.9260737557516298,0.9368933097970026,0.9382292368532773,0.8681012492269452,0.7771503784828856,0.6875361387326954,0.5903264260745248,0.4942571193243158,0.3993486688849647,0.3056928517090335,0.20858105731451548,0.11521809045490483,0.03169737412340001,0.035051739946643456,0.12071853158173407,0.21393572400212502,0.3097764835331053,0.40997126990338584,0.5022137685914375,0.5867329051275271,0.6746558256258045,0.7638033675416668,0.8468029000667395,0.8687562622999235,HB
0.9133902719833115,0.9527616214903168,0.9563736429100863,0.951120471945817,0.9625762988146692,0.9833464579509167,0.9553222110305254,0.8734817754748597,0.7810084304699362,0.6871561744351965,0.606502197689177,0.5137956493081167,0.42180028128535973,0.3267305404566351,0.2585713961717627,0.30500400388170334,0.3965398508099517,0.4884931131092095,0.5836592668768171,0.6710172002021763,0.7491362013508723,0.8286315204343299,0.8637155478809352,0.8296021791429514,0.7707167639028213,0.7391089184470091,0.7649504195067344,0.8052847894290821,0.8161545672955756,0.806707624542501,0.7926755089237197,0.7962424163974914,0.8483370553505781,0.9167661626442375,0.9717705704686271,0.9843701633975831,0.9857936416075824,0.9878417251788351,0.9999999999999999,0.9818735742192145,0.9076220995409935,0.8150468979361992,0.7225691777918738,0.6408798626642264,0.5515199662229667,0.4579347459591282,0.36565707682674764,0.27196846400721386,0.24386921630951985,0.32466311419993776,0.4164193804811046,0.5109899252367333,0.6035419792137743,0.6976080812628304,0.7893582309336088,0.8508620445548606,0.8407722652335613,0.7939404848424979,0.7673240496635635,0.7950359173845228,0.8192808714538541,0.8058181820090294,0.7873584233662548,0.7687649210333066,0.7967074257471468,0.8608439184991573,0.9154626766774879,0.9285349127614743,0.9277600655493597,0.9375071638577522,0.960967245934644,0.9528686735193569,0.8772506805852772,0.7869861912100752,0.6935641002817071,0.6098608232426243,0.5206594432529633,0.4288560611207525,0.3334866206401542,0.26484859932219673,0.31086758936805425,0.4032979419744406,0.49740035892559964,0.5906256470790049,0.6847887022318456,0.7721894193046267,0.8311799447113409,0.8243411738114935,0.7817724179546756,0.7862799371014951,0.825477395900659,0.8435050621551973,0.8205023171345679,0.792997291624652,0.7769470533928214,0.8078598996071297,0.8731407623026243,0.9314237342285109,0.9478451894883752,0.9392639179522807,0.9336304757898667,0.9393312670491311,0.9356347263300385,0.8679478306496181,0.7766038619792993,0.6810976541700257,0.5992322078433604,0.5098631159364796,0.41819432760183417,0.322590849110615,0.24388142182186734,0.26863385800659023,0.36102051351456066,0.4536027963729733,0.5483831565986553,0.6388378619602176,0.7173729989745733,0.7885465384409852,0.8343466719728109,0.8113392703086441,0.7775717184840888,0.7891669885028073,0.7387330783990435,0.6583743990313494,0.5707514034743947,0.49321254669170933,0.40022427148901396,0.30176449086340396,0.2081434467828166,0.12217026961385669,0.05574786301485324,0.09038430693861921,0.17908019089152794,0.2708664089476548,0.36424780342074914,0.45633054230499537,0.5536422453737319,0.6404959956621666,0.7261378497626937,0.8184918771987254,0.8921351216939547,0.9023618434943573,0.892200148890773,0.8972641082291456,0.9088983890133152,0.9072562009261388,0.8529505311600848,0.7878125785060631,0.7435358021816149,0.7475116906540026,0.767518240818127,0.7957485354759423,0.8038640590913627,0.7675527554742795,0.7254769894157321,0.7323091197270953,0.772983171426782,0.793699752435164,0.7369606906846861,0.6478847996170095,0.5506925884838002,0.4523289192626082,0.35955646481267267,0.26464528195107584,0.17268823867524408,0.078998715049304,0.0,0.0021589692601108323,0.08583946910598095,0.18193686910907914,0.27396416691063774,0.3709164133588191,0.46296806264996826,0.5590162040869978,0.6473111334080265,0.7306151756612392,0.8073048533895407,0.8885235042654821,0.914437402939911,0.8969303846319966,0.8873188854425987,0.8878675303249118,0.8603631761538938,0.7955532682957852,0.7428625091631303,0.7350604661489265,0.7547968125507282,0.7699391700680726,0.7797496228707957,0.7544688068549351,0.7207857306799631,0.7456362551732257,0.7944985345623877,0.8108852888781267,0.7450633133249306,0.6542052305359188,0.5602616625810605,0.46817850730633903,0.37141540142678753,0.2729292066422434,0.17990354584914925,0.09232965658985859,0.03489985409466667,0.08127047858830372,0.1713385903087793,0.2676820878294256,0.3600414567882889,0.4560616722380567,0.5487904558538007,0.6416159153461708,0.7263404936948678,0.8145388467025013,0.9029402372864851,0.9568834721307596,0.9530590890099476,0.9473595912956617,0.9443897206299491,0.9185975976334152,0.8510577198837709,0.7868512105078816,0.7513453685796726,0.7564605533621388,0.7702868027154594,0.780282737646027,0.7559802282989735,0.7112273591682382,0.6795007040902669,0.7115618426708278,0.7642936867623379,0.8124648930414619,0.7780108345792381,0.6926152040613579,0.5965737144778968,0.4980925987116539,0.4048026139360622,0.31095376717646384,0.22035917118272041,0.13567342521957215,0.09025648587113722,0.15012868707233962,0.24225216056320997,0.33430936444725023,0.42660524369723307,0.5223750144441089,0.6168395615904089,0.7002531304248242,0.7895645537847001,0.8786633006388204,0.9329866963130243,0.9208949079851118,0.9097306466257872,0.9045625474562563,0.9145059806704828,0.8877879100019895,0.8264572024982749,HB
0.8915112689348699,0.9036157090681525,0.8690786965278718,0.7852994067044285,0.6711241409349826,0.6024572002368425,0.6574361488885669,0.7304704384567029,0.7865613557470783,0.8242220298383787,0.7999413104614748,0.7481561935670049,0.7168399851600356,0.7237828482520312,0.7173350235129567,0.6223032090722818,0.5010514894951394,0.3635011476425136,0.22457992917569003,0.1449386384533291,0.24814800146656246,0.3918677796924328,0.5420648330340416,0.6851789061716058,0.822303389588519,0.9385174921497432,0.9698044400678927,0.9353222462070376,0.8693287224170252,0.7652766778217925,0.6734715529026389,0.698961747009835,0.7765610755394263,0.8682933645378696,0.8786518564614174,0.8773367187109495,0.8519412001165301,0.843500699760936,0.843466648645165,0.8488946071308581,0.7917316022018395,0.677763372252187,0.5472289400971984,0.41118711069479774,0.282500657431656,0.25118695971449734,0.37448352867134815,0.5297535370263162,0.6833108550445592,0.8241932579338487,0.9508676103512612,0.9944264079546752,1.0000000000000004,0.9564742660201975,0.8546458467965641,0.7422715679663274,0.7228447383520682,0.7976672560253824,0.8477775622732473,0.8694621019917088,0.8352815407180496,0.7673268495832204,0.730472827048779,0.7502206528908157,0.7364323056521549,0.6549942891027509,0.5336910687841856,0.4080355867880199,0.2630040244433176,0.14923593174031957,0.214919659868265,0.3558121407397379,0.5004412229668502,0.6240062597178637,0.7525263932103372,0.8571636150726683,0.8846882647628322,0.8705057947262218,0.7925862425351227,0.6821686027422751,0.6101118576825386,0.6528562761057568,0.7239492597814636,0.7758298360675315,0.7830957321842864,0.7361643802900053,0.7238000166525507,0.7282483989801483,0.7408477511679732,0.6731458328883915,0.537901952179471,0.40378602813273146,0.2695093000148785,0.14384783126442047,0.16759918430417553,0.3064227169457454,0.451571148120689,0.5986408201059366,0.739335685161099,0.8746373512699321,0.9392312475641154,0.9171801803484456,0.8640075131765035,0.7584688176209928,0.6536651493365029,0.6497368879892229,0.7237563679095365,0.7845403145087775,0.8088171188887112,0.779017958336985,0.7440161639348046,0.7488119627215708,0.7548170444978046,0.6972294486198956,0.5798184364952745,0.45196658077452767,0.3176940130009456,0.21068760296004996,0.2704421808821915,0.4201023291752648,0.5243044799591177,0.6408896364168499,0.7801023871631791,0.9099554320536436,0.9762670652206826,0.9555156967735545,0.908161176294155,0.8688480521205606,0.7601972882220625,0.6385322231463237,0.49589070272176894,0.34627405972309555,0.21111351926651123,0.08919491739424856,0.01730864113085895,0.0819117918072072,0.19933194807761634,0.3349550073295129,0.46813503438850335,0.6007913923416623,0.6714675250069075,0.65702252825186,0.6706786202983328,0.7008288089191725,0.7297223978663054,0.6956277267286626,0.6217900715140172,0.545134389600566,0.5405224940433015,0.6324810720361964,0.7418154159662911,0.8239893659294659,0.8409866680362845,0.8146473523748412,0.7038288670271071,0.5661283996374942,0.4126142218253497,0.2554412194584299,0.10769208522301943,0.0016942435548070733,0.029020271068924686,0.1264314296236142,0.2727308032536375,0.4143750501941139,0.5426555247933136,0.6440754149405361,0.6552399694091484,0.6573054114266679,0.6659778333583737,0.7029296559349043,0.6964205557268923,0.6236039485468567,0.5564740539821083,0.543125071518082,0.6159453065061933,0.7232854676015141,0.8082048233437269,0.8011768545437734,0.7013053277188219,0.5613323452699124,0.41828988765199115,0.26974617475705864,0.12798934373944526,0.020217505326497243,0.0474856379505777,0.1566210783866402,0.29682633123716995,0.43201019141505537,0.5575213651236517,0.6505842799229491,0.6743523443821582,0.6431087727116696,0.6655587293256437,0.7252862259279369,0.7854415299757846,0.7797096814555058,0.7556138128756871,0.6877804459708563,0.611181182390947,0.6411227352095676,0.7484159698367439,0.8572207459525112,0.9049965508890447,0.8590652895179929,0.7329043521790419,0.5888775308002727,0.4448320020697656,0.29382434125724544,0.15819141510122225,0.11293876687886906,0.1883232283943741,0.31167852381881467,0.42358095072932445,0.5521444035112233,0.6882902347175182,0.7527586120006848,0.746647743987138,0.7549485815542072,0.7821088653854162,0.7791878457431562,0.71414231887197,0.6361857252159537,0.5746054274425663,0.5975043156153355,0.6967051332809708,0.803631870304645,0.8664487735155317,0.8623245609613854,0.786420385890994,0.6363548315527523,0.48974549033618286,0.339601506835169,0.19186331877378704,0.05484621823754221,0.0,0.0712571375050679,0.20045668753892798,0.3434614807465919,0.47568536278198126,0.58591137832844,0.6280534268026661,0.6353763773197825,0.6519819774116211,0.6849856429664594,0.7316805131599864,0.7014221710031601,0.6391103497644872,0.5633657144324138,0.5242382468512679,0.5812329604074802,0.6924411720918688,0.7774689042906857,0.7892594137910987,0.7193460654886725,0.5921350833163972,HB
0.9157068259512677,0.8573146066681405,0.7729995374607166,0.6743245963376987,0.5722875254430535,0.5058689079666141,0.5723207316603893,0.6780222316171916,0.7854044376666365,0.8860190866106405,0.9808166234468718,1.0,0.9572903268278254,0.9126010537378155,0.8389760380765339,0.79293274072574,0.8400231847475232,0.880546047681056,0.86857394376858,0.843234667067772,0.8364467303855547,0.8195263772688524,0.7722863056209823,0.7582476400963654,0.8079116701705942,0.8657966975899105,0.9074886706702505,0.9191780869287203,0.8841748172150043,0.8125433726097331,0.7364624289139807,0.643490846195371,0.5369656761032855,0.46302809808311274,0.5188822167222731,0.6117640519760645,0.6976145515534653,0.777795850741783,0.8714350078557047,0.9633193083875853,0.9738586489795813,0.9270681786590704,0.872086056608266,0.795197510129799,0.7769237372744584,0.8351293428894577,0.8634113671523578,0.8392535315363883,0.8212881320667613,0.8135755229752917,0.7962801465261171,0.7569146455330658,0.7467021002176273,0.8005509000234119,0.8564909563497105,0.8940165637975093,0.9030055052539576,0.8644983511977089,0.7895249357962417,0.6955355010049897,0.5949808105021119,0.4879177464835349,0.4103581600054198,0.46240172713339134,0.5686432710664782,0.6692665477920718,0.7643711201118406,0.8570913388363348,0.9436501492613751,0.9326423742401213,0.8844814651352508,0.8438451998753624,0.7688306433693541,0.7593018275072982,0.8203240294878678,0.855120082070643,0.8446274276453483,0.8164533801304794,0.8019086738271792,0.7931706468885942,0.7511498429590338,0.7192437386766748,0.7593928373061003,0.8200570290319265,0.8712158955227276,0.8969198685896362,0.8868974354887345,0.824862697405899,0.7419518641871552,0.6468542680009852,0.5449055929022499,0.43655652773612186,0.356863601682198,0.4155710274966955,0.5171876391272245,0.6222368888562788,0.7268321551708758,0.8294165437062706,0.9264752944724663,0.9448766616517981,0.8913114564570821,0.8440797673310225,0.7706674296126619,0.7410389095251868,0.7948793883628873,0.8344440421860293,0.8173174628689692,0.7986987785480848,0.8143293115266306,0.8069195658762811,0.7598789507283028,0.7297952782990222,0.7681735865900463,0.8285216984246206,0.8615357028201271,0.8180212878229867,0.7540924492276524,0.6886240333592832,0.5952638125591063,0.5197992042047306,0.5378719469448294,0.6281309744242176,0.6912813462394429,0.7400729709099567,0.7702277044108328,0.7632753544786359,0.7740447084285205,0.7904409689149059,0.7532661907393678,0.6961902105215267,0.6932078664406551,0.762998083525944,0.8338330903315809,0.8537036851271049,0.7821930228284242,0.6813817462440592,0.5751207721317042,0.4661827737945605,0.3572232283738397,0.24839897066687855,0.14455089505901064,0.04865306916864842,0.033979633873503445,0.12350350792969222,0.22483160562537052,0.3309548441650847,0.43971074507598074,0.543171344188623,0.646289981225739,0.7430086017958446,0.8259306984355834,0.8537993708923282,0.8296687648632692,0.7754257414920256,0.7142210269115195,0.6780051411689161,0.7009997406950963,0.7476237577247342,0.7615336105703083,0.7699831596886417,0.7962443363766338,0.8113429198835822,0.7857277013181347,0.7200008920361691,0.6858557055514947,0.7371191569120752,0.8146163726708853,0.8507682047559653,0.8112040827739138,0.7123425851232397,0.6046136780874121,0.5032528959610916,0.39655527246971056,0.289676127823413,0.18841720828763142,0.08284915791804481,0.0,0.023281859038434494,0.1192432503263181,0.2272308288604541,0.3361885670957345,0.4451480326348578,0.5537012966624311,0.6551789140056585,0.7480820398926229,0.8238293998456347,0.868744876499143,0.8556658144652383,0.8090545123180319,0.7484059653469195,0.7013560168676154,0.7178075719282904,0.7568510838803384,0.7762102618669684,0.7802719397857778,0.8051817235248893,0.8113162104707112,0.7612073488083804,0.7061956814224504,0.7362497398475183,0.8107943503995454,0.871884778693458,0.8935326620952155,0.8261056868566485,0.7181779812105775,0.609310805877247,0.50487572969491,0.4018343572182035,0.29622160818388155,0.19432735693667325,0.08826999045559747,0.015481971106166337,0.05972158442262221,0.15870580671965206,0.26469616192157797,0.3725929675086799,0.4738311625210796,0.5803174677280278,0.6816671507690337,0.777975738146558,0.8551491076042816,0.8772918586359635,0.8551199901661908,0.8003554460977285,0.7397486861536802,0.709580509995321,0.7420022893709342,0.7887667101673277,0.8005724441862305,0.8065808276810174,0.8320641196006053,0.8361120203560963,0.7832961491224222,0.7381352280665203,0.7735355755891988,0.8516858905787388,0.9086998424233159,0.9039050804355151,0.8121641821422942,0.7110872440841869,0.6039514344753003,0.4950002597456693,0.3860414969865522,0.27777057173043906,0.17628287427208855,0.08210487110495746,0.08495210183061253,0.18087259783385323,0.2859838288487173,0.3883123924163545,0.4968582735475542,0.6025827673331499,0.7030910524605154,0.7976910919921785,0.8721786733044268,HB
0.09609040539220137,0.07479439241492747,0.12949655382304393,0.21351305605524562,0.3096943289681273,0.38816093571505217,0.48197173224664347,0.5804721712733509,0.6706660775637672,0.7969764598140223,0.8284939693865478,0.7243526933621509,0.5902743846274565,0.4901456526411794,0.4200539916325119,0.349711717509567,0.40425301155990434,0.4503287517136365,0.46185822565486756,0.37987467828613797,0.2686708274779188,0.17545802043818925,0.1527945574394418,0.22438625662566336,0.30534426474791054,0.3752869455410339,0.4584968084033916,0.5555522144135141,0.6652679913936588,0.7520235701535771,0.8710412270008758,0.8739592200517219,0.7521143410053552,0.6744430428197812,0.7334513638820246,0.6673444018104697,0.5289678334901424,0.4189714816337391,0.44718680398034305,0.4593143599793903,0.37833086907502356,0.25861066048252646,0.15557941475891646,0.1476138828127267,0.2270992058605814,0.3083254578122623,0.3820382240454836,0.4574170795157313,0.570537586952554,0.6939785714022131,0.7968081720549383,0.893445664012912,0.9508112029660256,0.8663467094788659,0.7583177092558064,0.6748526816062639,0.5544838047315808,0.5205504921602926,0.5128041287860405,0.5331064835197354,0.4802743319418745,0.38927167514379546,0.30157707846524984,0.22408281979060618,0.2539272581718022,0.32753631790013094,0.42671621156053474,0.5003871115560519,0.5828101092948574,0.6935089931797309,0.7888792107527807,0.8983450876821331,1.0,0.9547412818750747,0.8310046416104,0.7132022216128919,0.6233599497345477,0.48892616799538935,0.40135060357963903,0.4617650413426815,0.4834255850921423,0.4834116419571064,0.45929531725363715,0.372778723415911,0.26207857468172335,0.1395673367153556,0.11630368978543171,0.22344634633117444,0.31354652544852746,0.3990352393826604,0.48108168040813304,0.5368253311564808,0.6055755852332307,0.6767976043524819,0.761607628659537,0.7427857761143635,0.632964648760983,0.6137932445665855,0.5376582189045771,0.4584582642559534,0.4419735012159718,0.3729437251751513,0.3524364061491885,0.4201305035834513,0.45340850510583364,0.3996816727271324,0.3047648492190276,0.1949193699920726,0.12072319866342607,0.15356116331883252,0.26375394430218835,0.3483665769189801,0.4368830980862959,0.516367433472908,0.6247879060579438,0.7467758735919601,0.850245333038651,0.860356815101941,0.7681225345335849,0.6579721749989873,0.6225193112582286,0.5152773032531308,0.4113280658034504,0.4044265889129881,0.4394666756459573,0.48955320694078,0.44928777721999325,0.3796121764436329,0.38917090612224436,0.35776412676306446,0.32778221248344774,0.2720744179305763,0.25288095375393027,0.37082362560775284,0.49031847729573874,0.5759302487888518,0.7001908409436419,0.7613928768880172,0.6889069283944176,0.5650088341326249,0.45761625104929715,0.37679164327796677,0.2930775890162436,0.20053160636304979,0.08944556533087944,0.03001860531633893,0.06331469392440514,0.15257346125054383,0.2687788423414341,0.35372955433463193,0.3564126816997981,0.2894059625038312,0.26744677132822536,0.3248471332725753,0.3633280513793955,0.3207302726480319,0.3797686620714331,0.4180700512755884,0.5104839094518354,0.6161179433400972,0.5903835774442219,0.5227378750727829,0.4610823084502753,0.38719001270783293,0.3008734400262485,0.2108510923552016,0.10282942348473112,0.022302650472659558,0.0638418698664438,0.17895684831428404,0.2930841802109381,0.3702158092226999,0.396582174785145,0.38675591377123375,0.33414119714386104,0.20917404210416146,0.14369331253208673,0.2386859799720833,0.37711213719887615,0.5083187342969184,0.5765995117459881,0.6979071561222736,0.823262708546249,0.8261162706986491,0.7207601680631486,0.6204727339003213,0.5166547375520358,0.4407638701968639,0.3577830151348125,0.25681970588354863,0.18207422196480838,0.12259307774153205,0.14035099238666904,0.23712810641975945,0.33105951474247064,0.41336965544609816,0.4227902231877887,0.40423219215858097,0.3329464287999513,0.38542899020697385,0.5204809811803721,0.6045325856577151,0.6300329507780464,0.7450388208790759,0.808992366128233,0.7389578341230112,0.637796403777076,0.5223302863786756,0.40634422912262513,0.3324486713635606,0.2534022346990801,0.17521069432858383,0.09805192756504644,0.037225540588586625,0.09477813168540594,0.20313403889356563,0.3149886732632945,0.3620717007954619,0.29111078239331034,0.20329261710990876,0.2725196760535735,0.4078018745156906,0.46601205911401955,0.5085418328540019,0.6399134174791232,0.7192713667755228,0.6409779435277501,0.5658553572503346,0.4501303624531583,0.3623913117491191,0.28635387609271445,0.21036474694619,0.13030555941212008,0.035286769267075524,0.03858082823475506,0.11542945007592875,0.22050775787390897,0.32424145750364675,0.36429860586581064,0.33508865846662816,0.2352127026313373,0.1496436947292552,0.22410861263604032,0.338565255826595,0.40210831505988764,0.5048507233844419,0.5955702273622538,0.5439750590053869,0.4658490193250495,0.3633092415004904,0.27699858378469333,0.19769518673500208,0.09780187375778926,0.02664448575302636,0.0,HB
0.6506034200371517,0.6555476762429714,0.6442243203214252,0.6005466774448526,0.5377663508136822,0.4641139380789313,0.43454197058609034,0.4900818219298947,0.558514539988786,0.6193965076796112,0.6452119700772908,0.6479524740809274,0.6465818611837312,0.6198993770777953,0.6069931750340413,0.6340322616449817,0.6654534349896931,0.6670253457347545,0.6205641488177703,0.5650512120203194,0.5007613047320477,0.4307638592143169,0.35918351646455704,0.34220806754186006,0.4039332199932034,0.47349700663877703,0.5438831930320599,0.6143822434169285,0.6516396238345036,0.6357177650774936,0.6289411194670546,0.6474299009418291,0.6521244144038963,0.6191405811436627,0.5574622355966335,0.4898029081555181,0.42050819380954885,0.39190565156622104,0.4470382888928327,0.5157787088513984,0.5831658262376297,0.6447768511574542,0.6598758507151038,0.6510201296413086,0.6536020524933223,0.6537530755608537,0.6628452466099238,0.6750153930239139,0.6575514813853208,0.6146802596193736,0.5516430381774645,0.4836232116865039,0.4150775299059487,0.3768432886274119,0.42925141296461555,0.4981292550731945,0.5655086906226584,0.6293287494528997,0.6666800001685543,0.6720403160604195,0.6662221155211828,0.6732173695586178,0.6912362467359846,0.685928169887518,0.6532144928536271,0.5972708620314348,0.5275777563767524,0.46065275689662466,0.4505570201197203,0.5128694209854191,0.581974457731047,0.6480693307873043,0.6952627609004777,0.6966195157076823,0.7032560711277988,0.703689413887976,0.695852175401949,0.7218883995540762,0.7623035616846155,0.7998486697998081,0.8175426998178471,0.790231056010254,0.7322992044417508,0.6618940038111126,0.5909784097963563,0.5248022350338849,0.52636038469788,0.5926032695184161,0.662541637883754,0.732293075256249,0.7993488613954766,0.8430723185876542,0.863345089915423,0.8834027909775174,0.9083315268377333,0.9352194339841856,0.9663831152215193,0.9999999999999999,0.9953436786360864,0.9321233754932031,0.8605359609181839,0.7859147611139504,0.7090775179133507,0.6357457550995206,0.5624615975249322,0.4856048152432516,0.4087532043278631,0.3376019586559498,0.2758807032371078,0.21064091526001327,0.14716722774802193,0.13526967424557523,0.19614662629165325,0.2658962158838045,0.3336314474423808,0.39218039632164003,0.4258224918663859,0.47477408381091235,0.5324876302998512,0.5208871190206957,0.4652806270970252,0.48375908189128614,0.5354145379135181,0.5211466935574961,0.4587661923746663,0.4179664240262889,0.41240061151183116,0.40766538641430927,0.3864121186052102,0.33952002333051845,0.26961844362142084,0.19903568923633952,0.1285988886384991,0.05894559165758362,0.0,0.005420637753566715,0.0710321909205539,0.1422218342750322,0.2154105621986454,0.2799617970530953,0.33844308521099087,0.4110904153679332,0.48537191384909695,0.5577470918143058,0.6344615552528646,0.7114248912730882,0.7881628895853231,0.8606479893036586,0.93237101411415,0.9608516808285187,0.9330763394245206,0.9042299704965163,0.8810457826040267,0.8584674757240797,0.839218970771224,0.8137402537018014,0.7577109977060722,0.6893113949191719,0.6199717158967354,0.5487776679529336,0.4788164863391823,0.43449183637002975,0.4724212702463627,0.5425919780807097,0.6148233440128884,0.6821613397463847,0.7454466823018909,0.7860078736763917,0.7706616498608719,0.7322503472044718,0.6913560677098886,0.6708371205930702,0.6785238184867303,0.6786782397814816,0.6722342069870567,0.6535540512122181,0.5924363566420513,0.5245479511510157,0.4548241213225964,0.39065543552845605,0.37113011237608706,0.42512958428985714,0.495881793701786,0.5619549660122377,0.6217401395211203,0.6616207015294032,0.6624355036093653,0.6466592835730262,0.6432848309579721,0.6489822663964279,0.6313954456746106,0.5736918789818534,0.5072224528344659,0.43869949093308713,0.36925732689613266,0.30079847374237045,0.25636434321389767,0.2934677100354076,0.36371010292492045,0.43619277281204727,0.5038639329158375,0.5706634996489822,0.6249019263750727,0.6467531563707226,0.6364233597161234,0.6286933042670669,0.6303211322817684,0.629032521868068,0.6260696490574394,0.6018451702976101,0.534830930553975,0.4669502106893192,0.3988278256805494,0.34309736661478396,0.34816899742509644,0.41639500025934917,0.49060938635113527,0.5559832067766702,0.6103568740367583,0.6257160399278873,0.6099971358914603,0.6022366823671842,0.6201930518500166,0.5924777955543082,0.5267889533435376,0.45755792062813494,0.3872348011484906,0.31250039953478126,0.2457115407403263,0.2188330939951515,0.2684138030213733,0.3398834135637685,0.41192983055724286,0.48380498824083207,0.5551160159244443,0.6191238768187898,0.6430266858587453,0.6156056952004195,0.5844592093518756,0.575373642400918,0.6053630870993344,0.6261190312011401,0.6201919693598744,0.6036784621914438,0.5479349581122451,0.4895126865648306,0.42345311738365987,0.3612470825096332,0.3523362661453795,0.41186197130045443,0.4828616850803561,0.5508665343410123,0.6071544291176504,0.6305487536287354,0.6220050488304781,HB
