0,1,2,3,4,5,6,7,8,9,10,11,12,13,14,15,16,17,18,19,20,21,22,23,24,25,26,27,28,29,30,31,32,33,34,35,36,37,38,39,40,41,42,43,44,45,46,47,48,49,50,51,52,53,54,55,56,57,58,59,60,61,62,63,64,65,66,67,68,69,70,71,72,73,74,75,76,77,78,79,80,81,82,83,84,85,86,87,88,89,90,91,92,93,94,95,96,97,98,99,100,101,102,103,104,105,106,107,108,109,110,111,112,113,114,115,116,117,118,119,120,121,122,123,124,125,126,127,128,129,130,131,132,133,134,135,136,137,138,139,140,141,142,143,144,145,146,147,148,149,150,151,152,153,154,155,156,157,158,159,160,161,162,163,164,165,166,167,168,169,170,171,172,173,174,175,176,177,178,179,180,181,182,183,184,185,186,187,188,189,190,191,192,193,194,195,196,197,198,199,200,201,202,203,204,205,206,207,208,209,210,211,212,213,214,215,216,217,218,219,220,221,222,223,224,225,226,227,228,229,230,231,232,233,234,235,236,237,238,239,240,241,242,243,244,245,246,247,248,249,250,251,252,253,254,Target
0.15586993399901938,0.17679337094780967,0.20987579923580768,0.2139087244870116,0.16941250667098073,0.12027113020556046,0.0716095909224509,0.028632113813033988,0.0,0.022965215116551585,0.07035538779265382,0.11398366791331227,0.14762544226339414,0.17130103354008563,0.21163877953435672,0.26059880725594076,0.3083891001102804,0.342669651368822,0.3842781556825178,0.4333122912443349,0.4824606994655366,0.5306535527145483,0.5737701231081361,0.6219506613593034,0.6710988594634225,0.7201908642580422,0.7655340362926505,0.7919825008316975,0.7599399577837987,0.7178635477636094,0.6787280786047832,0.6339020520603017,0.5848212116644317,0.5357308831109685,0.4902090613493427,0.4452620041881393,0.39919999504023373,0.35941501303100665,0.3210759129817363,0.30101968870681806,0.29109513979407564,0.28767676115869667,0.27766611894665394,0.26224536702902845,0.2771611728168605,0.2949367912951598,0.2978081312531312,0.2754027799092388,0.25716645711973507,0.24128442931950922,0.24122000741383454,0.26004006419307546,0.2760968340921658,0.3054544748305833,0.32901329165934545,0.3407544538060471,0.34670558051877587,0.33915578832492665,0.3340154191529622,0.3473437965776972,0.3387737083634975,0.32315137707425456,0.32654936971899573,0.332438217382505,0.3206007398879881,0.28295074864827063,0.23553189447541,0.18874068797394494,0.15579914580949594,0.16926418059163428,0.212312252915568,0.2579663569012586,0.3070652648873561,0.35600734475622564,0.4001532156125428,0.4465768284826922,0.49570199095570155,0.5448517129348279,0.5935901347257128,0.6370481290192628,0.6843470798034926,0.7334885591747885,0.7826304939053471,0.8275108269194992,0.8258812951588203,0.7840842977240589,0.7417767244480801,0.7009854883898073,0.6619736248025213,0.6250632560643731,0.5824130074805526,0.5356126032785647,0.4890083349910158,0.44524105885125176,0.40140720153845233,0.35614307726508254,0.3195822141595329,0.29702175963636523,0.2788876373745516,0.2684318404430285,0.2614398154213279,0.25498152511604666,0.23982474108305374,0.2292684012325007,0.24765581093504874,0.269355958620643,0.2978422974062328,0.32737544561138254,0.34609746091276017,0.3537376146939538,0.36352129203785954,0.358744785474982,0.35689001675390564,0.36046829503873934,0.3486604169024491,0.33799874650112527,0.3357912954158787,0.3201663285378843,0.28326346943771885,0.2365469584947827,0.1928628539854057,0.14592252077536239,0.12000127108105174,0.14452069239575638,0.18769315897524186,0.23655678679944614,0.2856962429341242,0.3328795227283182,0.37643367602339495,0.4251935978072737,0.47434319572434924,0.5230203498043332,0.566415727773876,0.6138373245014231,0.6629800797212918,0.7121248120065283,0.7597305008395535,0.8030028430398287,0.8480211895424815,0.8424027880966639,0.7999730833216133,0.7555191694876656,0.7132736190313745,0.6705065258094037,0.6245611421777212,0.5806282097595722,0.5346024112058808,0.4903785475205008,0.4446574293965394,0.40043091155857347,0.35877683537950367,0.3248857782048974,0.30116492113754834,0.27970242983142646,0.28180284807707634,0.27660452051122897,0.27235009072196215,0.26233090709376905,0.24632303927132482,0.24826271371059605,0.26447053788929786,0.2890091501832207,0.31568970672924845,0.34286499266838033,0.36361322436016386,0.37143593365104033,0.371088961343793,0.3732345201339434,0.3859181781913138,0.37762125077850717,0.3795116959906871,0.3848634592836925,0.37969130284369246,0.3546527998279755,0.3139321146184618,0.2688222222707194,0.21975768998080591,0.17129604293646683,0.12823995145314593,0.08731669249549057,0.06450329311414593,0.09037532013955019,0.13293031242572562,0.18088329763879407,0.22999634416173487,0.2761372459896615,0.3205333629625914,0.36951741811621386,0.4186672616325432,0.46778865966122674,0.5140826929203578,0.5583430301155253,0.6073039863353026,0.6564538298516301,0.7056034651742357,0.7542624422038485,0.7975621926085655,0.833161310103382,0.8101450564821385,0.7674754739170021,0.7271033675153614,0.6848527754546808,0.6383199064063266,0.594850192600291,0.5475597670227027,0.4984566007845085,0.45258243043070456,0.41050917372623974,0.3754827779627893,0.3521764014503984,0.33596111059132105,0.32653859152183407,0.3205304491578739,0.30421286108168466,0.28143711485126144,0.26960521189158204,0.2688629086685498,0.2824722486922543,0.30886543803430333,0.33571686964887426,0.3564564730940786,0.37993225092265226,0.3962314743606271,0.40207575089102676,0.3900262379915468,0.3958258875360673,0.4119045564980931,0.41126467509482156,0.40799021110465084,0.415099023931112,0.4321284726571427,0.44517604120797316,0.4256092022758028,0.38136258881617013,0.3383354741486472,0.29604903313784814,0.29349520398916884,0.3305926624187018,0.37595191502149394,0.42503738112263034,0.47418722463895946,0.5233370681552888,0.5724869116716159,0.6216366833580932,0.6704645441165654,0.7141712419088552,0.7611351384172508,0.8102734798907044,0.8593873243508562,0.9054800991575461,0.9499174264050222,0.9965697360531726,1.0,0.9601770124649148,0.9206019631219159,HB
0.30885768763110927,0.3129013516083083,0.2750652672027984,0.26176675553881606,0.2879792023710596,0.31561527599609535,0.35049148989557183,0.3828307027647177,0.40770747222347553,0.4139511689425734,0.4376580635155923,0.4527676199212058,0.41980027179076934,0.3689319174093198,0.3159302156473834,0.25972278019755307,0.20557341793488298,0.15041929717476082,0.0937523664375911,0.04047202320444715,0.0,0.022222367702991408,0.0776641004286151,0.1347208054833951,0.19178008580631983,0.24883936612924434,0.3058363147472745,0.36058856839356485,0.4151128847675108,0.47208673554085295,0.5291460158637773,0.5862052961867024,0.6432620153972854,0.6996354200219985,0.7530768338054437,0.8094552615713184,0.8665116937934509,0.9226539936553169,0.94877923768603,0.911682706658774,0.8649775817797813,0.8199273841351737,0.7655739780649384,0.7121493237319629,0.6572885392382595,0.6035229725913793,0.5497130713860356,0.49849871061643763,0.4537952218052745,0.41206724644375164,0.37090403945695355,0.32897759041196656,0.29122119300645616,0.29113598648171474,0.3264793525270298,0.3617366293121516,0.3894759014157943,0.4011339691543439,0.39811846417300006,0.42561632558778967,0.4543907295140566,0.441812660170333,0.39173828485514756,0.3354015409100723,0.2818820773396054,0.22582195643102038,0.16917960792657477,0.11942689602085116,0.07438267909630586,0.029752988087376753,0.0266633298975541,0.0746761423209652,0.13137524870404965,0.18835794498150454,0.24294964294069837,0.2976305936864036,0.3546221059872086,0.4116813863101331,0.46874066663305797,0.5257963743874843,0.5820745640267553,0.6355256725978153,0.6919898472643804,0.7490473163675913,0.8060368664098609,0.8607027235460085,0.9153113098219372,0.9717131735007882,1.0000000000000002,0.9569812282833634,0.9000318288176385,0.8433035703433607,0.7896677843191711,0.7346820608865718,0.6812345165090754,0.6257894286369245,0.5724836579294004,0.5199523651453346,0.47208981949909706,0.4304443656344094,0.38914588493105545,0.3432926477184907,0.29970450256869313,0.26780681232382425,0.2783276855297298,0.31382903042676297,0.34443900877896966,0.37632763770190786,0.3898371837847047,0.4006192785273495,0.4302975679567141,0.45217977222240685,0.4248005405164828,0.37302575467050186,0.3188574632195253,0.2620468965814668,0.20774778894176976,0.15275973975985208,0.09635026934086927,0.04344890241069199,0.010481907567604254,0.04403523243757479,0.10012074231129148,0.15427968846685952,0.20942536894492597,0.2664502551178643,0.32350953544078814,0.3805568876279131,0.43633070907217814,0.4900068461652198,0.5467573052942616,0.6038161851753212,0.660875346335287,0.7177370493130284,0.7716723620880075,0.82708550874053,0.8841228252316775,0.9406698545713861,0.9713250801393041,0.9327555441049327,0.877821319942506,0.8239720465162439,0.7683316861942271,0.7147205137694916,0.6591661774646458,0.606100358683386,0.5576663678214084,0.5085841467812522,0.4585530302890061,0.41591411908855197,0.3744319762958153,0.3300679517868405,0.2854311572078892,0.24861450362286136,0.2554200680669881,0.2926929603679756,0.3281874882776136,0.3573859278692601,0.3848311760000644,0.39759820635025783,0.42329219408190527,0.4459024391325325,0.42323232240555914,0.3735237840076468,0.319992035593257,0.26534887254780987,0.2109359202173628,0.15446052893675394,0.10097066763792573,0.045727564642425556,0.009017925129808368,0.036662951446325365,0.08944967217191724,0.1461618782667839,0.20221334237814365,0.2557366801519381,0.3123568899383666,0.36941525273765846,0.4264745330605834,0.48353381338350737,0.5405930937064325,0.5976523740293576,0.6547116543522826,0.7117709346752075,0.7688272907989657,0.8251671652164227,0.8786109873346506,0.9338037398370311,0.9525974864735067,0.9055614582791505,0.8520706085745535,0.7964397592595063,0.7429173812844856,0.6870329773577648,0.6336408667400306,0.579443193385017,0.5264477078934593,0.47622713637172437,0.4318818526714369,0.39003051294605323,0.34860878900486564,0.30653322449988857,0.27611605210341167,0.2946614410683905,0.3307697351778996,0.3604246667706457,0.3885425552379829,0.3976963865118109,0.3943420915281702,0.4208230225138056,0.4498897270033038,0.4372229713974007,0.38928682983609025,0.3349700626266739,0.2811739295434594,0.2243600076068531,0.16730095011234009,0.11027408425561674,0.05556255988200992,0.024344827759756438,0.05716775786796929,0.11084570764653284,0.16769874329050388,0.22233986706976488,0.27697258492273363,0.3339586629073941,0.3910179432303192,0.44807674325150276,0.5047984402693955,0.5584323279263881,0.6142755480817366,0.6713245929648535,0.7283838732877781,0.7854422904324847,0.8418928031786388,0.8900412197883389,0.9234476627897124,0.8897586261195558,0.8348463624155342,0.7808110335015774,0.7239223806654291,0.6669712506884433,0.6126329709978282,0.5589029259645555,0.5072791286559861,0.4594527975404979,0.418291344878929,0.3779246404070537,0.3327313891884946,0.2888781357005111,0.26398033049848263,0.2856891022754902,0.32191550444603717,0.34913057135195186,0.3791315662423656,HB
0.24195110106042006,0.24211242919073084,0.21961850465001298,0.1936175324325955,0.1578423569323244,0.12462696413524532,0.0869804402618033,0.04356528160772388,0.012317485619295354,0.0,0.021907396172194282,0.0618714304183674,0.10222001468420006,0.13843600922174049,0.1728068284042552,0.20402564070990392,0.2305275568078653,0.255682769300728,0.28116651299253514,0.3187408006397878,0.3654557763763553,0.4155474845598175,0.4717307988870705,0.5224258305589673,0.5784120609403962,0.629437344695386,0.6849746571245825,0.7364653831250758,0.7915372533087679,0.8435297676292997,0.9026130050513734,0.9611918175614591,1.0000000000000002,0.9839551586360373,0.9361277336218883,0.8784397490802578,0.8309350996376039,0.7826314257360532,0.7312693215855532,0.6752615656666687,0.615947281976921,0.5566153672860417,0.49759334480429884,0.44579973248594773,0.39007661115047987,0.3307669484665108,0.27144910809322664,0.21519710137756243,0.164572204257307,0.1437516275229953,0.19181365925599492,0.23962743961535127,0.2846914313108764,0.32655429186817253,0.34920593263432087,0.35121911484538715,0.33719707766630336,0.3145747133625294,0.2959767124828676,0.2704265254000435,0.2466234276108492,0.23780472266678676,0.23780017175706125,0.249005132108143,0.262349143941488,0.2679953880369512,0.25140835023220975,0.22493899973883824,0.1932186973716994,0.15731467228339402,0.11977991980068525,0.08395263685761023,0.044956462224434945,0.018563397112411284,0.024048830111886632,0.05294406495742576,0.08663376897047215,0.13023472879246611,0.1660329624950927,0.19769535295445162,0.2245274842422864,0.24516339764436146,0.2711094621913621,0.3041490031066698,0.3501691126244142,0.4008986101822136,0.45243421025932595,0.5069213379764641,0.5574031938760455,0.6145392303763317,0.665579703174209,0.7205586366550809,0.7710933797534583,0.8255979686527113,0.8773896953876441,0.9244929117989626,0.9162998052087474,0.8715884055138192,0.8275262745763314,0.7778169135552846,0.7332372498923736,0.6867960194557725,0.6335709342637792,0.5743519184151504,0.5150219436495751,0.4570723933104073,0.40664322310779943,0.34850252952855865,0.289171667196946,0.23027912991450994,0.1789083872516588,0.12644454530102278,0.13086823354300892,0.179442834217852,0.2282948659447921,0.27263725392092564,0.30871204383196726,0.3177158056714866,0.3160298242187072,0.2980675009803988,0.2818702034536651,0.25941343005256856,0.23878651323301048,0.22872662007004685,0.22840404190101626,0.24014581289196735,0.26030598873672117,0.2673217175561804,0.2549181982473887,0.23080620264522134,0.20059944927909745,0.1639743338586399,0.12871452056601163,0.0941952095314873,0.059964070771025835,0.030566840675194218,0.03665894171879347,0.06834755071142729,0.10310676938121976,0.1381828591894967,0.1716931800502055,0.19937291033659865,0.22356294740105254,0.24351541982539193,0.2685534208506293,0.31631535366966324,0.3687102616779405,0.41913681007105574,0.47423244125132746,0.525085171383876,0.5788328632087298,0.6315842633413642,0.6832454768539342,0.7388242117414332,0.7917595652092755,0.8455717011271784,0.8944535417183499,0.9202620126118035,0.8908195802550722,0.8347654950341583,0.7843396693014866,0.7261021164608403,0.6667710541210188,0.6076286112700828,0.5585450313629583,0.5114094318254068,0.45240187524547504,0.3930761531786662,0.33593240078613396,0.2851491906307073,0.22655546552901829,0.1687227291016753,0.12016257803047359,0.11548472509474417,0.16797551428301016,0.21584866358972254,0.26093472312031607,0.3008699223694209,0.3237246245888128,0.32726596007395337,0.31642308252112383,0.3044010186920032,0.28577564182322535,0.26211338561652875,0.24324111493577916,0.24767327425694385,0.2521812954211864,0.26089777887885246,0.26863032947462506,0.2598566708938195,0.24040273147061808,0.21097804053659797,0.17450925923603733,0.13385056629913894,0.09930709379777292,0.06231820240846142,0.030957411665720747,0.015879829897384345,0.04227823423418653,0.07948946706222992,0.11325546409056786,0.14707538872654258,0.17956673156903635,0.20798921782401236,0.22830725578584032,0.24967202486507412,0.28505240722320235,0.3299182883311025,0.3795240947807146,0.43388928873394605,0.48601803020444634,0.5412985189732551,0.6005966120909549,0.6594806612488135,0.710599282535991,0.7664430238494828,0.8172778658395592,0.8741961900303992,0.9275236848368429,0.9729409714133606,0.9715006169598015,0.9202567420053531,0.8687557042507887,0.8126981372798052,0.7533973266446312,0.697176578614161,0.6458108633925226,0.5868665407853968,0.5275347737845022,0.46874446122916313,0.4177024602976862,0.36101072702691384,0.3016862072749853,0.24239017815717823,0.1872035723740053,0.1430735987377325,0.15943230356865556,0.212802305968828,0.26716723967879585,0.3073996000596817,0.3251806146837968,0.32789249133507914,0.3127582511643161,0.29441731134210847,0.27984177852589687,0.2541392464122574,0.23034412717639063,0.23424735737464797,0.24674140482508067,0.26192119064044594,0.27654592879826323,0.2710310350467853,0.2527903325273255,0.22165371060392025,0.18847672499129464,HB
0.2803480497606916,0.31345875343988716,0.3405121583759749,0.33523911591858235,0.32992604325254127,0.3383524288994404,0.3425743397768586,0.3371510234853785,0.349766258188863,0.3643888060257314,0.36526357102040974,0.3356397374196871,0.2898368200773238,0.2445300139257085,0.19539934133320835,0.14804104300342424,0.09675506849460236,0.049977674923763815,0.023489496928572495,0.054450957529197375,0.10135155079547153,0.15287254074858014,0.20513536276433075,0.25739974365968166,0.3096641245550329,0.3619285054503838,0.4141928863457349,0.46645726724108605,0.518721648136437,0.5709566138205522,0.6208487761772967,0.6690422318007152,0.7211254755824563,0.773389824640994,0.8256519904399584,0.8770697059540156,0.9239642084113735,0.9496312158489721,0.90940546656196,0.8598229972869387,0.8148726693383916,0.7781095021664193,0.7432493371969435,0.7061400344536364,0.6612753754748761,0.6102002378422433,0.5612312113498032,0.5126481082660059,0.46527976688532036,0.4175176908634295,0.37361836007583427,0.33705805934098043,0.30650259376748856,0.27717262460401204,0.24475107399241214,0.2085823161132605,0.1684377881261211,0.1315222284812413,0.11938009350219236,0.14100848881920935,0.17480184166150214,0.20962836849382238,0.24711157914839332,0.28319723333917457,0.31650978412971864,0.33894147343516545,0.33339158264011726,0.32873695311245776,0.32563674750215843,0.33013225055376383,0.35013861087624076,0.36550750561632217,0.3629518705854753,0.3247244630045789,0.27802315788279564,0.23184348518496922,0.18263011937206564,0.1349823324513152,0.08463306667804782,0.04394392350744403,0.04765011961186505,0.09436481452991874,0.1417284871767167,0.1928239793762122,0.24508382364845405,0.2973443073135069,0.34851220724046716,0.39586592617154337,0.4474887698524652,0.49975200015301047,0.5520163810483618,0.6042685557465792,0.6548176986968199,0.7024957461895103,0.7544204307176969,0.8066845575529191,0.8588424493925773,0.8968022619070273,0.8672997608402542,0.8181346330960566,0.769562886600234,0.7174337484223068,0.6669885743867161,0.6192255562017663,0.5676874585890732,0.5201480243593641,0.4722409939470842,0.4257575700349008,0.3823235297888088,0.3464177217541027,0.31736770542731696,0.2888909820830807,0.25522979458330286,0.21825363134866282,0.18092696937287345,0.14473994794261458,0.1285094638300891,0.14799992398653572,0.17959129270451524,0.2168889276839161,0.25697854657062624,0.29345648721001316,0.32751829449059744,0.3505256503835732,0.3444018862271023,0.33405358572463273,0.33037279774994155,0.3353839802823875,0.35582520684966323,0.37284158236447906,0.38164637670364976,0.36147673604762787,0.3178087442265236,0.27203252125446475,0.22408781630285146,0.17681400435159866,0.12576794592825313,0.07528083078238912,0.028527294570650397,0.0,0.030051660390361667,0.07727159099638048,0.1292047906570255,0.18128140923013525,0.22948444026797032,0.27937313324568236,0.3316083803379688,0.38387276123331904,0.43613714212867105,0.48839349423793266,0.5391776141436082,0.5867192877223522,0.6385414007614687,0.6907674199269769,0.7391718988603173,0.7826350208433621,0.8339200553117783,0.881561936424069,0.9321766458644192,0.9834273994642688,1.0,0.9549927630112756,0.9047505668213636,0.8568574850907016,0.8048594858832254,0.7533428608481125,0.706004277624676,0.654716655514177,0.6030436812208828,0.5556754710978757,0.5058950022648316,0.45924712367436626,0.4136325470404296,0.36989990368140657,0.3315839731390766,0.3025502572448391,0.2732025394095283,0.23675487183338773,0.1944507831733413,0.1535755506446933,0.11470990300684769,0.08477069680164773,0.08568923367004155,0.11533473439567776,0.15044777687425148,0.18814068093605507,0.22846412597073562,0.2659043849698628,0.3058036511723834,0.3369683185557373,0.34378275722951246,0.33307766262888006,0.3355842481156144,0.3437715514481874,0.3401431583059886,0.35639882855016225,0.3767980658441552,0.382261466928991,0.3677176336882797,0.3261710407722742,0.2797722809479919,0.23069079252363134,0.18265873023585844,0.13333267177928054,0.08489444189452944,0.036274457176776576,0.004872993003340653,0.03371675383012818,0.08381416333977942,0.12331613817530829,0.17008682064348857,0.2222784971869941,0.27454287808234445,0.32680725897769647,0.3790661081811175,0.4300863082322022,0.47749606353155327,0.5292117911464214,0.5814754354822533,0.6337398163776036,0.6859881194095891,0.7363516647919193,0.784169675160568,0.8361437491745327,0.8884079587299427,0.9401688615065484,0.9656795366708777,0.9254838445837208,0.8733095045219035,0.8225999362479113,0.7750249867445058,0.7231959930075118,0.6735170478371497,0.6251325861693477,0.573766147389267,0.5264303813728761,0.4761742913576974,0.42947130878115836,0.3863648490672742,0.3467696166825833,0.3163351768716314,0.28882363104984843,0.2545795708718016,0.2161569628605654,0.17261915691127017,0.13355197620567671,0.1012980590085445,0.09711344015833445,0.1253951850788464,0.15838720041717913,0.19491542164246223,0.232431168761281,0.27094081784218127,0.3088645779906978,0.33971901666005166,HB
0.15389628747409767,0.1796904812153306,0.20100891442420066,0.22103341985371494,0.2490852776109349,0.29278570032716855,0.3462833106454184,0.40240879066514257,0.45719749050617353,0.5161750972148142,0.5733596169197235,0.6295884298620793,0.6898082170910318,0.7489305773292949,0.8037816350271292,0.8634016793707897,0.9229035097460101,0.9765060314116738,1.0,0.953888672120947,0.8975719210370616,0.8406155108285336,0.7803248984164446,0.7199638053559412,0.6596043082447756,0.600048290628779,0.5452411495809635,0.48600980940386895,0.4256520492697935,0.3652909562092901,0.304929863148786,0.24456877008828237,0.18421332569627724,0.12755657570973145,0.12319285032893101,0.15603963684149003,0.16921422465423763,0.16040340721578872,0.162235224182655,0.17701587919524497,0.16742533077003974,0.17850065708232044,0.1998498247355014,0.2246021928822699,0.2591792291404147,0.3070031753454032,0.36038510349050545,0.41921865031709027,0.47487004709487257,0.532706405118917,0.592237646765795,0.6470678909958314,0.7062590264568289,0.7646572784485972,0.819885613001254,0.8783744090738321,0.9223534617559084,0.9044403457708576,0.8479130376461801,0.7878334561206046,0.7322095732625507,0.6743288029603152,0.6139939409079034,0.5536328478473995,0.4932717547868959,0.4329259396103442,0.37459288509531263,0.31931888231926586,0.2593209014201687,0.19896338234786604,0.14012490902838515,0.09299419533779374,0.08519220900845892,0.13144418892584975,0.16111273490436928,0.17641063210629016,0.16867358725341197,0.16302326701978087,0.146144071590103,0.11847037689449613,0.11555199307934605,0.13602180412304676,0.16502660375120093,0.1855824494053986,0.20240886047296835,0.2295420894652609,0.27770403401646315,0.33172226411176053,0.3894399534492179,0.4446302474965167,0.5032152391419171,0.5581169377320558,0.6176428979587032,0.6736543745787227,0.7310844987630314,0.7904033828128305,0.8444244596457655,0.8738423164208402,0.8325317339665463,0.7779156332889092,0.7182582845737582,0.6579750607414601,0.6011369285964694,0.5445702456689752,0.48430869082216077,0.42394759776165647,0.36358650470115284,0.303273345199468,0.24591108242584037,0.18983422188668841,0.1296363422977731,0.07080559829726196,0.05583415551526816,0.1043974525187994,0.14950794820061897,0.15736834746401862,0.15252475736005167,0.16123290457855433,0.1612435308375102,0.14734322940445965,0.12450550593677323,0.12687025663377005,0.14616473556269405,0.16738931016594383,0.182906861144984,0.200769655046243,0.23155463458196457,0.2787267309607566,0.3330881878865426,0.38873665479716757,0.4461506222042302,0.5061169118754343,0.5614324122270051,0.619711497476896,0.6796762994218501,0.7349000682906828,0.7932891104785753,0.8519412478533228,0.905741768723447,0.9327366942479973,0.8889592357107334,0.8297521054517449,0.7749444782964685,0.7155532454617677,0.6551946480503528,0.5948335549898496,0.5344724619293459,0.4741360502218408,0.4161651393660257,0.3606115739759139,0.3005217378127978,0.24016070584319915,0.1798027338988768,0.12233346757169872,0.11440533251369267,0.14498338031470803,0.14347550127638198,0.11634969346340873,0.08373542330018813,0.07516010537338591,0.10387639617972977,0.13372135106794403,0.15470616220234534,0.16629034931957465,0.1931364020229278,0.2331835149265511,0.28318717319225484,0.33687532131123343,0.3943302867987928,0.4530969319242901,0.508074469574183,0.5678830456853494,0.6271512238266528,0.681945877697284,0.7414518794254157,0.799364021143244,0.8549476488453265,0.9126818974086486,0.9424723415650682,0.908095892692319,0.8501903215024109,0.7898463171852794,0.7294852241247762,0.669124131064273,0.6087630380037676,0.5484019449432644,0.48804085188276103,0.4276797588222576,0.36731866576175265,0.3069575727012488,0.24674016340177563,0.1905798411974049,0.13434508257749922,0.11200557568361025,0.14191121788264582,0.1587422401965226,0.15479126497304585,0.13250114798362977,0.1207135127777661,0.1360967840676377,0.15860327172413635,0.17806081452600742,0.19605479337926557,0.22800328320563956,0.2720020416597033,0.32571762854412545,0.3804926149569565,0.43802727580097334,0.4934766684416756,0.5535220709252091,0.6114959542493392,0.6670394656231671,0.727122801599136,0.7852076379643098,0.8312549323372869,0.8855328575262,0.9394336427376375,0.9613306127797874,0.9168180874093825,0.8597672032259551,0.803623214665216,0.7434147071386925,0.6830536140781893,0.6226925210176846,0.5623603702570907,0.5045535557468597,0.4488733135472498,0.38874185546762474,0.3283807649315369,0.2680203382021169,0.20846001124742797,0.1582178530706433,0.10248128089186581,0.04761907218888295,0.0,0.024924236414802126,0.07884311700064384,0.1271441937551323,0.15525276505408492,0.17346400881123913,0.17005224833349475,0.15293578368701555,0.14831808959592396,0.17194038129562594,0.19433313965514332,0.21442377528113643,0.23436196166457202,0.24999322370909005,0.28689468553327147,0.33728004602156725,0.3913155822690848,0.4496457633498754,0.5045103528610904,0.5641448556403021,0.6196586746364052,HB
0.18681399524904974,0.16912516781177978,0.1787745100256497,0.1954024832192962,0.19233972471904948,0.17016290583736793,0.1348989841641448,0.10365735281676325,0.0640316390148774,0.032681159411676264,0.0,0.003632390444886502,0.03168727724662812,0.06641618110818959,0.09659580311489924,0.12956665378159338,0.1583547760827042,0.17764691733370852,0.20445024993240457,0.24281771641281602,0.2870144661070453,0.3325973886071272,0.38156202804228245,0.4313441822468964,0.47708296475659906,0.5279562958493955,0.5793415572264524,0.6305718576100574,0.6773931411622236,0.7257851295114279,0.7769904146037345,0.823219359402452,0.8512530188072276,0.8276373881787216,0.783445275630384,0.735616267092972,0.689295844626173,0.6381722564783396,0.5867865579065585,0.5354008593347774,0.4840151607629968,0.432629462191215,0.38126531656936047,0.3323411213577676,0.2888759642636083,0.249879869782079,0.2220525684491641,0.22074904227564374,0.21283328797072087,0.20069446954189973,0.1874117619926512,0.16849411113827562,0.17685416489450234,0.1929423103431689,0.18459597359031688,0.1647308794151181,0.13867818760910766,0.10848316168255057,0.07852109642759131,0.04802586756468008,0.03655044584563405,0.057862137292562954,0.08630164079668701,0.1181347348998456,0.14341568385216874,0.16828350058627195,0.18684780320338135,0.21503353103471534,0.25458519872613805,0.30150782996818126,0.34870626399535753,0.3966201002333889,0.4479448921617144,0.4991708487471669,0.5459514294049084,0.5943873642969459,0.6457388081899358,0.6971245067617169,0.748510205333498,0.7998898051212278,0.849701939061434,0.8954120902892531,0.9424740931688584,0.9589873123346428,0.9258353418702796,0.8763755956709132,0.8303482012042658,0.7809825798230181,0.7296090600385541,0.6784626501265911,0.6321034188091046,0.5831806720797894,0.5318151039051167,0.48050136485666495,0.4327673893062751,0.3853511844612907,0.33697614057076275,0.2918856128381233,0.24705508940855192,0.2206274144519751,0.22077845360069337,0.2201789694848546,0.21690671334562106,0.20642742286966254,0.18741746691896322,0.18728595343046495,0.1960955174336243,0.19131376557286628,0.16672569359838252,0.14003073723255577,0.10167626308105215,0.06838801612120471,0.03337399943164909,0.020284273226222505,0.041101223983072144,0.07491707313526907,0.10594287554233017,0.13517688671074035,0.1611203952220781,0.17858393262819572,0.2009279873952905,0.2388500559788609,0.28362871076020224,0.3332246979298388,0.38141306411364484,0.42842095776554623,0.4796697113863446,0.5308861905940081,0.5775779649366424,0.6261097831948608,0.677463627414566,0.7287278884019119,0.7758673945832151,0.8239218906073458,0.8742758266872599,0.9191157217745152,0.9449408557845966,0.9152205471704422,0.8646820837717577,0.8133060651698816,0.7637080180500113,0.7178421850215568,0.6668884620811575,0.6155029891012136,0.5641278919596435,0.5146678051746492,0.46871991840640614,0.4177867687157757,0.3701687829405813,0.3250102788491329,0.2791571191685496,0.2344490993887709,0.20796175787757232,0.19990805234790532,0.19666102876691016,0.18952373088599184,0.17248784640392034,0.16652813373501618,0.18612879866861531,0.1964148247826314,0.18011717398803362,0.14970280423044802,0.11484214785033764,0.0802865144914644,0.04763129386355325,0.01951544592020804,0.01752089958966674,0.04759975095773927,0.07704483671569129,0.10902507694582919,0.13592023354583804,0.1598856791170855,0.1772723484106229,0.20838406736985626,0.24587520518078998,0.28289816067191254,0.32898685753305856,0.3756864485410065,0.4241543445551035,0.4755065885569991,0.5267771677962034,0.5739758781875792,0.6219705546462855,0.6733005045852201,0.7246862031570003,0.775940986766559,0.822618619947799,0.8519917145393872,0.8278658576187028,0.7815956975977933,0.7341673158912154,0.6828961015253725,0.6340286914855198,0.5876136441281423,0.5364644308603568,0.48517574500628546,0.4378505273758513,0.38999655481262074,0.339127590986428,0.29453834870178364,0.2525106609526546,0.21700600700441264,0.21133076154288877,0.21165449706992567,0.20472581977521886,0.1939111115736738,0.17855327274252009,0.17682379980114082,0.1962818267786821,0.19935210458066766,0.1758899357966861,0.14958780617383338,0.11624403492077384,0.08527336736567692,0.058326262924197625,0.060619688392844706,0.09046546438504288,0.1196288404020196,0.14965881540908166,0.1726980257618027,0.19102367675271514,0.21541539158265577,0.2525412532840303,0.2984873534237882,0.34699520382043536,0.39710760904055786,0.4427069517082354,0.49261827311902917,0.5333627262686997,0.5760606164742292,0.624322806283123,0.6756707496996537,0.7269583092407308,0.7743191309758006,0.8221452774297104,0.8734536498487078,0.922871948369463,0.9684240497891243,0.9999999999999998,0.9740933220798531,0.9235737994033155,0.8721921738949823,0.8221526065687492,0.7765143037470539,0.7257795151954245,0.6743944638687713,0.6230252175526467,0.5739147543400425,0.5276937061584368,0.476640822441573,0.42840362532083587,0.3815787122323204,0.33473685160595323,0.28669244546001194,0.2436582773825542,HB
0.23029705672742296,0.21244055829429287,0.1826672885724422,0.14515644254563353,0.10468418295854476,0.06418560399391948,0.03484474427005413,0.05494871119747369,0.09488134952712513,0.13528457235484692,0.1725385541050447,0.2073490651733504,0.23809189878551895,0.2635409329070044,0.2901509890373736,0.32777265603660377,0.3752187447655476,0.4209442255781958,0.4690382488983339,0.515913034460488,0.5627468192885942,0.6122873753420789,0.6601466782784541,0.706109060263337,0.7555160882127437,0.8049031992574412,0.8469989160857115,0.8878480767528306,0.9368884283279478,0.979103825375467,0.9741966675485881,0.9317159750144298,0.8843057864523972,0.8347058489740892,0.7850892351142006,0.7371446938886609,0.6912544297284487,0.641861909227505,0.5922298840187007,0.5431253995324182,0.4976370429359439,0.44901370871428903,0.39939909702078913,0.35136088578817615,0.30850610486146157,0.2916569231631534,0.2813533533317947,0.25930583329543033,0.2422693424319733,0.2314477356541872,0.20607946824037637,0.17145154733341839,0.13164166688194312,0.0873787607510762,0.04915414191829237,0.055060549946830184,0.09274047136282926,0.13170033883465804,0.16982673738981813,0.20728130732440475,0.23698953050461147,0.25928092634133704,0.28409695531130863,0.3217894611148996,0.36511744719061145,0.4127201857605586,0.45953068290586285,0.506417285906423,0.5559604290092991,0.6037727269269747,0.649771560342309,0.6991893259199667,0.7481526933406287,0.7935890379684086,0.8412752551147163,0.8704643594743832,0.8474927778568021,0.8009776275154167,0.7513892682304347,0.701756231509003,0.6521231947875706,0.6024901580661383,0.5528571433868678,0.5034031217895646,0.4572905920532363,0.40962157356689344,0.36021455528757385,0.3142989008935324,0.27811083671022974,0.2761055103608048,0.27111215921632326,0.24857264762955877,0.22808544110187368,0.2301064391855413,0.21346660221606528,0.1796725869432313,0.1398190299647285,0.101143122608506,0.08414800297105174,0.11144868133070296,0.14921370285777769,0.1869572239207744,0.21815467854089665,0.2393096653375969,0.25313616055654176,0.28235608120667477,0.3265459175443889,0.3748301309334682,0.4202731208492544,0.46920763265120813,0.5187272806566497,0.5652272898118614,0.612452348003787,0.6607327545722038,0.7053723342790362,0.727526835340793,0.6938094412247594,0.6472413714482418,0.5976951366883528,0.5486012810322566,0.503118582275572,0.45447908336848053,0.40497062353237656,0.35852352221396655,0.3115261974344675,0.2716232095119018,0.27330781476721633,0.2833655859068275,0.2761608583862665,0.26162069722887815,0.27035158504278567,0.2614572916978086,0.23428861637563103,0.20084689925178023,0.16440209972530384,0.14185638063726747,0.1699655333725797,0.20638180577213572,0.24041961638942633,0.2695712833955076,0.2893308620985279,0.3025679560273772,0.3239573377052066,0.3706249566642995,0.4202379467109637,0.46888552796077343,0.5143653977975607,0.5634533208295435,0.6126290502402297,0.6581689264187017,0.7063135803966402,0.7493809506664945,0.7593535231159424,0.7204471871034152,0.673404940157924,0.6269149153186112,0.5773964487372766,0.528456652053111,0.48301158758487783,0.43418696371408394,0.38565042271523453,0.3405067575252775,0.3109216421574924,0.31485820153947686,0.31071786744440255,0.28558641603318535,0.26983651985351276,0.2644181797451516,0.24366713834949294,0.209740363395732,0.17179439752355374,0.13010405272785475,0.09465072582018053,0.1004485085603235,0.1366303051260327,0.17659018636428503,0.21251067626215459,0.24758718898917542,0.2711623064244927,0.28737032171069643,0.31886097367537203,0.36171076383030887,0.4069102176730498,0.45435174186393856,0.5002403457761669,0.549622646800659,0.5990387995303829,0.6450184868956356,0.6928525073547672,0.7424322870052641,0.78974456962912,0.8279445528702921,0.819547675917044,0.7766944272242761,0.7277421894857118,0.6781108297449733,0.6284777930235409,0.5788447563021083,0.5292117195806759,0.47958416911570645,0.43105222803711685,0.38552525699535345,0.3365008158741819,0.29850286124705316,0.3027248884759548,0.30122397833196224,0.277181159749989,0.24222487972051832,0.22567913434891373,0.20976431771359239,0.17860816389682133,0.14034535472335963,0.09945730936268771,0.05875985508926529,0.017940874513107108,0.0,0.031559066902839716,0.07247249308230985,0.11400052066777766,0.15598553063293075,0.1944915609280703,0.22715778042260892,0.25028621514516347,0.27692030156966774,0.31251433772938153,0.3529434601772735,0.39796556508914194,0.4443366095923159,0.4923369537398249,0.5380952077141808,0.5874308451708273,0.6362797236997016,0.6817216299348711,0.7306455719724024,0.7802768109513064,0.8297402424183858,0.8759093106433734,0.9235121763357307,0.9719944055810114,0.9999999999999999,0.9725465058878123,0.9261877275153328,0.8766429766306644,0.8270634366778576,0.7799774913238121,0.7333377017460082,0.6837991103579552,0.6341660773102152,0.5846854011486479,0.5384356364979573,0.4909250484780662,0.4413222073638098,0.39172801424444204,0.3443936767597092,0.3017014159137533,HB
0.01926822918769311,0.01272952232474811,0.021208915705718034,0.03399199809685172,0.05141858042749892,0.06943932419505572,0.08805877928668115,0.11755294552495887,0.15779138098197354,0.2003524415761213,0.24668800757865839,0.2905659567848444,0.340422521904433,0.3913533439543313,0.4422854536102052,0.4932175632660789,0.5438676414200014,0.5887171616255595,0.6368801995380278,0.6877770752516612,0.735824466457385,0.7807618938598588,0.8314248634468859,0.8798889667397527,0.9227956361745939,0.9385890374714012,0.9054344268049113,0.8567322522850505,0.8058093483210433,0.7548772386651696,0.7039451590630692,0.6532570396369282,0.6082352109797304,0.5602822255708122,0.5093693950808307,0.458437285424957,0.4075051757690831,0.3565730661132094,0.3056419990178989,0.2556341835348561,0.21170088464616832,0.1619951656885028,0.11107426459060532,0.06554427579614508,0.07534631537156611,0.10221831192451569,0.11147636905152858,0.10500907473017107,0.08983943348931489,0.07528992899298936,0.06146947246497403,0.06448787902111897,0.07019036790845257,0.08416240960591237,0.0968925914205554,0.10350758198957477,0.10088127796970747,0.08310577476367831,0.060587308813756735,0.04031645864266187,0.022696950490117773,0.008664747774095982,0.011939813665683419,0.02446267870391905,0.039472414035206516,0.060211450095342345,0.07884979213937648,0.09636352979514484,0.13273504480603227,0.1737590195034715,0.21887530201377214,0.2631302073235233,0.311879628911103,0.36001496370834407,0.40486798985609385,0.4555187747305398,0.5040809277334746,0.5486212481982453,0.5991736701321881,0.649933778896451,0.6953011639366558,0.7428454091654724,0.7937493138993317,0.8444495600138888,0.8894931288834875,0.9371074260822134,0.9743518009045979,0.9632584442818846,0.9167012436482203,0.8657872813083027,0.8156282154618066,0.7716450687595791,0.7221401161959486,0.6712107498646873,0.6202786402088132,0.5693465305529395,0.5184151607544716,0.4682205065871634,0.4242256309876329,0.3747679175755405,0.3238386869686003,0.2729065773127275,0.22197446765685291,0.1710423580009799,0.12011240300901327,0.07247317968795453,0.07342685873637578,0.1040441855936709,0.11935852586095885,0.11527690910820576,0.10043268206173184,0.08524671604743506,0.0713826648935647,0.06423483624752868,0.06319607094412327,0.06955207017571396,0.0816079815346995,0.0934358613497348,0.09876322101561974,0.0910407595255085,0.07483279343826843,0.05530298720187132,0.047178531654281874,0.0381772084265799,0.024995758767700327,0.035953777514582175,0.0542446499328153,0.06749827536848141,0.08060798616100628,0.10156972651569074,0.13500897852608884,0.1756291848214253,0.21947548261628147,0.26458271651776855,0.31202548160215393,0.36212131014131343,0.4060942593757688,0.45564098853162105,0.5064839846155662,0.552796611374534,0.5993557286417193,0.6502102180078959,0.6995734531169122,0.7436040351492965,0.7938576173199829,0.8445536554668631,0.8895833637176007,0.9375157537515222,0.9856892986201145,1.0000000000000002,0.962163781332056,0.9114468124341097,0.862098101695383,0.8180476851717751,0.767798299181859,0.716866594461042,0.6659344848051691,0.615002375149295,0.5640702654934215,0.5131466981194361,0.46439570853985,0.4199976892627322,0.3694944050227513,0.31856242190908235,0.2676303122532093,0.2168812679770762,0.17146556679783131,0.12395322086289284,0.07391806679920432,0.058895988727316384,0.09408038610983449,0.11236119402215161,0.11973397502291028,0.11435151653948705,0.10056765062992468,0.08714387813555535,0.0688852053518243,0.06713456057745537,0.06668114664033298,0.06613148036235494,0.08013948036992691,0.09407804276005272,0.10232019743523924,0.0932790088250468,0.0732328174212089,0.05040870456753388,0.03788654373190581,0.02397087746615445,0.004942874690182064,0.0,0.013158451244439373,0.026075175890544866,0.04213421827617991,0.06177738769605634,0.09980053227065633,0.14302550777964673,0.18663135798895647,0.23478729314945213,0.2806321728017265,0.3276595031616081,0.37791369052981105,0.4220162597395012,0.47125608784956907,0.5221277253489476,0.5688719897053931,0.6149895920234141,0.6658268059263743,0.7165198851894157,0.7615357328212935,0.809492506505878,0.8603884179791781,0.9085031865700761,0.9435561673385122,0.9357765642885225,0.8959792271730438,0.8460798289666143,0.7951491393232095,0.7442419149228361,0.6964742167804785,0.65130590234114,0.6005734053947462,0.5496412957388732,0.49870918608299974,0.4477770764271223,0.39684496677124903,0.34591285711537556,0.294980747459503,0.2440486378036295,0.19311652814775626,0.142184418491883,0.09126664414723007,0.046332516837595206,0.0571356780010055,0.08784872277871059,0.09974275991428394,0.09599324837629508,0.08692249107335792,0.07867386715147529,0.05679697047543408,0.05746514814383086,0.061208302960821914,0.06911651324720114,0.08424243488071204,0.09351754190749051,0.09455370448219358,0.08978200328136854,0.07090781201481877,0.04530781263502037,0.02619555940971008,0.02626014764202278,0.02161480694366502,0.02764759086280999,0.04484462756910923,0.06279692300249717,0.07564339970131306,HB
0.0681237244614622,0.081999243482199,0.10645359078280248,0.0936702063953202,0.0870717813282108,0.1046967410446017,0.13927211458819888,0.17450969289472995,0.20332047189094637,0.21006900443739462,0.2117314546635397,0.22263946175165772,0.23961342893039317,0.24828466087936996,0.24369130164484998,0.2407229610681746,0.23572738482104227,0.24354413433274746,0.2586529422487983,0.26488349074923,0.23398269342942102,0.1865318049194259,0.14242456760822064,0.11136019113946094,0.1299543881081916,0.17640620563963993,0.2204640660972249,0.2691707872537309,0.3187249781464939,0.36828075417030137,0.4175794097305666,0.4623098416735353,0.5096824863450188,0.5592209539987204,0.6087768350086508,0.6583327160185807,0.707888597028511,0.7574444780384412,0.8070003590483713,0.8565562400583017,0.9061121210682316,0.9556580212685889,0.9999999999999999,0.9884430840268409,0.9401010551873871,0.8906316765445738,0.8448153566222617,0.7986510512200083,0.7491618344295049,0.700098371976453,0.6558287401158022,0.6077708399590936,0.5582849390290116,0.5121223180558204,0.4663031856000387,0.41764501005502475,0.3736051185914512,0.32773242389832224,0.28538004769842706,0.24760709719324636,0.21809676656477095,0.1932143482248122,0.1683272697218644,0.1410870525833724,0.11160220910141583,0.07418930203275831,0.03731982397224598,0.007379451126451775,0.0,0.023647874412082937,0.061489527371045516,0.09127683724113356,0.12456917358599318,0.1573156829984047,0.1901677634342792,0.21849132574303265,0.22810036227740127,0.21961209579032637,0.2064343629385449,0.19909714745323848,0.1928553432187038,0.20531776713079763,0.22523969553071554,0.23465223278769198,0.20734072472789034,0.16112450384042087,0.11572368961781898,0.08244474647417055,0.09720984443272485,0.1413988922970434,0.18663712510565877,0.23603663490520888,0.28559251591513923,0.3351483710772075,0.38452607981919396,0.4296785154329358,0.4765607603932879,0.5260884917673659,0.5756443727772959,0.6252002537872264,0.6747535507894075,0.7233120814239146,0.7673817004383142,0.8160515523615698,0.8518859213446112,0.8230381783498136,0.7737250844798157,0.7241720932403012,0.675753705050644,0.6316285891668868,0.5827854432594076,0.5340477883070603,0.4899813251226063,0.44155470995309176,0.39631188519654514,0.3500517079237221,0.3062901960700638,0.26590105194824976,0.23438388439043611,0.2102282810441657,0.18942702159124447,0.1634192374544724,0.1331655044533705,0.10014523710800838,0.0638655435452452,0.03287599066733082,0.027817079518984267,0.0551668638075431,0.09099816191140342,0.13167055920715243,0.1668849449290425,0.2017690005693321,0.23241671159538757,0.25447580519494084,0.267607148685881,0.2652681123685473,0.2714175736881864,0.2669281258876711,0.27258326478473316,0.2918606481274927,0.29752473613095776,0.2693596671701258,0.22194730434808918,0.17824685432386633,0.14670576970313987,0.16740709853863767,0.2103103578440063,0.2580393090915728,0.30758561584468536,0.3571374433938165,0.40545141657445616,0.4496089765267951,0.4985264487997644,0.5480815916969116,0.5976374727068418,0.6471139670588552,0.6930973984844205,0.7390938549300844,0.7885775675491379,0.838133448559068,0.8876642496242794,0.92970693377917,0.9153624462437618,0.8696458672806492,0.8201390940713175,0.7707189163368381,0.7253065345907007,0.6787143471800535,0.6293781051678239,0.5844372258157423,0.5438047132536387,0.5022387110337209,0.4569363832903349,0.41050691027966957,0.3611585968224714,0.3166086070721502,0.2807254890016512,0.25624846718335237,0.23790135798736023,0.21389803572583854,0.18522662217059882,0.15270305264196093,0.11780337382805184,0.08569758104237513,0.07144863006451174,0.09128617544432471,0.12332645942307285,0.15840294776172958,0.19493745939924556,0.23063767007079783,0.2558573830586236,0.27191566882697316,0.2693096319264542,0.2585045553212656,0.2518605849812655,0.245159030921145,0.25703588529296073,0.2721194148407965,0.2698259921157712,0.2329256653852797,0.18699387459240124,0.1429145784716902,0.12696942687909007,0.16333770383976287,0.20393864987311228,0.24407365069380604,0.2903586092113203,0.3398612040529484,0.38941708506287986,0.43893014675432973,0.48544970926865927,0.5309287349967234,0.5803571799051764,0.6299130609151059,0.679468941925036,0.729024794046179,0.7783915349141951,0.8234629241079922,0.863569602313384,0.8481977063393934,0.8048174946507877,0.7558727064589154,0.7064347634534834,0.6608724327480094,0.6144429278076328,0.5649420526520094,0.5171087004184814,0.4726971150129856,0.4243997980546731,0.3804161872434414,0.3356319129330828,0.29500560660293507,0.2583585433281176,0.23306712077493408,0.21224090336421375,0.1901948846993361,0.15771126997492824,0.1225136843297795,0.0863594077031632,0.05350403859908526,0.03477369357330162,0.0521729955027912,0.0856464509422693,0.12119209342425086,0.15745077773209315,0.1916743569867395,0.22267132333185236,0.24370503863094728,0.2429507707608919,0.23473465924667491,0.236694103697337,0.23754933563088942,0.24925134545336303,0.2668827286064369,0.2817325913448906,HB
0.779954319963752,0.8030775901513423,0.8166415241964804,0.8218777692028358,0.8234156303625306,0.832196398719963,0.8408676217206494,0.8573861217949252,0.8503013495389788,0.8479835367878577,0.8629366720815776,0.8598536963512073,0.8573132511607244,0.8489041845452983,0.8386145406650793,0.7958258067384967,0.7470004865939368,0.6949739248709608,0.6376986120414567,0.58793053802917,0.5312737053802674,0.4729181861992535,0.41485727727742305,0.36381692621470463,0.3090434616169997,0.2508836565758277,0.1991848183185827,0.14516952910327285,0.08721913071553389,0.03941549352719087,0.02369068414161357,0.061198892149195494,0.11184257439874612,0.16990348332057703,0.2282618705416568,0.28662025776273614,0.34497748833607145,0.4022219373280971,0.4519772227326868,0.5088329331809456,0.5671894270948508,0.6255478143159305,0.6839062015370101,0.7422645887580894,0.8006201079391044,0.8572762039285766,0.9045909198735067,0.9056678646659133,0.8585519600929938,0.8158181118150214,0.7857789956323953,0.7618649707030125,0.7422459507466743,0.7209058911679662,0.6953316524347251,0.6623727154116159,0.6286168465136599,0.5934991785481478,0.5643171331897203,0.5500772708547745,0.5577725061466927,0.5882924398662233,0.6287010568132405,0.6663815659086834,0.7010372703577175,0.7341387603186345,0.7611339230862679,0.7657156335922704,0.7592792725042383,0.7451790485928234,0.7433903196591576,0.7443215366847309,0.7511072262598641,0.7458035812874955,0.7608345714491735,0.7764759503864509,0.7871070058707297,0.7809308578738137,0.764401008340234,0.7134766208138539,0.6630738769581501,0.6082328848126366,0.5581655466636666,0.5020900889334639,0.4438741979358731,0.39182655031605407,0.3382267196049771,0.28563637495111305,0.24372696602500787,0.19513419820633882,0.13992393715316154,0.10338526925608083,0.11617806322272228,0.1673379561356676,0.2175565458162978,0.27539749098951316,0.3337558782105934,0.3921141149558809,0.44992995064491437,0.5001584612704602,0.5559740696355007,0.6143250475427076,0.6725044704345855,0.7209831179237403,0.7672873575125465,0.8245522706410082,0.8744466382338658,0.9278193674174828,0.9261144527800844,0.8724515361709702,0.8238840538167576,0.7851138825532695,0.7565966517907339,0.7397771669866586,0.7200029991458603,0.6966690443051364,0.6722862179667759,0.6435034887742972,0.6137853340240076,0.5888285366150972,0.588282310952635,0.6091087191748579,0.6426634182583575,0.679084259456157,0.7154251684994113,0.7432717331507352,0.757852010628236,0.7659912796424841,0.774335804299382,0.7838935364965864,0.78824243740435,0.788260701610749,0.785055816732176,0.783159029312126,0.8028597911897317,0.8140882459783154,0.8291811648562328,0.8310675636050884,0.8082065015552904,0.7578841391269713,0.7001355170675883,0.6498993353271489,0.5941140180716118,0.5357717104419675,0.47965435233979314,0.42964262740487547,0.37191343571560753,0.31434606600285764,0.264421956081186,0.20805635787631815,0.15021994517664639,0.1000581581084592,0.05256917878238876,0.04967789707179593,0.09411929794230622,0.1519470564834442,0.21027234520033855,0.2646667221068453,0.3160363167668283,0.37415783859447993,0.4325162258155588,0.4908746130366388,0.5492330002577179,0.6075913874787982,0.6659497746998781,0.7240244890576653,0.7750702536204079,0.8298254885765393,0.8881605568109125,0.9465147217097976,1.0000000000000002,0.9880919861536637,0.9380558970148332,0.8872708531612643,0.8389544988825117,0.8033262247374742,0.7805199657910911,0.7634216718165987,0.7449773864046954,0.7197491388682251,0.6906398146181674,0.661461052623949,0.6331695362713827,0.6205433080822025,0.6303722796744333,0.6603726162262156,0.6985224664335139,0.7390727726789645,0.7735734719715721,0.7994814441928868,0.817485607298591,0.8171230195203931,0.8091270448874086,0.8004386428601211,0.799501285485638,0.7989721144050288,0.7879594837382056,0.7802782026004931,0.7985229521950712,0.8116641583118374,0.8208793252403972,0.8195287853260731,0.7894557700668372,0.7396532518003982,0.689886478675583,0.6348313916935648,0.5846031519244452,0.5267873162354106,0.46842907949012247,0.4100706922690449,0.3517123050479647,0.29335427896878574,0.23578669858992596,0.18586258866825434,0.12949699046338892,0.07119430886932876,0.01944268895957646,0.0,0.031596628487523315,0.08254227535738279,0.140724289710221,0.19908258664582612,0.25698470519272587,0.30748563379733707,0.3629462146703646,0.4212934590423356,0.47965184626341584,0.5380102334844958,0.5963686207055763,0.654724139886588,0.7113809725354912,0.7611490465477795,0.8185800047197791,0.8769377900376907,0.9351680794736181,0.9735052854407231,0.9377531567015798,0.8891203109349279,0.8441552169066733,0.8003016903188274,0.7692513299175812,0.7450478193942374,0.7296273108632716,0.7059517345358508,0.6786469998223852,0.6462041012961646,0.6165701961969821,0.587980990879057,0.5680367265315149,0.5742807755003712,0.6040405403493925,0.6367770386352831,0.6706024192103179,0.7120751741157736,0.7400932476433164,HB
0.5833851634580904,0.5947054270594012,0.5829587046458407,0.5765740003753239,0.5871564267171228,0.5878013785312268,0.5784569069756549,0.5701595747105348,0.5465137734685095,0.5109316278866676,0.47376925978848305,0.433210208103616,0.39360766356460597,0.34963365981549654,0.3095064725174064,0.29640112600281676,0.3260467911393403,0.36555792798329323,0.4057472393464343,0.44409545112850624,0.4827555475539629,0.5182889291861197,0.5416793112783493,0.5673124817860311,0.6002483266994063,0.6318606224540375,0.6555557201290536,0.6958915021009993,0.7400464801153113,0.7854693100821544,0.8316181272557948,0.8759110979508125,0.9255733036241565,0.9696895100565779,1.0,0.9816481142283902,0.9348523223621583,0.8847117906694808,0.8403745355945027,0.7906476346990627,0.7396733859887863,0.6886964279849395,0.6377194699810926,0.5867425119772456,0.5357655539733988,0.4847886490347937,0.4341025753330676,0.38915573469275544,0.3621356796556854,0.3996272453500438,0.4469584156713071,0.49273057573440093,0.5365116730714492,0.5652484607709503,0.5654742937978727,0.5649940819932,0.5765184984994198,0.5750948413153494,0.5727160435841399,0.5825243704611811,0.5870533253058354,0.5716927252765094,0.5525473576730646,0.5368635349901525,0.504023347496195,0.4695339625960353,0.43300717898202845,0.3941574950291664,0.35551743928544943,0.31798512919455013,0.30442030363866945,0.3394683725558767,0.37649657632836364,0.4146936729448454,0.4525894093234284,0.48576205445097553,0.5156369138650769,0.5343851165289297,0.558911818971344,0.5784342035949037,0.6054797775481462,0.6475066155026485,0.695800032652677,0.7403481246942398,0.7907190397143826,0.8414295452340359,0.8865051998304936,0.9226799278902806,0.9096039742790079,0.8625956121743514,0.8159894340721827,0.7692048904414492,0.7182992562429924,0.6673222982391456,0.6163453402352985,0.5654690650872449,0.5190165669690516,0.47205741880161356,0.4211510501997482,0.3741351590577353,0.3805326675771332,0.42864875319254514,0.47299497058011575,0.5220555863566827,0.5625263282023965,0.5754559406603255,0.5652547517080533,0.5672443972517525,0.5695350912807424,0.5576341033094308,0.5619239413701822,0.5639931537958156,0.5639382719341544,0.5580750797401604,0.5335473344347372,0.49936313710644153,0.4617936376167784,0.4306860484654451,0.38639711929846077,0.3438192217272178,0.30310651308593295,0.2648328182026649,0.25217699635752067,0.2848938105374712,0.32532011832639873,0.366101044365188,0.4075640367561446,0.4504939406642574,0.49325736630237027,0.5242169425799905,0.5523948278520434,0.5855946629513487,0.6195775624252249,0.6532774816781228,0.6803563764483931,0.7119545042975721,0.7540970799428224,0.7980015865011287,0.8443442316523055,0.890240968103295,0.9374055311197484,0.9804400956412902,0.9924488668763325,0.9564605488182572,0.9058861568410232,0.8549093091387261,0.8039323511348793,0.752955393131032,0.7019784914365899,0.6513039904681179,0.6061882829772536,0.5577382424523947,0.50678645128034,0.4603870324284556,0.4685195779681628,0.5121455378661586,0.5599739089383249,0.6033806615512358,0.6293130246269218,0.6182154160562008,0.6066607214156974,0.609621746333719,0.6195837833936864,0.5979472422413907,0.5817388578850211,0.5722493639064812,0.5604155997167901,0.5640606167545215,0.569832213959391,0.5471466266189595,0.5108940297118771,0.4712259512817727,0.43037654599978525,0.38696610508674345,0.3429384318850863,0.29880588642254335,0.2549466314275006,0.20878709448243482,0.16574207571977095,0.1299225844921812,0.13411103338019648,0.17098308074856994,0.21233404463501704,0.2533955725816168,0.2920585189679754,0.3281894669662413,0.3611463936754391,0.3919162962719991,0.42479525528644246,0.4583842069326858,0.4919887531713647,0.5208251715687255,0.5526700164417062,0.5932958189461555,0.6430482160306861,0.6937439493021276,0.7388936765961363,0.786211830593432,0.8305125525072568,0.8765246441034771,0.8957099133240107,0.8684178959552242,0.8223606671884516,0.7715111292086827,0.7261335744524977,0.6863436915497241,0.6392486915246871,0.5934977441148308,0.5426967813508909,0.4917198233470448,0.44075497725370094,0.39214922719811374,0.34738489794864447,0.3170361867669029,0.3485493288415593,0.39872941729732525,0.444827416219723,0.4854247867533825,0.5024143779490648,0.5004745784793656,0.484113202649868,0.4726214704349303,0.4487534173571208,0.4257596163611015,0.41191425865955256,0.3933672161977322,0.3708173159208601,0.3429131577992155,0.318238861008032,0.2944646809159497,0.26608355138187,0.23113830890175846,0.19153574721056565,0.14755329462421707,0.10314912609413207,0.06232199642843783,0.023964093488223037,0.0,0.015163548050554532,0.05280598886324883,0.0919223296840379,0.13542560929423053,0.1713224156801303,0.1950255158397225,0.21563205647657946,0.24884090531996517,0.28602795211604093,0.3260130164459458,0.3577280884261378,0.39316663313951494,0.4263990777136033,0.446983707521589,0.45744716539651864,0.42772684165573027,0.3991315036751606,HB
0.43340268248787817,0.4398607043835939,0.43237980856753355,0.42602393731251553,0.4249559279117542,0.42763501757070543,0.44607595179727555,0.45437447640878836,0.4285264648351691,0.382461081432783,0.33566101475501153,0.28371183918537646,0.22987541393101818,0.17602348797803435,0.12218272584740264,0.07000005738969761,0.023288831515482222,0.00968359218371384,0.05238275794850311,0.10277820136587268,0.15362314425935963,0.2074095747859609,0.2611500974301363,0.31153740260245755,0.36253885360290317,0.416336754524251,0.4701886804772347,0.5240406064302184,0.5778925323832024,0.6317154357436393,0.6832867119059246,0.7331595274621968,0.7868197608303461,0.8406716330693057,0.8945235590222894,0.9483716169248148,0.9992040748704148,0.9999999999999999,0.9547410808376912,0.9114171599243138,0.8606961451246754,0.8104416553594992,0.7593265653692424,0.7065255689953639,0.6574899981736934,0.6067768838543693,0.5568842223517597,0.5088218158012107,0.472959437923928,0.4464292453490236,0.42329401669784017,0.3950571699083544,0.35662808891554343,0.3150744179859549,0.27155585322674036,0.22637261430932443,0.18151880484941874,0.13745527723947693,0.09529700760089044,0.08297207981405819,0.11222608493918407,0.15480467523508123,0.2012037336126119,0.250089900516447,0.2932160385374354,0.3300119904352622,0.37123290372487505,0.40830563194060854,0.4387949247005404,0.4612908806242212,0.46120097514098457,0.448794114236971,0.4397277175239681,0.4445117254169636,0.4578525420514509,0.4674356181959457,0.46263674028309365,0.4285282133292484,0.3766273120178011,0.3275208834356481,0.27530406821501696,0.2261116025676767,0.17360531289797743,0.12206105375276832,0.07228031107463895,0.026679441864729037,0.031344266378583785,0.07920566128900253,0.12847704565015283,0.18191993213793667,0.23577142470085677,0.28955299236291876,0.3403370800687253,0.39093460465215457,0.4446985994339766,0.4985505253869599,0.5524009247999989,0.6055623704515679,0.6546333826014984,0.7074812417822548,0.7613296260730632,0.8151815520260474,0.8690334700440044,0.9225034253756678,0.9529709067472701,0.9174929473418355,0.8641788722071663,0.8103275086768135,0.7566025115449199,0.7063669275993437,0.6553048338979474,0.6049099038921631,0.5564396449886376,0.511369589987907,0.47130887902950136,0.44125131033195897,0.41713130353612915,0.3879667183439931,0.34966691454255816,0.30786203643725774,0.2651960682894723,0.21838535402636705,0.1716375691734746,0.13136003699961307,0.10757413862084264,0.1250712249298883,0.16708081513879214,0.21444620810199233,0.25957589627683963,0.3040019783465079,0.34823696862539255,0.3896640695546695,0.42245111137688596,0.44316901723664814,0.44400584145635047,0.4272801786270174,0.4176435759361806,0.41604106692942777,0.4238197466394201,0.4381536256701296,0.44173562846757497,0.4272722958862688,0.38498396494715215,0.3393929069800349,0.2892775386301881,0.24010013271781183,0.18767976240384476,0.13602563876612495,0.08677510753331585,0.04249416132928563,0.019007530288991492,0.05202049091430716,0.10128901427568449,0.15487653756377884,0.20780069984071192,0.2568686958425822,0.3099560961000958,0.36380634822672253,0.417658274179706,0.47149489351854135,0.5232543936884057,0.5648710582691424,0.603323382459405,0.6464854819678524,0.6940039871307063,0.7377025565204985,0.7789766384134512,0.8150715472696438,0.8493318334592893,0.848831182213816,0.8004604600534594,0.7475187090590653,0.6984754546730408,0.6470601125324441,0.5985395452134822,0.5514098216407518,0.510628582013645,0.4862850673335938,0.45873318414190856,0.42602638672246107,0.39008750868523234,0.35492825582897514,0.3168975992353089,0.2694635216575427,0.22268603912892848,0.1787638234947092,0.13863005289361974,0.11544676765532014,0.13537387781939203,0.17740170208603945,0.22139087849958516,0.2659523836872135,0.3098331829999631,0.35174135278808694,0.39227739236423076,0.4299340459991984,0.4619654364140685,0.4712925310043886,0.4471449867795071,0.42382292789292697,0.41501152352882775,0.41162420608398087,0.41631181708961706,0.4255225526829517,0.4233779670828365,0.38811803573890213,0.34156423539143943,0.29188424692677695,0.2409766801565698,0.19066918332396654,0.13750984675871514,0.08838333075764737,0.03612863276319922,0.0,0.023198160772929244,0.07217108123486238,0.1258312081425902,0.17961130430228966,0.23037202730984585,0.28099227398297466,0.3347583296499953,0.3886102556029801,0.4424621815559636,0.4963141075089469,0.5501660334619306,0.6040179594149139,0.6578698853678985,0.7117218113208822,0.7655737372738655,0.8194206700219094,0.8720214443180282,0.9068287099514528,0.876547578233242,0.823165629449942,0.7727627110313703,0.7217813830600796,0.6689131692534437,0.6199179104475857,0.5697850240263419,0.5202028611666122,0.47286146457821776,0.42965531494129905,0.3964178035298088,0.3778822959050997,0.3572087957520802,0.3225575366257528,0.28037432925262273,0.24461176901994852,0.20438362594458226,0.1657294949250202,0.15440958756955503,0.18430857035478565,0.22790154413919572,0.272776823316927,0.31562860822998984,HB
0.3576686420611068,0.34506225244821165,0.33751161680810826,0.3260439694513746,0.30925547057137903,0.27397408507878307,0.22834933974008642,0.1811116387537841,0.1345464264162204,0.07282788112646088,0.038802677467792535,0.05219134641769285,0.032291754813614126,0.0,0.008259463895439634,0.04226834939152457,0.08702577977549009,0.1442373451540946,0.2066645727824432,0.25599631479409535,0.30829457105728686,0.36656573716820473,0.4361100423491586,0.49226638635763553,0.5336687995947629,0.6008473130430381,0.6597047671762111,0.7288906173568575,0.7947636752389924,0.8561177570405238,0.9276577629498903,0.9923843881721042,0.9722776219154485,0.9018224399938983,0.8411911879650149,0.7744394594059547,0.7039751135357455,0.6450945568360575,0.5765332389956104,0.5174282059497108,0.45645119883197527,0.40119166038351617,0.3744640552872345,0.37109909599459723,0.37032466665531993,0.35752454942976275,0.34288954117895054,0.32332544810378705,0.2958695788330399,0.2732645632626287,0.2506934385332755,0.23909956612501437,0.25056707241804066,0.26794710532778554,0.29965901744622325,0.3191199101244657,0.31083866757495526,0.2792422191047508,0.2580497206511514,0.26865624138659205,0.32269077709915983,0.3762830681402818,0.41097028432502203,0.40480382211989285,0.40098090316907387,0.3884236673985395,0.3786085002597668,0.36310903330115574,0.3225395129798696,0.2628431396818778,0.20429772537461588,0.14803920562582062,0.15375418234046245,0.2066464786334774,0.2663094870794849,0.3343546965624533,0.3935075683123488,0.46209884576361615,0.520629745903697,0.5802588406726992,0.646575684299203,0.7122793885622984,0.7737681703829336,0.8452794498031286,0.9038052084715544,0.8722285665263905,0.8014729295181535,0.7409621309129415,0.674064081845851,0.6022997198381774,0.5306687438141409,0.4681529587893545,0.41524898792119425,0.3754883814645331,0.3561876252141869,0.35511890154603565,0.3673358853973627,0.38069697309815576,0.37822613667786564,0.37419105940390684,0.35554312573296,0.334963279475029,0.31409722129787054,0.2998342449242317,0.28855741297145965,0.29702325921452166,0.3145520237694037,0.32015737468040184,0.2987269532375545,0.2737785194031215,0.2829952816791099,0.327618091524426,0.38314824513914303,0.43521520952267867,0.43983490477191367,0.4258173500881277,0.42093961401120694,0.4205049949403521,0.40721588157802424,0.37194624451392766,0.31867015610636873,0.26993084323475314,0.2665419320330735,0.31654757701393343,0.38070636007282177,0.4396003045650225,0.5059942080724324,0.5650600687713818,0.6236637071688196,0.684730409906126,0.7476969129006883,0.8181212587997204,0.8768879933499241,0.9314452689912822,0.8938771316761458,0.8348094206584107,0.7665232131166491,0.6995086674349906,0.6393961590832209,0.5786270726063951,0.5208629858476845,0.46393419837554006,0.4282993535963904,0.4305619018723972,0.43748470746344603,0.4361482064249951,0.4230671565532642,0.41080082355444825,0.38290432168862587,0.35260227356303897,0.3268836856708677,0.30557133424824956,0.2935552032725157,0.29987148613823855,0.32736164477134855,0.3502346560443952,0.3513593584295456,0.318446052853508,0.2835297413451259,0.2795710827407536,0.31962921418705115,0.3727384253877988,0.4255691586200725,0.4613999545885803,0.4479665754205655,0.43560082508042575,0.42206350491251543,0.410147026633918,0.39879040905046903,0.3587840383826575,0.30514095399800967,0.2632992037594062,0.2776074829600863,0.3219282326551163,0.3847190761609318,0.4563895986430375,0.5281670378566434,0.5972397027359078,0.6561903497877575,0.7262610250348138,0.7860691202470163,0.8525753817370827,0.9113143925788094,0.9793972955013097,1.0,0.9367089825408828,0.8723401998642539,0.8095432720151008,0.7408659062915741,0.6817544439135768,0.613147352292724,0.554491895655306,0.4918129930022581,0.45142666892065186,0.42488101112160237,0.42092970852214284,0.418853394386169,0.4031066711554252,0.3851954774087982,0.3697014388378421,0.3456529633697536,0.3175213781242938,0.30039787359365056,0.2885399193071767,0.29331317326762907,0.32283628543375764,0.3481628590434389,0.3507760649593461,0.3224788277219912,0.2866767771385992,0.260437171235282,0.2823688689306807,0.3271683497230322,0.37498254900930617,0.410201109895008,0.39510080535323366,0.3873485545992619,0.3772611254369176,0.3851280842029192,0.3737741794435747,0.3704266326417618,0.3290105418973197,0.2728065452956816,0.21306756932311366,0.16300533972447884,0.16761144420619356,0.21852778605682044,0.28279066066094405,0.34167242536609077,0.4043508179456672,0.46684599719339204,0.5257296635243276,0.594747622606763,0.6665262285431597,0.7383087970954927,0.8100913402403087,0.8815979046063669,0.9424588774075429,0.9611037299758571,0.9049986298323418,0.8420574205439006,0.7707530933601747,0.7098041891443438,0.6434704506280986,0.5778056827985103,0.5167600677936126,0.4592693399688974,0.4178295513618404,0.39146449291462027,0.3935696188703086,0.39604176905141575,0.3881970921052065,0.39208673471073263,0.3750780386944088,0.3711013618175798,HB
0.22319420418079283,0.1883610976209149,0.14581534519962325,0.10353704632542793,0.06293692909195192,0.024527602966200046,0.0,0.013263030046867352,0.05184043466295263,0.09546560368598778,0.13925598589800958,0.18322998317057793,0.22736698592680116,0.26997639267189566,0.3124920721324589,0.35352837283949157,0.39089983806133455,0.41294899965425413,0.40650595809325807,0.38832402939405397,0.3860339899708227,0.3840526747149513,0.39400878053483157,0.4196340786927937,0.41382450799581516,0.4045048592640049,0.38044290910989753,0.3361141061100873,0.2864419457414761,0.2396068318035618,0.19707439745875865,0.20188122934342811,0.24695176516694795,0.29742924688517625,0.34799074939058916,0.3982387898115314,0.4447416880323627,0.4937380300182439,0.544288140513582,0.5948498817699859,0.6454091699432578,0.695157766594551,0.7413262445147544,0.7911488557558979,0.841641515014597,0.8893844670565818,0.93696335480593,0.9862699894974298,1.0,0.955968899456977,0.9088556074355825,0.8606415555518667,0.8102157880219236,0.7628088495364012,0.7148984260039781,0.6658622172685149,0.6194203826550799,0.5692406049001604,0.5211523256713457,0.478783876746705,0.4366209499035889,0.3957073831943585,0.3615788829750113,0.33559583081313216,0.3098659508150471,0.2792730861273456,0.24225932108684078,0.20329005456473692,0.16058884553562958,0.1161334542551532,0.07521219327453621,0.03619055366100521,0.019760779298976794,0.04327588449756692,0.08148697107907732,0.12331676853066942,0.16663014285024635,0.20996135880755984,0.25327342626623994,0.2953061066109596,0.33568653797396086,0.3745071769904542,0.4098124716003493,0.4157613671655842,0.39721388512750533,0.37778492825662147,0.3597753365387836,0.3532231004627995,0.37176592712701984,0.374518885927417,0.3727861717539033,0.3817787611515724,0.3463244820361947,0.2959361642529018,0.24577616348506415,0.20957537554011985,0.228850462261319,0.27383100902709445,0.3234486150767738,0.37400683562705095,0.4245549573762677,0.47349372989842675,0.5200375325906452,0.5703041492466132,0.6208657292554562,0.6714274686870421,0.7218678737822817,0.7691137867934681,0.8172068142602538,0.8677234358834656,0.917254952735171,0.9392158029761639,0.9001567907845069,0.8532975842275228,0.8048614213536207,0.7543415449341522,0.7054497379724929,0.6588910747042269,0.6102908228373829,0.5662942359405314,0.5247242999849899,0.48057762809880056,0.4388795417956395,0.3979336527901811,0.3699833589862934,0.34954543082164746,0.3232558437333326,0.2897364893678287,0.25142880153508707,0.2115539146187363,0.1681152145453586,0.12368551540088057,0.08222906572790145,0.04322768289288326,0.01716144055147706,0.02929998637383835,0.06753781057568997,0.10924648031334128,0.15184177353537676,0.18941392076334462,0.22982819245660668,0.2730586978707469,0.31568376515559804,0.35516060408655226,0.39013662098221347,0.4175991372206207,0.4533193615625255,0.45096460297284335,0.42355273349850564,0.3992561461019106,0.37721629951050917,0.3678347335745562,0.38192584204730917,0.37926564896607995,0.36791965920474035,0.3362194846467633,0.28773235532831976,0.23718447719260627,0.1868708395205554,0.15009162404549214,0.16960272194901704,0.21858790113053628,0.26823505826546357,0.31441402030669185,0.3643252716763391,0.41488554844723713,0.46544662708049245,0.5155522119847311,0.5618427621808051,0.6111887009662833,0.6617444420756424,0.7122285360253695,0.7598240761464095,0.8075463071457902,0.858039419624655,0.9068852519729111,0.9182693660263699,0.8740313988379609,0.824628550204022,0.7783739196688189,0.7288275787882514,0.6861641804978147,0.6430476313435645,0.5945696173097388,0.547402673352583,0.5023566976080771,0.4558030809879221,0.4124332720157424,0.37272897621388756,0.3413078519487043,0.32117541675160943,0.29519645778707404,0.26295684353162885,0.22640624450496882,0.18713066231367959,0.14587233356115192,0.10104565531488963,0.06063989588465224,0.033228270712396424,0.042195443318545744,0.08126720753471683,0.124300488912501,0.16709684718408502,0.21099867001730876,0.2545042090959505,0.2968619746089548,0.3388961183974004,0.3789173258472214,0.4124279165681346,0.4202787445805316,0.39531741597614134,0.3702368209508463,0.3521419008526592,0.34058434803974846,0.3539069927698927,0.3828180895124347,0.3823057809341185,0.37091143511183156,0.335679955282031,0.2902380916683006,0.24089586427863396,0.1921336724094077,0.16949585797503897,0.2040511820746702,0.25076772930259716,0.3011391625843063,0.35170087132576977,0.4022626125821739,0.4528198153890304,0.5023314451403631,0.5485535476206653,0.5985607283938608,0.6491215062105795,0.6996829771036075,0.7499098818200662,0.7963756108885696,0.845429455178607,0.8959579750113331,0.9409072202176629,0.9324255789503755,0.8892223704709412,0.8495006613494755,0.8004342961414843,0.7511779077064333,0.70484290865545,0.6555860103894924,0.6096742411894376,0.5639303788819761,0.5189719094131573,0.47426757302805855,0.4322780047993473,0.3982102489274716,0.3725894013845217,0.34857291063025064,0.3215545303533036,HB
0.08360134082471049,0.15108346265864392,0.22321364193804105,0.2867692741872485,0.35843935671049443,0.4120300989292449,0.45151253662544066,0.5026586270337339,0.5552314450702893,0.5912598483505893,0.6252624292398246,0.6155757928261785,0.5737469809695508,0.60112767881849,0.6736807270639591,0.7433459857353448,0.8082600978391083,0.8815206960822766,0.9542569279179636,0.9805062270275446,0.9266763764914139,0.8705094781590368,0.8372862085255182,0.8165379703531219,0.8005431663074909,0.7674932752699284,0.7267947165833697,0.6796979193888537,0.6566498178894482,0.6485439418964061,0.6329881145882414,0.6328947323683123,0.6079046586035151,0.5707350616367062,0.54690975737294,0.5580419883616212,0.5961524230213422,0.6445499939361159,0.6991567823643174,0.7479050000238538,0.7764312083453888,0.7895004595084518,0.7958026832017115,0.7914890284958067,0.7719283926303391,0.7488542412701233,0.7333115737666891,0.7477278527119651,0.7722042206754336,0.8070469169333727,0.8291459576994582,0.7933224315615355,0.7210890682920741,0.6534313584202056,0.5868208329743938,0.5196810736090394,0.4527241948521554,0.38593078879787335,0.31847592262383895,0.24794838830617838,0.1837604653250846,0.11277408266119582,0.06661990670479456,0.08685299551404779,0.15195156935098075,0.22522713986118847,0.2907937643600622,0.35970639532557835,0.43332854716118807,0.5069933568082392,0.5806581664552912,0.654322963831844,0.7276668202224073,0.7930322191963362,0.8621703688491202,0.9357535538740238,0.9961984886323194,0.9630094646359544,0.9121729649036749,0.8837312858550328,0.8617098113393167,0.8429792177370377,0.8101923338952453,0.7721143855021937,0.7255417416876886,0.676448501737964,0.6278545725090103,0.591895355056939,0.5877616741192278,0.6160951008821487,0.6646524469646995,0.7206294703697249,0.7685330553409127,0.8063643075637763,0.8327415536069604,0.8452919273236617,0.8321629439222675,0.8200033739785304,0.7922403016428328,0.7511494929654405,0.7173906721941814,0.6954858932662107,0.7070150403769497,0.7324387160358719,0.7694450476967309,0.7853900593453529,0.7472410684836459,0.6845804026400211,0.6162867108202537,0.5465251141053888,0.48178712408213475,0.41272716604164117,0.34769877888581946,0.2789293406828752,0.21356637956308977,0.14176591204001476,0.07879538096229877,0.028046749346615663,0.04590949749642892,0.09589874567788526,0.15195950916051748,0.22474126474068745,0.29840563264980746,0.37207044229685815,0.4457352519439097,0.5194000615909613,0.5930648712380133,0.6667296808850633,0.7403944905321154,0.8140592633676726,0.887106651530724,0.923332320712204,0.8781875477628989,0.8378525604966935,0.8134001005746854,0.794095848505356,0.7689155158856507,0.7350978686727683,0.6901455538086887,0.6424060797677267,0.5867016915413426,0.5384296240280859,0.5079968464653797,0.5011307894573227,0.5289454082056209,0.582261352560719,0.6303619291407274,0.6810632050514978,0.7235172817027584,0.752330396493065,0.7563537888016698,0.7560409244688577,0.7462315198881935,0.7281498372937609,0.7125559670854609,0.7089859284733737,0.7275374838790529,0.758772844822891,0.7930165858579599,0.7894752737804798,0.7386043820038759,0.6674449554773914,0.6034528414651465,0.5329249941577869,0.46782628399936654,0.4005120561950213,0.3368750675959815,0.26479465517661827,0.2002239702391202,0.13018866228920922,0.06279221000428126,0.028300240321037062,0.0691906636055446,0.13967450148434546,0.19764343916613902,0.252706092560645,0.3217032917545579,0.39533301376440977,0.46899782341145957,0.5426626330585116,0.6161339305248339,0.6823676680773361,0.7505403065022553,0.82413974781514,0.897177316018529,0.9351650883241158,0.8933173460142114,0.8523956357736757,0.8289871340741513,0.8195574098101102,0.7933930782623453,0.7541164628079906,0.701986230228705,0.6535358171928369,0.6054510028482649,0.5641742221909454,0.5470862629404862,0.5660114371136309,0.6110859391585761,0.6601473586927333,0.7073368325619238,0.7515556304976154,0.7911771901101747,0.8080570473964086,0.8054239792854141,0.7916016178877887,0.7802456969879252,0.757534048777526,0.7311812715547503,0.7283977212437176,0.7488523138453271,0.7780990786727593,0.8163442871541584,0.8285762886640737,0.7819941557047245,0.7139388244880565,0.6485858429611919,0.5781916487158067,0.5143978348530402,0.4555834912383252,0.40409870877458465,0.33343401455309585,0.2666486588153858,0.19905457238189594,0.12548718474158327,0.05211874962500862,0.0,0.023277888833404203,0.0893666200899621,0.1533442179065987,0.22629200467465949,0.2999564707477629,0.37362112087833776,0.4466591602580803,0.5109319903197478,0.5814475269866022,0.6550983951514435,0.7287632047984938,0.8024280144455445,0.8760928240925947,0.9495646747449962,0.9999999999999998,0.9611779707871475,0.906970654211164,0.8676965122180553,0.8389687993513182,0.8241709706173641,0.7960065980874826,0.753862571918227,0.7074155011010668,0.6583648752090434,0.6112947970339413,0.5710256686540378,0.5477970474276532,0.5546788347278431,HB
0.19626296294413015,0.19648405841004624,0.17727103898543817,0.14835050068080857,0.11149386980470677,0.06223274817400415,0.0261787741746351,0.009815422612477809,0.037433699054780556,0.07958274932419629,0.12262311191480602,0.1558732253447439,0.18706190622986574,0.21144457139535877,0.24879885411272018,0.29342334596320074,0.3345457532759313,0.381895597008433,0.43702489469546046,0.49305185610435975,0.5488255749609996,0.6046588476291075,0.6619431030048992,0.7163896389860855,0.7760879370952509,0.8298466698850808,0.8862271526836378,0.9194129268943609,0.8873817383811275,0.8276439728989307,0.7673539560986031,0.7124778850525526,0.6555884978721962,0.5951743208663771,0.5380351667447163,0.4833822168656514,0.42312911587147894,0.36302942559675655,0.3089697503875808,0.25240278819366635,0.199136331569721,0.14763118403956765,0.1506532600017425,0.19264898297173638,0.21878297944426017,0.23275093763022636,0.24424497135936507,0.232550792787511,0.24369346273839976,0.2620151274730167,0.2779333326475615,0.28242388012417874,0.27578802413245906,0.2492841400812078,0.21474834725021408,0.17456011633885193,0.13423460998824033,0.09383475657270313,0.05912094620385022,0.07524706351491384,0.11160120805458495,0.14936411935217486,0.18627606288704546,0.2151965266795106,0.23675791062452456,0.2689994456804343,0.3120227685818564,0.3634451725784058,0.4231298553143359,0.4835226396732115,0.5393742862383497,0.5952075589064578,0.6524918142822496,0.7069383502634359,0.7666366483726021,0.820400130598147,0.8786168328411048,0.9336241087152233,0.9570946509687526,0.9206420765941499,0.8616680994429664,0.8023213987103521,0.7489801598291181,0.68965393285191,0.6298599907318481,0.5763188376617596,0.5176362045793976,0.4571604145759327,0.3984581782380672,0.3449401081938652,0.28558707466134736,0.2317855282494783,0.18968782574147314,0.21775592426679036,0.2599822076241607,0.27468432423957534,0.2848303575044908,0.2982103073606539,0.2792123697183546,0.27234343173498354,0.26855249185318675,0.2573411544833677,0.25485405315235643,0.23824399582132005,0.2048967263522523,0.16307349816764782,0.11878072722447341,0.07684242423566756,0.03853058816030375,0.01196692958464407,0.03521628954661615,0.07512960885503861,0.1116579477848676,0.14451377584106861,0.17240727122393906,0.20112853747155857,0.23225538183076933,0.27851462950204264,0.33059938631109875,0.38730140593325646,0.4408294668444579,0.4989707148561888,0.5468074151296891,0.5939722324607744,0.6495609046624355,0.7049175059531214,0.7651918986192705,0.8212982901139092,0.8766555229867874,0.9183985566781254,0.890730997616304,0.8382122608506959,0.7784965458998527,0.7180410742597723,0.6609019201381123,0.6062489702590468,0.5459958692648745,0.48589617899015214,0.4318338352280835,0.37396569683413805,0.31349408872044604,0.2532767417007935,0.1988322516991059,0.14388519740266714,0.13422274899651754,0.1813665915269158,0.22376249740454446,0.2343119241635392,0.23297018167897732,0.24013561961347718,0.21759854076545393,0.2157350887035865,0.21063535863824479,0.21412964746115715,0.2426797101551159,0.2755514723511663,0.26987983503989343,0.23798505910471235,0.19805335262303414,0.1518648024863447,0.10441990095105069,0.06217829982136025,0.02966081120159747,0.03977243803165598,0.08109629492641846,0.126289481685522,0.1644595667969726,0.19803558197343318,0.22616525924549546,0.25166563015445775,0.28931385801673626,0.33886230333139133,0.3911886464881731,0.4440174665471257,0.5020088582286921,0.555764046365762,0.6140545188057911,0.6739293425706581,0.7275555122992297,0.7860639144590349,0.845244135476187,0.8985887179846943,0.9568478146669801,1.0000000000000002,0.9847677739491616,0.9278164577922376,0.8673432315032013,0.8083181403708266,0.7549292717087297,0.6953249565713457,0.6348378566534054,0.574390083313751,0.5175068228632742,0.46263433518327823,0.4023374707510885,0.3427502199199912,0.2893700553119387,0.23112939182384507,0.1833922996834061,0.19172670644246126,0.2397698536687587,0.27938439717106545,0.2883072077711868,0.29062355307809384,0.29526050962805317,0.272776853296556,0.2757167746493405,0.2761898692063396,0.2589777831253983,0.2546746799849544,0.2543242845290994,0.23581415447123333,0.19998181125816372,0.15703370194680555,0.1103454136469002,0.06489501358376981,0.024469820843190382,0.0,0.021494585728507154,0.06264843100268158,0.1073751850505551,0.14394522711448476,0.17415278791155342,0.2013818861246519,0.23712528461903726,0.27768043890555294,0.32682973963588946,0.3805490194280452,0.433662054763746,0.4888907449480018,0.5442455976691167,0.6045199903352656,0.660626381829903,0.7162300801319226,0.7763721672653479,0.831025117144413,0.8879741767556533,0.9423497838417034,0.9758075008601852,0.9405139726371929,0.8805796227898235,0.8220683995249496,0.7684422297963789,0.7085575064920591,0.6480696608649401,0.5875818823971706,0.5276813693503928,0.47404495671858093,0.41556033114712165,0.3550974547125447,0.2972427130019639,0.2431882950635642,0.1845361411618145,0.1343984334678585,0.13184326170438632,HB
0.16583252390008485,0.18550638204576542,0.1956796586906081,0.17040849972340855,0.1404406646787344,0.11260765849752297,0.08887993224615265,0.08245489334330425,0.10280875300631542,0.13010559412552902,0.16045928375405782,0.18972230114866095,0.22017289295016595,0.2466983753484453,0.25181687834829347,0.2387985324854186,0.23164363144935207,0.2470360614713184,0.2521815641671822,0.23780071444886253,0.23023631205398065,0.21736173475844867,0.19362134929887753,0.1598447595202831,0.1241974044600398,0.10427593144752256,0.12651935888921995,0.16279364672080143,0.20080104574186897,0.2377677411588709,0.2757872032190505,0.31589718227129737,0.35603659640809426,0.3957312965566807,0.4319043798223501,0.47104567422010835,0.5111816993942224,0.5513210627531762,0.5910027744472004,0.627164786447701,0.6663290374048767,0.7059379278745235,0.7384911868827371,0.7320557937975176,0.6934664896486973,0.6559980660417533,0.6185046585100604,0.580367323703787,0.5435536568148631,0.5053930641417865,0.46899979330333164,0.43301914294700494,0.3974175667155406,0.3627717064815892,0.32454843269192835,0.28721146412893916,0.252025153095226,0.2170415534793595,0.18527500715809397,0.16059921921219633,0.14789440402301135,0.1339547203760484,0.11191830555582116,0.08416153774015045,0.05514408966738649,0.02484337671033998,0.0018467862741474717,0.0,0.023856485414039175,0.05336692877901905,0.07888614105546088,0.10716705167771112,0.1386036377385249,0.1684743935415367,0.19589516988237554,0.22015633592474304,0.2360686678780134,0.24545005144331145,0.2698992826204166,0.2970135072376793,0.319311692591578,0.3245115978481661,0.334188638029582,0.3489477819965069,0.34441507671115756,0.31025488881485275,0.2784869422499807,0.2760617723448111,0.30757590607008145,0.3435040571019098,0.38231252886830935,0.4190230451987924,0.4573603889217106,0.49748311173311466,0.5375630289247808,0.5750415595611147,0.6125472011851594,0.6526275812908064,0.6927668430940728,0.7324225778789726,0.7685624473491357,0.8077752733781083,0.8479120909554314,0.8879436540124996,0.9250005991749726,0.9629447512467817,1.0,0.9954628058684811,0.9569451803967315,0.919690861847761,0.8819541352526945,0.8419549431739926,0.8048389928207924,0.7669638976387714,0.7280202579310369,0.6920717147481261,0.6562028707417471,0.6204273919425001,0.5840320037083455,0.5494439949339407,0.5162507589079552,0.48061159001673515,0.4448916995832106,0.41087804522218796,0.3798664398580933,0.36192714185619346,0.3457568350242629,0.32237045009878607,0.2961474449424877,0.2683903504936712,0.2386941676874298,0.21040289769688936,0.18232113714120668,0.16234576715239624,0.17092664512014843,0.19606913797909487,0.2252472931503915,0.2563171043037742,0.28815674772281796,0.30874173705803976,0.3047659095667844,0.2835588788628305,0.2699297377606974,0.27967186965676916,0.28821149526450685,0.2703947724437691,0.25540307694104014,0.2454997104987564,0.23218808194234952,0.2017977726873984,0.16563938675200318,0.1357549031360723,0.1411475855862494,0.17505162637798932,0.21135581928055902,0.2499253018157348,0.2862604074553802,0.32609170220443984,0.36614883608949833,0.4034143214653315,0.4411384797493789,0.4812359496234213,0.5213661138667429,0.5600458032662357,0.596495473207304,0.6363805427757872,0.6765178826445388,0.7158441841912551,0.7519521851362407,0.7911979099149054,0.8125736820552858,0.7837449388436788,0.7438428590729034,0.7067951530330061,0.6688424403863005,0.6288633763093487,0.5919432840060372,0.5539547991143015,0.5169770763871104,0.48054692742812777,0.4440549098093436,0.40432055562137614,0.36807704203036373,0.33419741011677073,0.2995095594731778,0.2644125692849668,0.23022049506773645,0.20101543928862886,0.18331324672205962,0.1682644597106535,0.14905755131234544,0.12478830140132113,0.09629005006994751,0.06468785181532,0.035852084022040986,0.012493542313783412,0.005256830655198441,0.026056990827785564,0.054892983980664,0.08552739594102321,0.11564111904918428,0.14529747664575832,0.17169847785324244,0.1811496662164349,0.1717823081792491,0.17462076207895727,0.19650127736516387,0.21098563619043875,0.20300397646057078,0.2031157056399423,0.19846079132097083,0.16922316136429394,0.13425010552433592,0.1107163013578466,0.12447403093320963,0.15124883727284089,0.18560269312523536,0.2218873532832375,0.2617401355899932,0.30186324397538933,0.3402805536455227,0.37692919097045174,0.41688450020117085,0.4570244923618949,0.4971645399271294,0.5373045874923641,0.5774446350575975,0.617584682622832,0.6576549388591,0.6950253272366322,0.7326354301448468,0.7711840763095519,0.782554286517686,0.7489272795818451,0.712764722495228,0.6737484035331935,0.6366712174555549,0.5987939528807635,0.5610290830280731,0.5241531190813198,0.4881406355541189,0.45301093269215253,0.41787844988543466,0.38279933852299575,0.3483694517720114,0.31385625263854544,0.2786682011257019,0.24317362291525835,0.2215398427969899,0.2167077581225787,0.20458971083569377,0.18068448180118724,0.15413401549568695,0.12741621834563777,0.11088403031706107,HB
0.1302976595519716,0.1684439088719869,0.20529345294301682,0.2338192750006003,0.2622891083672869,0.2899049690758051,0.3197800406644682,0.3666903855942891,0.42277807474987883,0.47948901851479997,0.5361254965065241,0.5931224287500614,0.6553576356179707,0.7127372615608096,0.7690860916974569,0.8313045649535651,0.8893490266150952,0.9450275119691227,0.9967110791747369,0.9896674178703275,0.93879519315395,0.8837436178083675,0.8216534618077613,0.7609411249309961,0.7071075075578133,0.6457286337155095,0.5858887292175545,0.5316244485891044,0.46979219113636583,0.4074524667778423,0.3495773150877375,0.29682808000467564,0.29270398607023496,0.32353412358728173,0.33124910461842494,0.3156936451808554,0.28638960572973526,0.26361791603002005,0.23699324527959864,0.21433187900187,0.2256472581070088,0.22553813262078082,0.22481261822030452,0.20892549662196558,0.17808258510591735,0.1400327710775957,0.09511011262768077,0.04977377421625406,0.004735109707811214,0.0,0.03008876158080409,0.068647158917859,0.11318728828785996,0.1579669280310787,0.2016395683616976,0.23499262211705263,0.2604143195531534,0.2853939021323255,0.3131640741978874,0.3487423885271643,0.39814395544439574,0.45123115330994956,0.504564003196553,0.5649312639701627,0.6192345416557465,0.6790200183492199,0.7413561376711768,0.7994005993327056,0.8551455633999532,0.91704032044523,0.9680238426768875,0.9738913426786375,0.9282361050977328,0.8672680387883869,0.8187562058093127,0.7642370652953012,0.7022817233452412,0.647447469981584,0.5883836390509853,0.5262738243603549,0.47091881405182523,0.4124403649959776,0.35008168452989574,0.28805808579691394,0.2477303872027803,0.28281039475194936,0.3267870503449155,0.3504308841881816,0.34967494193710036,0.33312146121782726,0.3036471710663313,0.2859463105998281,0.25669078341088003,0.23821330767683935,0.24305064488267925,0.24079197164821942,0.2292406712807986,0.2092864439639115,0.17511640234119752,0.13211661698988064,0.087623216539372,0.05869632660285662,0.07196156201680237,0.10690617152227211,0.1507339440932005,0.19162716940641378,0.23000088729121426,0.26270390914910724,0.28724962814702404,0.30491093709162786,0.3334535444382569,0.37369311249573833,0.4204272354658669,0.4757163174882293,0.5316884276165621,0.5871672605468778,0.64531763111493,0.7072576698703559,0.7619371058554458,0.8212270778830075,0.8835981082460149,0.9446103955801739,0.9784440896023519,0.9494995045493364,0.8929560796500713,0.8377034958462812,0.7757925302645496,0.7201482105422006,0.6619938908186223,0.6005798725604761,0.5467204804493253,0.4861032222259696,0.4237160071100452,0.36181646272866264,0.30917080874808733,0.2978563149214397,0.3358218921482592,0.3528987840098208,0.3420183502669376,0.31794861434806965,0.2855909991976382,0.2627157628904826,0.23731039444994018,0.23778524936588963,0.24260136172527047,0.23430302296981598,0.21536566025840687,0.18114159722848244,0.14345209084650468,0.10138046910820053,0.05837114724671544,0.03954976148061684,0.06847766478598549,0.10442045234877129,0.1449381235747471,0.1836742539643712,0.2207530961669386,0.2538736311997323,0.26838298797489424,0.2861648880961949,0.31516452042969223,0.3621015577957718,0.42166924732183864,0.47546982662418635,0.5337032264508599,0.5883717699032927,0.6502169614005968,0.7066038473889398,0.7639639083055756,0.8262574382718215,0.8850586868795611,0.9392831719691155,0.978562758042822,0.9562046678840459,0.9036151912704553,0.8441869887126443,0.786724133824964,0.7396912988161537,0.6906243778823544,0.6362038457369419,0.5771400702418892,0.5147666265196738,0.45242668041897005,0.39454971324779353,0.33866531817751455,0.28126932244040725,0.2847522447740034,0.3141517795326465,0.31392770383097357,0.3012830543848657,0.27048442352893165,0.25046973274598416,0.22469598592090145,0.20828480712479025,0.22426340813603596,0.22804574792217625,0.2189937749971409,0.19975005897603104,0.16959484579741346,0.12825943773333082,0.08385563807914131,0.04483049335301348,0.04645798408450341,0.08131508122122977,0.12179581664961203,0.15974712635205113,0.19950933220933065,0.23808789412282083,0.2645303517438602,0.28264796173975193,0.3033868524618364,0.3406846391174154,0.38690934099964447,0.43744078873387693,0.4957587884948862,0.5495383061505041,0.6104490378650547,0.6719358849535007,0.7258143914458928,0.7863781252269018,0.8473533530350377,0.9011194398502669,0.9606416281278674,1.0,0.9818846076302643,0.9287164122046128,0.8666237097124538,0.8042330113768892,0.7419144371651867,0.6844817505139318,0.6281646864509174,0.5659140697308187,0.5041904813436733,0.4500412063114019,0.38997745960666497,0.3275945777092448,0.2659378484430843,0.24211184952841025,0.2843996742814683,0.3229795270917146,0.33210711186093067,0.3187501683374201,0.29379342179928547,0.26658662214695705,0.24233517710389485,0.21663069141959435,0.2278758147340847,0.24053727253890855,0.23239639169518456,0.21916409225956324,0.18830530056453787,0.1496994399535292,0.11303062133529407,0.06994453203031781,0.029132177595283082,HB
0.9999999999999727,0.9891833817332809,0.9776848076081599,0.9661862334830384,0.9546876593579174,0.9432030458191658,0.9341593538120883,0.9247837117662625,0.9132964027348363,0.901797828609715,0.8902992544845938,0.8788006803594723,0.8673021062343513,0.8558035321092303,0.8443049579841091,0.8328063838589879,0.8213078097338666,0.8098092356087454,0.7983510363626116,0.7901232671578284,0.779912178204587,0.768417978985664,0.756919404860543,0.7454208307354218,0.7339222566103005,0.7224236824851793,0.7109251083600578,0.6994265342349368,0.6879279601098158,0.6764293859846946,0.6649308118595734,0.6534322377344521,0.6419336636093309,0.6304350894842097,0.6189365153590884,0.6074379412339672,0.5959393671088458,0.5844407929837248,0.5729422188586035,0.5614436447334825,0.5499450706083611,0.5384464964832401,0.5269479223581188,0.5154591611205264,0.5062584981572653,0.4970428928361959,0.4855566657350376,0.47405809160991635,0.462559517484795,0.451060943359674,0.4395623692345529,0.4280727347972045,0.4188390253168521,0.40965711193783655,0.3981711126114716,0.38667262944495145,0.3757533486800912,0.3680423571065385,0.35678020655799886,0.34644421546906395,0.338276878226173,0.3280416271670132,0.3199169290225344,0.31185162211665224,0.30600316424484847,0.30020978043704377,0.29507532898587524,0.2911517948047057,0.28970875818371683,0.2865467152576065,0.2829085085803163,0.2772196113258902,0.27207618765409075,0.2680088065594663,0.2623592201075385,0.2576221179295944,0.2531215346965207,0.2452502840768171,0.2377070823279504,0.23027204210157487,0.2232321054552951,0.2175462054429233,0.21341078494621185,0.20607917904589085,0.20026346989417437,0.19756692174147222,0.19388877065182292,0.1934470882007609,0.19728278114673475,0.19940555203630855,0.20343003540315335,0.2109808957816673,0.21669574570733158,0.22274046607817738,0.2332590753506371,0.2411361207202199,0.2508154101545466,0.2587610661699981,0.27020651432438353,0.281362799615859,0.28901466361007294,0.29842299731053895,0.3068650024655894,0.3147256181469676,0.32440408727158304,0.3306782642707787,0.3382261824462844,0.3444533366663836,0.3491421767612984,0.34960119673249807,0.35244830649075926,0.35785198130613777,0.35503066163723546,0.351108108892176,0.3495546071936319,0.3464344247898598,0.34127695765321425,0.3420001312636856,0.3485815875654829,0.35601598628176184,0.36291224750917556,0.3649780537511746,0.36793265686051985,0.36487973022583015,0.35970200160272864,0.3590600644014276,0.3629227131742541,0.36338657204774355,0.3635290569179069,0.367105874219879,0.36604588054177595,0.36247919430449255,0.35477166946701505,0.34593147323618695,0.3344505997988148,0.3229520256736936,0.31145345154857235,0.2999548774234511,0.28845630329833,0.27695772917320877,0.2654591550480874,0.2539605809229663,0.24246200679784508,0.23096343267272396,0.21946485854760261,0.2079662844224815,0.19690268780950576,0.18925010728646657,0.17807351475586203,0.1665750277994002,0.1550764536742793,0.14357787954915807,0.13207930542403695,0.12058073129891567,0.10908215717379444,0.09758358304867326,0.08608500892355209,0.0745864347984308,0.06308814365562426,0.05241255791839389,0.044534159921428784,0.03319516743718143,0.021696604050228385,0.010198628735897886,0.0009292634839487834,0.0,0.004770823882112585,0.014120136893965018,0.025613700730215183,0.03711227485533641,0.04861084898045759,0.06010942310557876,0.07160799723069994,0.08310657135582122,0.0946051454809424,0.10610371960606368,0.11760222867051873,0.12885473160881583,0.13654369602139366,0.14749504192146828,0.1589935503542666,0.17049212447938772,0.18199069860450895,0.19348927272963018,0.2049878468547514,0.21648642097987264,0.22798499510499376,0.239483569230115,0.2509821433552362,0.26248071748035734,0.27397929160547857,0.2854778657305998,0.2969764398557209,0.30847501398084204,0.31997358810596316,0.3314721622310845,0.3429707363562056,0.35446931048132674,0.36596788460644786,0.3774664587315692,0.3889650328566903,0.40046360698181166,0.41196212425780704,0.42322770119723646,0.43094530091908195,0.4418549621433782,0.45335343773001474,0.46485201185513597,0.4763505859802572,0.48784916010537854,0.49934773423049955,0.5108463083556207,0.522344882480742,0.5338434566058632,0.545342030730984,0.556840604856105,0.5683391789812264,0.5798377531063477,0.5913363272314689,0.6028349013565899,0.6143334754817111,0.6258320496068324,0.6373306237319538,0.648829197857075,0.660327771982196,0.6718263461073171,0.6833249202324385,0.6948234943575597,0.7063220684826808,0.7178206426078022,0.7292280543893985,0.737530323312249,0.7477137798987683,0.7592118992308838,0.7707104733560051,0.7822090474811263,0.7937076216062475,0.8052061957313688,0.81670476985649,0.8282033439816112,0.8397019181067324,0.8512004922318535,0.8626990663569747,0.8741976404820959,0.8856962146072169,0.8971947887323382,0.9086933628574594,0.9201919369825808,0.9316905111077021,0.9431890852328231,0.9546876593579445,0.9661862334830655,0.9776848076081868,0.9891833817333078,1.0,HB
0.8365973861826748,0.8780246543417294,0.9230053769331064,0.9670320231622824,0.9999999999999998,0.9837757585076603,0.9424981445473868,0.9000681972158164,0.8551563516869833,0.8116667078855162,0.7701310238922239,0.7253755533999602,0.6803837419707892,0.6353918331620876,0.5905022907999409,0.5483910929886358,0.5058008200514765,0.46426280544013987,0.4215028367357012,0.3809411650820048,0.3416157445450554,0.3044431993022072,0.2758990504118993,0.2552764476426538,0.2269818798215043,0.20168854375877576,0.19469895924085323,0.1903352114513891,0.21280120955000037,0.23554966637931063,0.22437796296974954,0.19597764370884585,0.1660782124396173,0.1389769871957114,0.11075079186557102,0.07978100201157523,0.046008165936206824,0.013586874277802363,0.0,0.020928470709685065,0.05605201730696718,0.09708173374992113,0.13525681620876218,0.17415420114950098,0.21298191881443473,0.24970647820579306,0.28343476781467225,0.3082091729738353,0.32043525209176416,0.3243304204864942,0.32355863513275906,0.32117879396448756,0.32247866465497776,0.3308721325793418,0.3311464325527649,0.3247289194219728,0.2919822921011199,0.2506909196285153,0.20934977249813425,0.16718075936278753,0.13399469300911393,0.14747120340910302,0.1902039934321904,0.23153930096174746,0.2753213662921,0.32030551037473176,0.36529736790060785,0.4100687228390578,0.4516533248040999,0.4950798123632587,0.5400571848103344,0.585049093619036,0.630004762750459,0.6728661593293352,0.7149253907601716,0.7598088592459362,0.8048007680546381,0.8497926768633397,0.8947845856720413,0.9397386356939588,0.9781009693689673,0.967655234699037,0.9264141418879452,0.8823214121249794,0.8411514176779631,0.7967121503844092,0.7518250120816217,0.7097248874719007,0.6669075878339596,0.6222662964357921,0.580887240079804,0.5372837373383581,0.49528542372048623,0.4527814868215627,0.4122398888683726,0.37795638241414664,0.34128162937335627,0.304358781964605,0.27388657672801764,0.25494081004082303,0.23714168653562806,0.21224644247142832,0.18539184271690512,0.15637280818909838,0.12509799720575243,0.09117933277253831,0.05883853661942984,0.02775439672227642,0.006540784547777401,0.018722900086197147,0.051343880606121384,0.08851333068465173,0.12609528997360397,0.16445595589151796,0.2026550604107904,0.23932992443786572,0.2739650268776106,0.29774750392945193,0.3100455874585345,0.3126917940544902,0.31671636935451397,0.3167647338029844,0.3108904055894046,0.31973294867475677,0.320731412418354,0.3188523686514315,0.2896811416041589,0.2496733824979147,0.2068005349130816,0.1655649734796677,0.12579325384133855,0.12594885753242513,0.16370838614025662,0.20816372873597666,0.2531489816299636,0.2970870359883566,0.3383395144165645,0.38292302832430714,0.42791439105825435,0.47273136054248943,0.5120492923789284,0.5486550813634823,0.5922672657184751,0.6372503278065733,0.6822422366152756,0.7271205651582635,0.7691702296144596,0.8120459117004,0.8570012633648532,0.9015450387271546,0.9426638986729272,0.9749634864336869,0.9532573061234635,0.9119504293134526,0.8690378983182672,0.8241076902850561,0.7810765282062102,0.739168705331195,0.6943241737418486,0.6507814001537391,0.6092867301651863,0.5648692570497846,0.5253375426377975,0.48935445145618717,0.44880176380626846,0.4054105961403036,0.3621273650135064,0.32383668335950466,0.29282324081663125,0.26439776170966567,0.2481343460050065,0.23446905029894016,0.21449470106946733,0.18713400743863806,0.1577566560802658,0.1270859714696173,0.0960073558870217,0.06319438200230898,0.03794628076565221,0.0461088861636455,0.07658202769517242,0.11302947855651901,0.15109895308936028,0.19206914631608452,0.2323513991617817,0.2702184019490085,0.3054535155198309,0.3345677572191633,0.35309920792228733,0.3573898205784265,0.35830182411698475,0.35578686038027596,0.35527875254279984,0.36538601419243344,0.3642195139543888,0.3612594217665098,0.3321077696873178,0.2884613128651894,0.24355522427386245,0.20134720661241945,0.16691626234846413,0.1765508215352537,0.21618785630094273,0.25895598439434875,0.3039052630716419,0.34848880991222797,0.38974336436609036,0.4336788995629015,0.478665592491337,0.5236575013000382,0.5686480604123803,0.6130361100692641,0.6541956997103167,0.6984195919532645,0.7434091757356407,0.7884010845443428,0.8333185415414484,0.8756581156022547,0.9182220342899825,0.9625203553480541,0.9998899448576006,0.9960606145901896,0.9553068399703921,0.9136566900959577,0.870380933874846,0.8254075932875904,0.7804156844788879,0.7354237756701867,0.6905993509951021,0.6488332980988396,0.6056460704286533,0.5621359800370598,0.5208585713767617,0.47957645842374697,0.4380138476969091,0.397457068704385,0.35798800192233404,0.3232177610470093,0.29765807547852274,0.2794574266320887,0.2598733269380308,0.23397092622886995,0.20497723750545704,0.17443776890386353,0.14352927850005925,0.11120639505783259,0.07557635829121168,0.04276392228403081,0.020634299978917414,0.032676224357197636,0.06702997806228073,0.10544926618593564,0.14430172586694312,0.1828647885763276,0.2182551590086511,HB
0.44815992306791363,0.4904729150895015,0.5380423213589207,0.5872860509819926,0.6370880997605406,0.6884792826472093,0.7425637739579392,0.7959631791091408,0.8458897908817629,0.8988116925562375,0.9485181303838239,0.9870173725293505,0.9705788895288827,0.9210778190467483,0.8670848681683965,0.8156815188118569,0.7643787472715111,0.710301948105301,0.6561441253988745,0.6019902753966189,0.5487853405747642,0.4988243032081807,0.4452730232692692,0.3911231699342492,0.33813331896301446,0.2881341857128985,0.24193723592302085,0.2504804934814292,0.2678874396677341,0.25175702912039666,0.2466491957853002,0.25645425604865757,0.2400944939374845,0.211642562109703,0.17440919528424514,0.13074834716964923,0.08697779382141058,0.04522632074752286,0.01425005394689427,0.022124149961026185,0.06383521255098168,0.11030548583448296,0.1607979710807138,0.2068627258482394,0.2522942578956008,0.29523376180360583,0.3337333419515638,0.36409458739611833,0.38969523920196547,0.42451435455871667,0.4667416620530125,0.5058492385559141,0.5529108440245982,0.6033379932011393,0.6572681423597344,0.7093721887825268,0.7600051009727609,0.8120310557705739,0.862582212973042,0.9146410487327783,0.9590812250620628,0.9572333888640217,0.9114351175040258,0.8577975714349981,0.8044650117887131,0.7545315921489764,0.7010815620685378,0.6469257725977697,0.5927708817161348,0.5394373687572647,0.4895039491175277,0.43605391903708934,0.3819190451106127,0.3296234568792037,0.27957552097817784,0.24964717176720141,0.2711121448398238,0.2663473705082682,0.24924646464329114,0.2574054164229834,0.25538592835767004,0.2318160913920806,0.20010453267301775,0.15805948625048627,0.115593694196642,0.07162875233569344,0.02920886303694492,0.010259160288111469,0.045664369505948876,0.09297884973692261,0.139909111283955,0.18595449613795434,0.23168617511485623,0.2755066942843153,0.31609818422045044,0.35135107375483177,0.37879407821773214,0.40716746160478445,0.4485470928379349,0.4963751904802747,0.5475152669924521,0.5972942828406789,0.6472019102424957,0.697825186441146,0.7494738577784152,0.8010282261917314,0.8521120182413646,0.9042112718213007,0.9532615484148792,0.977884082523466,0.944361216594017,0.8912736143950521,0.8397708513541513,0.788566822278645,0.7345001242081506,0.6803423015017254,0.6262177629542784,0.5742081672766941,0.5234695491825725,0.4694724569242341,0.41532024882561847,0.36225889549477364,0.31225466027555804,0.2586209790910021,0.21072362656535382,0.22149934307003383,0.26111292658231866,0.26667830956840266,0.2497283313178642,0.24931724996184945,0.25234311892390693,0.23371568884333616,0.20340981307851236,0.1636719346551081,0.12232000883499428,0.07872172353255469,0.035183227031414965,0.0,0.016967229510161053,0.05419035286734841,0.09964803033370928,0.1463361034149615,0.19299448750605974,0.23868035669313825,0.2818458345934137,0.32257816150015994,0.3588783066449581,0.3843988157268958,0.41517984249469553,0.45979604492929416,0.50790261236632,0.5560753051030216,0.6052340060790327,0.6552766034843296,0.7067539431268208,0.7576698362918046,0.8107437693393409,0.8606838229323175,0.9125653760191448,0.9619033138512691,0.9944932056748523,0.9698335725039129,0.917707203563529,0.863557063423454,0.809399240717029,0.755241418010602,0.701083595304175,0.6469257725977493,0.5928088438360841,0.5426689362350297,0.5001752590128741,0.4475736329192488,0.39346260046977477,0.3416587754674665,0.2907578211460896,0.2388210715610305,0.2108984631741434,0.24358441831245647,0.26811060878499315,0.2552503563757329,0.24982876890240868,0.2626943462543755,0.24751466945199652,0.21950424590749595,0.18261611243930143,0.1414456179926491,0.09768336902093866,0.05481966404122829,0.01491712424307201,0.014579169301514483,0.05529198750272335,0.10165100484204648,0.1483100759131627,0.19471017770697174,0.24043357925263387,0.28501012196977227,0.3281246843882397,0.3643784696979573,0.3919973438456221,0.42288335269735944,0.4649906123992533,0.5112587189729478,0.5593829922209121,0.6079721909538369,0.657671583891118,0.708845323001356,0.7599414291079145,0.8125067279517024,0.8626895233195788,0.9141640964846873,0.9641077343944149,1.0,0.9745057955395806,0.9211857245616633,0.8686107753890695,0.8183222773121837,0.7644595138244457,0.7103019481052588,0.6561445522226697,0.6023440422316397,0.5521700187867629,0.4994215857924318,0.445278798217672,0.39214594252721513,0.3421639310549027,0.2889910945660089,0.2396978307627493,0.21847145952755564,0.25592479654509603,0.2783721741208164,0.26125940919697777,0.24946375200863136,0.25752672005139854,0.2427896561585936,0.2156141114174791,0.1804040436600135,0.14043984498470174,0.09696692077097746,0.05409573465878281,0.011192630430569617,0.006531890168317678,0.04579746902527204,0.09163204498253674,0.13726754576507927,0.17464068551661815,0.20872700167991076,0.2270465421772504,0.24719870284077272,0.28941128667044924,0.3289566784331446,0.3606877693177739,0.3875012377365763,0.42350936268167616,0.4665911647512617,0.5099600162721367,HB
1.0,0.9665563976881226,0.9273112677124327,0.8905408800032326,0.8536183158787232,0.814781462060582,0.7792869075051561,0.7406391333769851,0.7011897123797604,0.6617957371720751,0.6249359270533406,0.5880997414583731,0.5487091076650721,0.5092759569708105,0.4715833678230168,0.4355108364000557,0.3965283774302747,0.37208941159042397,0.3702444204849902,0.3638028845859961,0.3453337578448451,0.33935082484950574,0.344793069475118,0.33503346565143577,0.31649684614337725,0.2985584056339684,0.2985648346192046,0.2939319266124276,0.2704901553616039,0.24115017126392524,0.21156164976967162,0.18190355515288448,0.1508099331394278,0.11738938209830752,0.08530273316145098,0.056031401954215965,0.05181598944729959,0.07940703737993637,0.11239889565051597,0.14420625541130827,0.17844441567795188,0.21026797465868685,0.23841777952227505,0.26655122609228754,0.2909210023424883,0.30817289671130044,0.3265817473068462,0.35714242241161576,0.39033050733869956,0.4266005461060185,0.4622226208616398,0.5012225281873108,0.5376484041241791,0.5749315847819267,0.6143410932597817,0.652401846220831,0.688187065351668,0.7273795466177622,0.766814576792801,0.804528164034986,0.8405848889683591,0.8798599938325142,0.919161421427706,0.9545154104975635,0.967100025648922,0.9387047259595747,0.9000745736921241,0.8608282022667055,0.824870039674636,0.7871202753427213,0.7505543884139201,0.7134302178087668,0.6740651401598907,0.6370157726068291,0.6003633443465874,0.5609894248232368,0.5215378687654264,0.4821919692696086,0.44576509624302574,0.40847585387977425,0.36906438675008324,0.33332304217021624,0.3374119703176377,0.35849564703139825,0.3581613760257568,0.3451605835759174,0.32985515711357105,0.33699915090525345,0.3446378765592647,0.333831072949729,0.3190561036215813,0.3030607893226196,0.2965714850201244,0.29448892001343485,0.27189681983381386,0.24257960962162373,0.21188211974848659,0.1808353055275993,0.14877247575224206,0.11666614613728876,0.08507235566235705,0.05166235946004205,0.020011810634228966,0.012677305730910526,0.03979252757255669,0.07161980781162325,0.10443892084076523,0.13822272683703474,0.1711843033508108,0.20271038813789155,0.23595501515110429,0.265045007883713,0.28944055671637703,0.30938366797482564,0.3278111861276022,0.35371119415598373,0.3869660176203604,0.42230341476477484,0.4596595869881166,0.49514462199613996,0.5340063165143403,0.5715483597062851,0.6077434510034123,0.6470560916764772,0.6865019552995948,0.7247946351717593,0.7604388640136654,0.7995369698080583,0.838988179658215,0.8782562766093387,0.9140428602093686,0.9380831421604465,0.9161469910175946,0.8804555795169704,0.8485939051288423,0.8135231101908802,0.7747717637604006,0.7383801176156908,0.7010720524974985,0.6634000734291201,0.6273365280283705,0.5880562053526786,0.5486352655317421,0.5113142968974795,0.47492162382244696,0.4355815221763508,0.39728036025143665,0.36496167614208597,0.3631006864691083,0.36730671497748313,0.361573694606252,0.3433467391503301,0.3368443272092274,0.3493951522814417,0.3533440295031973,0.34198041246650157,0.32697086528739683,0.3109808936379357,0.30153641820546095,0.30097329888188606,0.2810219541774036,0.2540083925334471,0.22939812060362907,0.19988610480538083,0.16856672147706497,0.1358073052381149,0.10356716090942453,0.07140970758792708,0.036202357866310986,0.007141148327189706,0.0052138860091403005,0.03463058289672716,0.06681197664101879,0.09966612555727106,0.13254068102367966,0.16570449965330436,0.2012174359244725,0.23204204491800529,0.2605661569273262,0.28755097505301574,0.31094500023073035,0.3284215263817557,0.35143771725977346,0.38322941074042693,0.41811271905369607,0.4548664608642985,0.4911100516205005,0.5295799135143826,0.5650834643858882,0.604013201768044,0.6434633710218998,0.6825039634752463,0.7180742586443414,0.7564970732161791,0.7959444724933207,0.8353905496216725,0.8737055627486487,0.9093314751125514,0.9464640453484572,0.9554700228579271,0.9232198318910343,0.8863687016561155,0.849593937626345,0.810342376214281,0.7741262166001215,0.7367288242846983,0.7004354727589721,0.6630262442279391,0.62360265985248,0.584512212140591,0.5488787245962152,0.5105677720610229,0.47114273623550007,0.43354365091285096,0.3974363554408936,0.3655265290334627,0.36697795346972795,0.36526357050835123,0.3498332973263101,0.33255423265265993,0.3373547387597794,0.34899830787789443,0.3405098906840214,0.32540158102751504,0.30850019287525754,0.2973752271287615,0.2984152695998281,0.28521178664419533,0.2610171019274359,0.2556168519037152,0.25595417386219155,0.24898196529560135,0.24332226185027062,0.21913753624015808,0.22278796839288628,0.21532172093515112,0.18681673765359064,0.17221592853965284,0.16575201580790178,0.15023949745311327,0.12014741956633757,0.08822475984143463,0.054305446884335695,0.020130920633908533,0.0,0.018328485603802624,0.04985378770587401,0.08270812729238919,0.11558091727699027,0.14844036907221214,0.180772686686,0.2150303288459211,0.23664812275500635,0.2508136387996759,0.26807537431353323,HB
1.0,0.9912199592999746,0.9848807905215111,0.9750179844012654,0.9650161290456085,0.9579562357789249,0.9493947421444453,0.939385152824358,0.9293726204492572,0.919360624729852,0.9107213679527526,0.9036726156492338,0.8937397834000451,0.8837272522686499,0.8737147198935489,0.8637021875184479,0.8536896820073911,0.8447330350928302,0.837978839680479,0.8280693494742715,0.8180568193378404,0.8080442869627393,0.7980317545876385,0.7880192222125373,0.7780066898374363,0.7679941574623352,0.7579816250872342,0.7479817927300079,0.7411189069718198,0.7323588891396893,0.7223487892817277,0.7123362569066269,0.7023237245315257,0.6923111921564247,0.6822986597813235,0.6722861274062226,0.662277172527362,0.6541117248033873,0.6466211371631176,0.6366532916007163,0.6266407592256154,0.6166282268505143,0.6066156944754132,0.5966031621003122,0.5865906297252111,0.5765780973501101,0.5665655918390535,0.5576089449244924,0.5508547495121412,0.5409452593059334,0.5309327291695028,0.5209201967944017,0.5109076644193008,0.5008951320441996,0.4909192771661448,0.4842715334352792,0.4752731619034668,0.4652622962386933,0.45524976386359206,0.44523723148849115,0.4352246991133901,0.4252258803696788,0.4184416875001403,0.4096022184347827,0.39959186330788377,0.3895793309327825,0.3795667985576817,0.3695542811070496,0.3600501671029823,0.353773421605876,0.3439339575286111,0.3339214303770742,0.323921598019848,0.3170587122616598,0.30829870537413995,0.2987112540855329,0.2923949137212749,0.283736729622319,0.27698254042849646,0.2670730711165453,0.25769761405366687,0.2514925606105253,0.2450933458716812,0.2363650427423376,0.230125875645793,0.22365579132251856,0.21666246293083669,0.20957756682718354,0.2033041745061125,0.1952353712670074,0.19201088051455628,0.18637947393187226,0.1777216809447802,0.17096749175095782,0.1610580015447498,0.15104547140831925,0.14119827720257078,0.1346609923058928,0.12542428995858446,0.11615064799828417,0.10969100947710042,0.0998048613138734,0.0897923321724074,0.0798593641851214,0.07324844006565179,0.06418029538226938,0.05755806537864694,0.05283118645691448,0.044660726960705,0.037317421994618516,0.02736127655642212,0.01856357786522972,0.01166973595759474,0.004239114073734729,0.0,0.0004207382541967508,0.006780886169352962,0.013345161082150392,0.021625508742427635,0.02884192691876236,0.03790043132914295,0.041716652691236644,0.0500068719485553,0.05764153971045799,0.06564905108339059,0.075656985135243,0.08521164268537446,0.09160164913646879,0.1012743596888801,0.10983584635860821,0.11689458345283915,0.1260411846602616,0.1326120908443839,0.1408924385046611,0.1481102681223861,0.15811314132015708,0.1681256736952581,0.1781382060703593,0.18815073844546026,0.19816058303448447,0.20684114241989449,0.2133212687455226,0.21785250414113044,0.22500326995871067,0.23351993471903576,0.2400423745417949,0.2464563505652383,0.2550018257637604,0.26178562329283517,0.2711675373593948,0.27763118303328094,0.2873925997263743,0.2970269590525889,0.3032987790560475,0.3089509190616867,0.3128897036018453,0.31782135581105986,0.32195230806581754,0.32178076050274296,0.3172697769254732,0.3088011594217279,0.30269181229785047,0.30038550219358406,0.30402584179055425,0.3046200299632674,0.30461038969026544,0.3018156869328895,0.3002389700340823,0.30269014135892525,0.3077853057502933,0.3120642371395371,0.3046351722535394,0.29810085901710803,0.2888641337856136,0.2788525033089926,0.26904820395372964,0.26293616904377537,0.26062986515803765,0.26459040245723064,0.27179449157952185,0.2817973647772932,0.29180989715239414,0.30182242952749505,0.31183329519226877,0.3208316667240816,0.327479410454947,0.33745526533300163,0.347467797708103,0.3574803300832039,0.3674928624583048,0.37750539483340584,0.38751792720850686,0.3975304595836081,0.4075429919587089,0.41755552433381016,0.42756805670891107,0.437580589084012,0.447593121459113,0.45760565383421425,0.46761818620931517,0.4776307185844161,0.4876423500560021,0.49687907528749653,0.5034163601841746,0.5132635543899227,0.5232760867650239,0.5332886191401249,0.5433011515152258,0.5533136838903268,0.563326216265428,0.5733387486405289,0.58335128101563,0.5933638133907311,0.603376345765832,0.6133888781409329,0.6234014105160341,0.6334139428911353,0.6434264752662362,0.6534390076413371,0.6634515400164384,0.6734640723915393,0.6834766047666401,0.6934891371417411,0.7035016695168421,0.7135142018919436,0.7235267342670442,0.7335358130492569,0.7416574660139146,0.7455948041156539,0.7547434325501061,0.7647548087527545,0.7747673411278555,0.7847798735029563,0.7947924058780573,0.8048049382531586,0.8148174706282594,0.8248300030033602,0.8348425353784612,0.8448550677535622,0.8548676001286644,0.8648801325037652,0.8748926648788662,0.884905197253967,0.894917729629068,0.9049275742180922,0.9136081408169954,0.920549719463833,0.9305505654345743,0.9405630978096751,0.9505756301847761,0.9605881625598771,0.9706006949349779,0.9806132273100789,0.9906257522229467,0.9999999810956846,HB
0.005100832330897531,0.046734996555497954,0.09446278110288109,0.14290057653084576,0.1864468711163776,0.22432880128747734,0.25719839890371166,0.30005265458601293,0.35058676339269357,0.4057029779231247,0.46107974546562924,0.5168176969118856,0.5738227487947702,0.6314152591056261,0.6868568720343144,0.7458672835096103,0.8006903107621481,0.8528623502302837,0.8584453244536947,0.8114814609657268,0.7524270594639133,0.6928667015729708,0.6374828058588957,0.5797665972822199,0.5199472894395363,0.46010704617805875,0.4002668029165808,0.3404269645228941,0.2812374375234348,0.23041333713390677,0.17463295115336708,0.1200338066616935,0.12478491271895642,0.17861618476923402,0.230998684021825,0.27140755420483464,0.2836579548724265,0.279660403090793,0.2791505835132313,0.28173888377111034,0.2586323111073734,0.2170838905276824,0.1684798008576187,0.11919756053903585,0.06988535982684285,0.02196609833846186,0.01628187760756372,0.05743387922173815,0.10228348159303358,0.1460077279585481,0.1882926675961858,0.2256299337510974,0.26002796843535125,0.3031778712335158,0.35590819125872963,0.41055215106983023,0.46750756784427794,0.5222957663475079,0.5814346488091073,0.6412735175490143,0.7009761623153823,0.7566734630095939,0.7963039194976378,0.7716825045565767,0.7180438572575341,0.6601426218919586,0.6003188334773619,0.5405665450742334,0.48408790849265815,0.42759571708211963,0.36783759985060116,0.30799735658912386,0.24815711332764545,0.1884148986327132,0.1321842452398696,0.09166349614245384,0.1247364141550984,0.18146122088055172,0.23158881778536689,0.26583525759877435,0.276824712200203,0.26851446780992694,0.2511964742062063,0.24880792880923686,0.25339665155374225,0.23407400257498256,0.19808997708487341,0.15351455654258062,0.10563734778851552,0.054881463431714184,0.004787329387962558,0.0,0.040244667610525586,0.08515531174600288,0.13061659326268305,0.17199053569364087,0.20600546865201474,0.23987475289785376,0.28615583784235676,0.33896947362638197,0.39786847293414596,0.4575040368898331,0.513166955066741,0.5705048154706194,0.6277766505845679,0.6834021055734751,0.7395011815709132,0.7858971066508424,0.7754902002369541,0.723542530922179,0.6642053882915933,0.6043657390180157,0.544636650513808,0.4884264978142734,0.43165989565301,0.3718845053912556,0.31204426212977787,0.252212362274824,0.19383385251996033,0.1412315452827555,0.13395344973826662,0.18396916129027607,0.2396279635973979,0.27295440796265247,0.2707757469345735,0.26353851938488115,0.2567376897635374,0.250696048421746,0.2410241831599651,0.21021752172030594,0.17024304588929362,0.12443425649253714,0.08044135428673016,0.06090786910557733,0.08780876224418055,0.12819501219906493,0.16251368660411902,0.19026385456257966,0.22971977993487558,0.2806410155057033,0.33560976686022426,0.392110198197289,0.4483202986456736,0.5079164982910169,0.5639812972624587,0.6209028305297479,0.6802570896222977,0.7352942080788196,0.7925952901246169,0.8255706693257088,0.7924288663518504,0.7355851678638221,0.6757801321258075,0.6159412439347636,0.5567972283287212,0.5019955028159846,0.44329442396599283,0.3834586552375694,0.3236184119760914,0.263828384001501,0.20684127529666485,0.15087923318990115,0.10106700215303799,0.12346625042918724,0.18081019494280803,0.22679498954862498,0.24159034165185012,0.23135998873308083,0.20654933804323528,0.16742142621847056,0.1206983093822609,0.07153553379308597,0.025203273331961817,0.010061617716804583,0.045784940846829825,0.09163465789027136,0.13729550969896298,0.17766979060213828,0.21472636689286295,0.252011392045671,0.2966622197683211,0.34834125816063954,0.403531796843007,0.45926629467087077,0.5146604760180815,0.5720967518469366,0.6285624362947695,0.6848351846345679,0.7366003639692043,0.7845090491586313,0.8293341426946053,0.8146774445684684,0.7588575625902405,0.7001981627768441,0.6453855196074765,0.5862344087288762,0.5263953589342658,0.46655511567278785,0.4067148724113099,0.3468746291498317,0.2870343858883553,0.2271941537531328,0.168020704253369,0.14019971969047162,0.18260738857103442,0.2371955667115513,0.2813952255199368,0.29788440163738317,0.29787339565376114,0.2942589683879753,0.2852276211559628,0.2718297004478556,0.262251703470594,0.22802125196146017,0.18337811272613558,0.13566428229026206,0.08751099830528464,0.0412965955127812,0.024643022392964897,0.06248015620533365,0.1065375258233563,0.15062183770813942,0.1874178305437313,0.22582941656681133,0.26313257180586547,0.30878183609778653,0.3555605736924612,0.4054854688737255,0.4622393017437809,0.5219545837889961,0.5786375560071817,0.6349287233436833,0.6946585857429379,0.7530964110668628,0.8080061584319889,0.8672897391346601,0.9251249116438449,0.9786744996369394,1.0,0.9527243569665012,0.8931346840622014,0.8371368178456577,0.7801400830249543,0.7203500518137591,0.6605098085522796,0.6006695652907998,0.5408296649798092,0.4814030925223818,0.42634052678380363,0.36817658309051904,0.3083480884025649,0.24851315014738673,0.19111278978646196,0.17700014722392643,0.21954933857448933,HB
