0,1,2,3,4,5,6,7,8,9,10,11,12,13,14,15,16,17,18,19,20,21,22,23,24,25,26,27,28,29,30,31,32,33,34,35,36,37,38,39,40,41,42,43,44,45,46,47,48,49,50,51,52,53,54,55,56,57,58,59,60,61,62,63,64,65,66,67,68,69,70,71,72,73,74,75,76,77,78,79,80,81,82,83,84,85,86,87,88,89,90,91,92,93,94,95,96,97,98,99,100,101,102,103,104,105,106,107,108,109,110,111,112,113,114,115,116,117,118,119,120,121,122,123,124,125,126,127,128,129,130,131,132,133,134,135,136,137,138,139,140,141,142,143,144,145,146,147,148,149,150,151,152,153,154,155,156,157,158,159,160,161,162,163,164,165,166,167,168,169,170,171,172,173,174,175,176,177,178,179,180,181,182,183,184,185,186,187,188,189,190,191,192,193,194,195,196,197,198,199,200,201,202,203,204,205,206,207,208,209,210,211,212,213,214,215,216,217,218,219,220,221,222,223,224,225,226,227,228,229,230,231,232,233,234,235,236,237,238,239,240,241,242,243,244,245,246,247,248,249,250,251,252,253,254,Target
0.27292629045091477,0.2847857025318977,0.3019855229007147,0.2919561866556226,0.26417061502663886,0.2358260810879389,0.20748140682110594,0.17913673255427287,0.15079205828744002,0.12244738402060706,0.094102709753774,0.06579564727730397,0.03962389411788092,0.014131903314353822,0.0,0.0160785753735731,0.04388316426633965,0.07221770884051071,0.09913333512824668,0.12439956484408798,0.15260129281511214,0.180945967081945,0.20929064134877806,0.2376092593206358,0.2625874960664869,0.2764730011964983,0.2953725241568895,0.32039249829883454,0.3467295951067132,0.3718759552655707,0.3943804515172932,0.42240655162672924,0.4472639327472048,0.4700531140364923,0.49815986869940543,0.5254128013450976,0.550441353703008,0.5785390654170792,0.6068836351264814,0.6352283093933142,0.6635729836601472,0.6919176579269803,0.7202596018573872,0.747702753624387,0.7726036568229004,0.8006363966440739,0.8289808797201761,0.8573255539870095,0.8856702282538422,0.9140130770632948,0.9416223555548338,0.961616235393774,0.949145102413361,0.9210873587904922,0.8928015898851689,0.8669962455634954,0.8410116510568724,0.8186788096394582,0.7934037894737338,0.7678245370865537,0.7412936130100469,0.7129705687944137,0.6846258945275809,0.6562812202607475,0.627936545993915,0.599591871727082,0.5712529169091667,0.5441204968966996,0.5190195536868751,0.4909020939968455,0.4645779454794483,0.4388724814996672,0.41338529307774863,0.3884454927064297,0.3666541174349246,0.35184254300452944,0.3415605981448292,0.3222006155949645,0.31024162215241513,0.2920423799922094,0.28059152672621546,0.2748829292394519,0.27317793925189626,0.2890490355334059,0.3102698206321284,0.32858522103883103,0.3235902129799565,0.3118988757370421,0.3200411262916062,0.32208967423946866,0.3100287394837826,0.2938829473772153,0.28037219770832555,0.26749215988746955,0.2565313986627873,0.2652520518259339,0.27928807790203725,0.29212570020487216,0.311940118514631,0.3311596289219255,0.3530010949830812,0.37085467327919075,0.38553994255780777,0.3900279863322992,0.38065293548377244,0.3774746126337233,0.3870101960453842,0.38861550465651695,0.38268463224146676,0.38374133059226145,0.3859808169272877,0.3809708710878029,0.35880366346140335,0.3339292017789661,0.30583787386318817,0.2776483883276103,0.2524393664684831,0.22545526335263766,0.1971194272535456,0.1687747529867124,0.14044191725757138,0.11359353913261483,0.08839319544148144,0.06739346299342697,0.07681331013349252,0.10416006731527627,0.12927280880339054,0.15639006071329908,0.184728912003442,0.21307358627027517,0.2414182605371078,0.2697117752710394,0.29570025350218176,0.32183205945617877,0.35013680806347125,0.3784814823303043,0.40682615659713695,0.4351708308639701,0.4635155051308032,0.4918601793976358,0.5201064078157278,0.5456189517096973,0.572250737063443,0.600578726923999,0.6289234011908318,0.6572680754576647,0.6856127497244981,0.7139574239913304,0.7423016479441622,0.7702335948725263,0.7950619750852066,0.8226774980918337,0.8510206457845273,0.8793653200513598,0.9077099801282558,0.935926049518335,0.9604131059283489,0.9628648295984721,0.9372379973181886,0.9124237413531107,0.884682175987781,0.856338901930253,0.8283151237494792,0.8034318273315728,0.7759621957362619,0.7476452681605414,0.7212569397335302,0.6955182734749221,0.6672678558018243,0.6415479294572319,0.6197034126306908,0.5951220605383029,0.5678431178550308,0.5395035554457459,0.5114775368548724,0.4865898387418144,0.4591482418096986,0.4326984376942734,0.4070245274612315,0.3796066450672172,0.35738622363142925,0.3409469757056488,0.3276005626148748,0.31621574992040935,0.3068724753167188,0.29637020945745596,0.28576678470622996,0.270696730907941,0.2545284592184698,0.24148521510710286,0.24497128627848896,0.2589365243015239,0.2739639089880028,0.2933846155595564,0.31359514305791925,0.33382454658943606,0.35345796702322063,0.370355452952688,0.3827000399400483,0.38456890915467723,0.3809680120983314,0.38786807116881217,0.39402324397845157,0.3899493792924309,0.38778313328667224,0.39070359620094086,0.37867072702594706,0.3561401605722877,0.3302980719800277,0.30305590113590597,0.27805938978329714,0.2499708984210497,0.22162633131017329,0.19330492284480105,0.1668845291086638,0.141177089346622,0.11290778378381061,0.08457478095575338,0.05788335213693757,0.04238100199889383,0.05722494136045042,0.08263113359224261,0.10898733098831315,0.13730503726300092,0.16564971152983454,0.19399438579666717,0.2223255203517629,0.24909927792488995,0.274491409109465,0.30271293332303006,0.3310576075898626,0.3594022818566963,0.38774695612352883,0.4160915840863564,0.44424382996200706,0.4693693463470042,0.4964716608244153,0.5248101779167255,0.553154852183558,0.5814995264503907,0.6098442007172241,0.638188874984057,0.6664743199942815,0.6923691187357239,0.7185971206171009,0.7469074225104195,0.7752520967772534,0.8035967710440859,0.8319414453109186,0.8602861195777523,0.8886307938445848,0.9169754681114175,0.9453201423782511,0.9736629022414567,1.0,HB
0.3487993455521908,0.37035296736169115,0.35347093703893545,0.3531661184212656,0.37506923389062913,0.3966792075922105,0.42733626150311105,0.44004333916603516,0.4340453453417033,0.4560604943295557,0.48295414316770086,0.4730442730837005,0.42738743376557514,0.3771101387750549,0.3267228308573186,0.27490095674265896,0.22409086594226396,0.17071997346462459,0.11937683892497869,0.06781034469263364,0.017930045512287385,0.007121132776324202,0.04843592724100154,0.09992226056230924,0.15351919381886697,0.20716208026103594,0.2608049667032046,0.3144136455575958,0.36628875693878454,0.4173760043908699,0.470898963985207,0.5245418421079104,0.5781838848151102,0.631433919306635,0.681914586215177,0.7346418958853027,0.7882787175126167,0.8419196885000491,0.8936791934628536,0.9077801108557348,0.8685869063162228,0.8246703356812317,0.7730438498632324,0.7223377776139199,0.6708047292939394,0.6204450397240266,0.5694759290033806,0.5207221052955577,0.4766460576949367,0.4363807545732868,0.39801270912951753,0.35920312742469857,0.3286137839628072,0.33844216787122255,0.3702942211176021,0.39410140918766673,0.41417414822651505,0.4079557760880304,0.42515736141592514,0.45935772595035734,0.47743668126627975,0.4461052206847855,0.3972923382520723,0.3448143675749476,0.2911883488562466,0.23847038586374675,0.1879848678705736,0.13477254929996113,0.08456567620122735,0.04409710093306818,0.04228579258458637,0.08639133253219927,0.13622759439395737,0.18951391044286742,0.2425871890648877,0.29299115696054195,0.3459691131379528,0.3996092276935131,0.4532517162801632,0.5066068746425845,0.5572032624943926,0.6097134121193903,0.6633461030982193,0.7169561568644529,0.7688600493390563,0.8199228561119922,0.8734401086996877,0.9270827735831286,0.9797732975547646,1.0,0.9560873589725698,0.9025003735850636,0.8490127974319075,0.798077618196166,0.7463467296786439,0.6958180410007873,0.6436770646296943,0.5933334504900343,0.5433286939586264,0.4980409513279433,0.45930711534853846,0.420510866351306,0.37935209510747886,0.34738159869916313,0.3507765782327565,0.38166012838540603,0.4061253545492595,0.43103837897173575,0.4304549486734867,0.44622217557753635,0.4776905971947692,0.4946293418960767,0.4616491808818482,0.41349483606381704,0.3626220109807206,0.310278256860642,0.25965307193584025,0.20630270827547387,0.15408965699662724,0.10332119012531832,0.05472276037028184,0.05222433855526487,0.09800518681775178,0.14936458708949812,0.20170374989559542,0.25236404811801333,0.3057564006587182,0.3593988623042453,0.4128401775822142,0.4636145165785422,0.5158674544360888,0.5694930006323127,0.6231160115627317,0.675299829236419,0.7261287838282284,0.7795871049450087,0.8332298585661413,0.8867237915411443,0.9315047560183809,0.9184347497959093,0.8681217213785091,0.8172092798172856,0.7653030406921426,0.7143979983304505,0.6624836051191534,0.6118880210144426,0.5621055169412894,0.5141714955029519,0.47163218308420035,0.43360933435096877,0.39439033588946143,0.3562865688229963,0.3403497060191824,0.3641186878150447,0.3907455631306734,0.41477184328505173,0.42324542499881296,0.43011531595748326,0.4585450093224461,0.4765718733051774,0.4479194239773923,0.39951750957384663,0.3489122313158421,0.29750364733367135,0.24615256271287805,0.19313089730578142,0.14271670793068514,0.08990455651781448,0.039023017926885006,0.0,0.019564826885133335,0.06813286040583982,0.11848617144444679,0.17177919015376286,0.2248452486209191,0.27524977010825774,0.3282344226818988,0.38187459093197546,0.4355174773741444,0.4891603638163134,0.5428032502584823,0.596446136700651,0.6500890231428202,0.7037317727832717,0.7571795980410772,0.8079767906809645,0.860201493329243,0.9138039016525104,0.9611356344713708,0.9496726450408124,0.899382729957714,0.8484451902255232,0.7957728977699583,0.7453313519173481,0.6927588030451648,0.6423923862935044,0.5912566624756941,0.5417147322465332,0.4941177960105945,0.4520050919024083,0.4118757813597638,0.3731321012665885,0.33618675230690115,0.32260347751106005,0.34960713688575534,0.3798815871149988,0.4040512954699132,0.41879637100029404,0.4161256030704317,0.44008408478032374,0.4722419194557989,0.47658046903489876,0.43482032432851686,0.38499805473339793,0.3347876385772885,0.28224126329208893,0.23144626964602272,0.17922452225055907,0.1256006908199675,0.07262081252639063,0.04296000919733345,0.07543941571726731,0.12502164196529408,0.17641312063664139,0.22921721490441743,0.27964229807430757,0.3327984157751141,0.38643994296962364,0.4400256860149298,0.49158454922704137,0.5429662640494917,0.5965339319321608,0.65017681837433,0.7038162294719001,0.7567309741368959,0.8071471210496046,0.8602433618961873,0.9101011790107703,0.9209529392501823,0.8752235751629189,0.8238195529301526,0.7723236000561213,0.7187454603833283,0.6654336025077539,0.6149560538233658,0.5646841526242747,0.5173467784021624,0.4756038983889784,0.43866532946780595,0.3995197871244462,0.3638312588435774,0.3595792936882009,0.3890386029519351,0.41190292401279077,0.4343117323911952,HB
0.39042378439885317,0.4269198244499173,0.4664339328441882,0.5049102199202136,0.5261693580989026,0.5205125106010435,0.5039111722857321,0.49010908089312344,0.47802525918025673,0.47961209120161885,0.5017490194333594,0.5314998261961297,0.5576723216057282,0.5845850345045884,0.6008247695431794,0.5838008177317249,0.5387395279215139,0.484952379467366,0.4300030998368889,0.36715832379896907,0.3121861727809583,0.24891673226693523,0.18428435695597023,0.12718276254540561,0.07103978251205478,0.037840825666094036,0.06109680406681295,0.12022731792313146,0.17522296503076618,0.23874766739927344,0.3036197882332188,0.3684663215927755,0.42929555207555903,0.4858553321956529,0.55039684680725,0.6152699430296822,0.680143039252114,0.7450138763282006,0.808267882924534,0.8632394371724932,0.9215929771826439,0.9134385621466607,0.8572910985000475,0.7961023640370033,0.7400641429206438,0.6817834112779393,0.6243363063844567,0.5749002451800582,0.5426297694116371,0.5183841648396637,0.4956225543087338,0.4681088497936081,0.4374440075157191,0.4029790166968017,0.36819368397506747,0.3353342023084729,0.30603984528025086,0.3014887496463081,0.32099181018762724,0.35040928518332826,0.3877860241107267,0.42515907170720335,0.46096532737386187,0.4919075325867086,0.5137307550524575,0.5148627185911436,0.505787763004306,0.5105324275462964,0.5038573720376693,0.5069881543690558,0.5286469528414248,0.5599047365158729,0.5838681141522268,0.6098779645596759,0.6227715219596506,0.6062190983256219,0.5710214682611408,0.5302851316266428,0.4745787955636114,0.4153000543733534,0.3556286516629463,0.29974652548134806,0.24484136447951865,0.18318872268944397,0.1280330012290225,0.06885431527557118,0.039644854459527146,0.07367700456492199,0.12914234140902825,0.1894136369012276,0.2542536018646857,0.31809409733325134,0.37329880086556355,0.4361621923830492,0.5010314622875394,0.5659045585099707,0.6307774484743629,0.6949696266770642,0.7503654569775746,0.8126878087689067,0.8775547133064336,0.9424160486166488,0.9999999999999998,0.981658935807437,0.9273922991506522,0.8658185507368337,0.8114729632100801,0.7649172916845657,0.7154945226816729,0.6592553023678891,0.6129397745522691,0.5736632272597053,0.5425832672977802,0.5165162108440733,0.49240673394744294,0.46593058941087295,0.423502481137384,0.3855349384001505,0.35351718893978434,0.32072372481806477,0.3005856158138638,0.308721826761325,0.33399945371604445,0.3651556222733394,0.40064147888683577,0.4399228548950729,0.4793913941009411,0.5059708874283391,0.514339543870937,0.503121674870098,0.4939950120566621,0.49875752357764624,0.49092371296273973,0.4956921242499359,0.5167602482980043,0.547650600387837,0.5761240777401426,0.6027477817487539,0.6156398347637151,0.5926176979414512,0.5445856886931455,0.48736912987710146,0.42635546363337107,0.37007746183559465,0.30785835020101415,0.25299772005075694,0.19779309235461429,0.13656755922031527,0.07898145616322894,0.02341460073096413,0.0,0.0388920107722055,0.09384838821514263,0.15791729098917084,0.22219663406286538,0.2778648332766045,0.3398293916235826,0.40469416643690614,0.46956726265933635,0.5344403588817686,0.5993134551042003,0.6641865513266325,0.7290596475490647,0.7939327437714951,0.8587933374226278,0.9200549940230298,0.9406947993789581,0.8909780875705995,0.8339638309303521,0.7768385854496731,0.7188040228867891,0.6742864232506276,0.6356484436769418,0.5986728251814737,0.568802461913491,0.5400745923287971,0.5126293710644954,0.4873786956025181,0.45435243433968586,0.413244349809325,0.3702823316310053,0.33638638384132236,0.3090274949143943,0.3004324845012185,0.31527391039736496,0.3437363505762696,0.3766319297625722,0.4182557353963443,0.45438623412449286,0.4931063277155474,0.5237043144546634,0.5248107560246795,0.5123450716762099,0.5034950300747723,0.5031257927722284,0.5033721978858774,0.5154933394392873,0.5447411448927497,0.569667212367386,0.6008681810144345,0.6303666429074661,0.6362655234364942,0.612041833641279,0.5593552644986917,0.49595375120997365,0.4409171607645519,0.37832114110318327,0.3225690875069791,0.26392612450403563,0.20809132960942422,0.14562137734340852,0.09147565384098555,0.051881771688023326,0.0699326731760761,0.12312773848414738,0.18719809412595767,0.24412230512603084,0.30449833387582204,0.3693405728768444,0.4342135756084813,0.4986190545413003,0.554720005132378,0.6161337667848532,0.680990727673308,0.745863823895738,0.8107369201181684,0.8756095404662292,0.9395802581305543,0.9922816064661955,0.9930461662911496,0.9316052407418833,0.8667587354172881,0.8059356832632638,0.749776122815556,0.6960536438132732,0.6587261049565678,0.6187095828681597,0.5845593387008481,0.5583437114074361,0.5285612121885264,0.5031124193723808,0.47115399308809747,0.43494668144776516,0.4000945880193678,0.3603264158007209,0.32412370511185107,0.3030603304763857,0.3021619487680942,0.3254617270084814,0.35859223690678577,0.39599937458851087,0.4308422880543874,0.4676348139101052,0.49954639341889373,0.5152940927096019,HB
0.44944747155134157,0.484890557005332,0.5161956397440767,0.5173358453970597,0.5092998323294665,0.5197123568695686,0.5324600998053602,0.5172210688655979,0.5032302871545028,0.520492024600833,0.5513550346414838,0.5748349843188286,0.5780726930427754,0.5439295865519941,0.4961888057688727,0.44483579711609733,0.3948726641462671,0.3419181679721267,0.28719080863332724,0.23554842454100022,0.18440389912019828,0.12979332268953758,0.0785496652906239,0.029599625707898758,0.013944604233615876,0.056090923184345165,0.11070367545631998,0.1655086841787703,0.2203126346469908,0.27445861870479193,0.3241266623993766,0.37774202926951916,0.4325425936118198,0.4873476023342699,0.5421434968415463,0.5953221459670314,0.6452041955134299,0.6995769237071984,0.7543815117673195,0.8091865204897698,0.8639903761045374,0.9174162554297319,0.9349175916348819,0.8933484899314382,0.8407243246747079,0.7889642080613205,0.7385587190860671,0.6891650556222454,0.639890286652702,0.5928625870199941,0.5536369338686836,0.5197641472013576,0.48992871589647613,0.45463753115385763,0.4166620448189856,0.3744068029621782,0.32840955214503087,0.2942461600326638,0.2892281127284,0.3158563196920763,0.34952816808200915,0.38829721569116515,0.4283057492895376,0.4689366967584102,0.505822889980832,0.5303604719488012,0.5252308473873774,0.5237439597077574,0.5183165120691396,0.5021247671022852,0.5175457451098068,0.5480086611026894,0.5751704702634058,0.5796292909235506,0.5470438880909444,0.49940107397575895,0.4498301019455512,0.39759202751816536,0.3473237012757663,0.29277514634753443,0.23845119613815924,0.18862985433653978,0.13534387343442833,0.08119218132438533,0.03608677457785214,0.031593820818149765,0.07828317009740404,0.13159481410250284,0.18136050713807594,0.23563996105351437,0.29044328040892786,0.3445796792291915,0.3942408201829565,0.4478725739861583,0.5026732651036391,0.5574782738260894,0.6122798868969878,0.6659911859299549,0.7156283368446558,0.769708583608469,0.8245121832591386,0.8793171919815891,0.9341216729956822,0.9875005048175992,0.9999999999999999,0.9511917422163804,0.8975794653908332,0.8491532134379028,0.807887298299499,0.7672315523364791,0.7191396098662924,0.6701566692371547,0.6221352812967834,0.579367460317921,0.5455351754248113,0.513146195093885,0.47976621344589654,0.4414857201946075,0.40134687573419126,0.3597709473541978,0.31992957390972687,0.29000274080370825,0.298773268692194,0.32804449394353463,0.3659776601820425,0.4078979583846406,0.44812880919679177,0.4883881948650638,0.5221773955061314,0.5361184162912446,0.5237875039931684,0.5163862113609944,0.5043608673695047,0.5126531842287924,0.5429125187907738,0.5715120848449274,0.5929517614248462,0.5826063204068691,0.5404169658497641,0.4919958944234756,0.4419085003780542,0.39036105909858965,0.33563836486872445,0.28261164066201194,0.23263144636026345,0.17820212914001643,0.12356954756125749,0.07295286869416373,0.022189589008599797,0.0,0.03866362386755495,0.0892091942862272,0.14384649265472538,0.19755950607969808,0.24719644128374785,0.3012751832751108,0.35607877704019286,0.4108833353768734,0.4652557706714978,0.5151064170547018,0.5683169381871759,0.6231126864732427,0.6779176951956923,0.732722703918142,0.7874699509441342,0.839168401634936,0.889965999706745,0.9233002899487376,0.888720141948608,0.8344323917474846,0.7825784409229964,0.7319630343035083,0.6823280972921907,0.6349179006826987,0.588814971358082,0.5480319421816126,0.5169127039151223,0.4867646264601083,0.4495039790870742,0.4062882189267286,0.36251520803850446,0.32126400335269323,0.2849554959368864,0.2728505484003476,0.2953686532724892,0.3301440219704578,0.3688147230106694,0.40859329232942876,0.4498249436725329,0.49163720841221703,0.520869186422119,0.5200338433912185,0.5145359321222877,0.5238771801863881,0.5205577188721929,0.5047592117852341,0.5193489970096091,0.5500462623166128,0.5761660920650861,0.5858618500326841,0.5609081661095577,0.5134610293022078,0.4641912232060398,0.4113300555144036,0.3606090550632389,0.30852619381173907,0.2539863293729214,0.20358196351271307,0.15111843056241603,0.09664541206451938,0.04713848884775451,0.02055057778728664,0.05607546791226303,0.11023371236735702,0.16386097482486695,0.21351014255483114,0.26766261839630423,0.32245991184691347,0.3758823406290811,0.42562779774972703,0.47989103005154454,0.5346954012657473,0.5894807277558903,0.6421502660556014,0.6923918535554864,0.7469244152067461,0.8017293106987974,0.856534319421247,0.9113392996894253,0.9655685725709574,0.9924463750865985,0.9527629643487264,0.8992503280154759,0.8496396730079739,0.7958910546141539,0.7457650256299336,0.6941876715729857,0.6457817006699526,0.601598870491142,0.5595556487162686,0.5269146415760305,0.49811370235337693,0.4622942788070533,0.4218868845404312,0.37587931962161514,0.3334781761598937,0.29590983389777925,0.2733365657278596,0.28990577736162804,0.3211546526108596,0.35895384378454265,0.3983135312306153,0.43869458201255596,0.4790579215487508,0.5120394431712029,HB
0.4085559001843371,0.43687529502128675,0.4497766221705104,0.4234994942201936,0.4062146526503839,0.4206179551520115,0.4216686158303994,0.40978796709334453,0.4242389839116928,0.4142922980533773,0.40260976308208607,0.4185730796070085,0.4399627540464379,0.4497865283264474,0.4301973052693514,0.3841218652763372,0.3333983451722352,0.28289160019942106,0.2300414302362449,0.1760322903868351,0.1259582459878852,0.07195804532292571,0.020004771155524792,0.0,0.03756591648056151,0.0886914168353864,0.1434446550253664,0.19830353507057186,0.25165611779073205,0.30196977053884033,0.3564317497244046,0.41129960669745647,0.4661679002166108,0.521036193735765,0.5759044872549202,0.6307727807740746,0.6856410742932288,0.7405093678123837,0.7953776613315382,0.8502459548506924,0.9051142483698469,0.9597747355049948,0.9955299554345729,0.9603088386767706,0.9103335021011385,0.8568145086310917,0.8052022647841084,0.7536981089986963,0.7033152691738234,0.6543767959218552,0.6136822111534295,0.59156410432466,0.5815088572521059,0.5685366466789838,0.5701340944426052,0.5781633497485816,0.5978876620841285,0.6104654398707308,0.5952825016613812,0.5550887788402112,0.5019069163970344,0.45176208431265774,0.3974888514702003,0.3435307479300753,0.29457872517527617,0.274461872223134,0.3148511686039348,0.3692519903572796,0.4238305968502777,0.4743828797421872,0.5273861877723833,0.5822383792745298,0.6371066727936838,0.6919749663128385,0.7468407180671504,0.8008417274338235,0.8507027137990288,0.8859186510118933,0.8546167976513699,0.8024614334161735,0.753008822714087,0.7059210290176043,0.66795573014649,0.6400659509637905,0.6228382134936508,0.6047993404805139,0.5784493080791078,0.5526288438273426,0.5315218795628833,0.5445608626743947,0.5685436572312415,0.5684184284752198,0.5286399849207002,0.47824696150718315,0.42547193527553995,0.371122165547503,0.3209081077828295,0.26967498140488266,0.2527562994732985,0.29595002507473844,0.35070791677507795,0.40557621029423196,0.46044450381338664,0.5153127973325413,0.5701809180180086,0.6247631054898424,0.6753259244059715,0.7283159583626593,0.7831677490046307,0.8380360425237858,0.8929043360429401,0.9476709818111262,0.9884348055366978,0.9588417342699802,0.9064809953639597,0.8557378205324242,0.8017655631789466,0.7518380066136106,0.7023061872520595,0.6579020904242887,0.6266258039515429,0.6076609575602561,0.5898247529386464,0.5762772323679264,0.5618447088652809,0.5444701155028189,0.5508622861179913,0.5633275508431728,0.5616163129706673,0.5537759366901458,0.5528624040429393,0.5216540178406885,0.46836179829697966,0.4177959189103482,0.3648088533082219,0.310064216123633,0.2586279678700285,0.20718936842836055,0.17249101752932772,0.1994989937625451,0.24945637922076003,0.30408141232819896,0.3589103987699349,0.4112270532114898,0.4623492187970166,0.5170679722295553,0.5719362657487097,0.6268045592678648,0.6816728527870195,0.73653748666206,0.7903696676866707,0.8404650976525543,0.8946609469407858,0.9495205086989327,1.0,0.9941294535545047,0.9415132303691627,0.8866467559754021,0.8319305734659701,0.7808233523579295,0.7292346972074053,0.6812659324992323,0.6397174138333723,0.6156424450638402,0.601820914518798,0.5898268352694056,0.5730880075499218,0.563565267154901,0.5724582292929099,0.5897871042884848,0.589667206282064,0.5839065018472203,0.5647420874168967,0.5272174081552738,0.4778412539737271,0.4244229903000817,0.37083416739847985,0.3206498045713526,0.2663061506295882,0.2116601302296337,0.16089132674897266,0.1086137168805511,0.0751468657751706,0.10558409272471903,0.15943757109586032,0.21036585899660132,0.26290219037600315,0.3177411534923922,0.37260944701154675,0.42747774053070164,0.4823457275646218,0.5368393911495208,0.5872242063973279,0.6404756505508145,0.6953326922027914,0.7502009857219449,0.8050692792410996,0.8598751186858444,0.9031739353368189,0.8778461767028725,0.8240801717228359,0.7739115349933658,0.7215448391733124,0.6738529945650547,0.6336573856562826,0.6033046017188175,0.5744276307720504,0.552828019550966,0.5265437900617123,0.5136596211429156,0.5244796621532037,0.5026628247374518,0.4788400759129734,0.4752926493614361,0.4699287220176994,0.44381494058591586,0.3931675520471154,0.33953227328129554,0.28938098180995375,0.2350943430232838,0.18033389765000263,0.12891723340934058,0.08158200230178114,0.0770064892036858,0.12310347969047408,0.17613361520359927,0.226581539964269,0.281111648833993,0.3359797100307613,0.390848003549916,0.44571629706906946,0.5005845905882245,0.5554528841073789,0.6103211776265338,0.6651894711456885,0.7200577646648434,0.7749260581839967,0.8297943517031514,0.884662605620905,0.9387529481433667,0.9606974737922165,0.9155261462575259,0.8613155555315761,0.8111868860264215,0.757553485202282,0.7061315299482589,0.6550496104049643,0.6066181474562764,0.5604346829369806,0.5333689906372465,0.519992477907407,0.49776055719388923,0.47969665634557734,0.4660583235605813,0.4391554771674111,HB
0.13983438698327522,0.1209576891140891,0.13741388639493124,0.15553686934761868,0.15656204170860355,0.13888741612499111,0.10589012514127694,0.07326636523978469,0.039738424254694316,0.010993731424781217,0.0,0.025485578561772027,0.05541263144695918,0.08482348612276969,0.11534974333189973,0.14539361309171284,0.16614019249472523,0.18928015448272828,0.2266043185876161,0.27025493154966984,0.3159324690764844,0.361910589159423,0.41356124766474567,0.46331018736284446,0.5106250403230324,0.562984182868784,0.6155622242269856,0.6669678045396807,0.7132353649354206,0.7649352786710555,0.8137902367385543,0.8385203086634887,0.8136325981705566,0.7648884876406514,0.7171181857008242,0.6679076099575618,0.6153686615752771,0.5629628655782954,0.5153815980251073,0.46593487293082014,0.4133889588318167,0.3608081482216081,0.3082273376113991,0.2556465561159731,0.2034256292919021,0.17404408508523916,0.1962054077933868,0.2069497511931957,0.20426155381626399,0.1961223751749248,0.18097066396950345,0.16411617141880996,0.15271723776729207,0.16974982025626062,0.18081338462208074,0.16799291225392943,0.14577450829124583,0.11679347396395601,0.08666751666379002,0.0690748006153945,0.07344851372090377,0.09968963655434249,0.1261184240903246,0.15871084375357802,0.17918138673195494,0.201575744447813,0.2237463923959193,0.2588701448235535,0.29983753890913967,0.3484015301769292,0.3967346282533122,0.4453298269307655,0.49783891040925377,0.5503113806888393,0.5984569180871155,0.6472990839521682,0.6998185892498372,0.752399399860046,0.8049801730883115,0.857330990361511,0.9045871595966453,0.9479350192915039,0.9501086640854106,0.906080895525508,0.859381130675364,0.8089598701748428,0.7563912224452658,0.7038123249613628,0.6522906280152654,0.6060153133534101,0.5544099179291182,0.5018307329944736,0.4492499223842654,0.3967319901913777,0.3479271618975037,0.30010385348075097,0.25713034971333815,0.21408525469630724,0.20641777466999356,0.22690682591540634,0.23472989818879175,0.23570120015515617,0.23102443929758487,0.21669353578776107,0.19730819485890372,0.19814150405350328,0.2109030706854611,0.20192915691492463,0.1737138593110219,0.14346825541046204,0.10689128141267834,0.07729537602660952,0.05427989735471028,0.061616678382206524,0.08747295537455058,0.11949651578775389,0.14568206014761942,0.16843466549226527,0.18640911785117886,0.20752725561743302,0.24074492322435193,0.2852246429259542,0.33210923851281327,0.38408243242947404,0.4311190053349434,0.4812033748840232,0.5337645282682411,0.5856585068180686,0.6319852965878985,0.6831685185245189,0.7357302886337973,0.7859064511949521,0.832871638961288,0.8830638181755448,0.9206393837150582,0.9117227251271498,0.8640118753850723,0.8114587422069197,0.7588779315967116,0.7062971209865023,0.6537163103762942,0.6011356337310767,0.5488832860016772,0.5019421861018105,0.451722373442599,0.39915582092550195,0.3465750103152938,0.29399419970508456,0.2414176634520464,0.1910959447403755,0.17538728951881488,0.1828379669679887,0.17581053795026014,0.16346879308699735,0.15575905784501876,0.13837223781905772,0.1213894474432724,0.1301283247664402,0.15174380425913303,0.15633058186334003,0.13476766687564057,0.10381165216067667,0.0692901313049279,0.03933509118707734,0.019128426115467168,0.02490179931082337,0.05398537949426441,0.08443501656528674,0.11558195577281904,0.13158047967140996,0.15287796569812118,0.1747538524967629,0.20186914815789825,0.2396211552138967,0.28172418338144456,0.331825412512077,0.3823946211402631,0.429058172014237,0.48121750124921236,0.5337856477578904,0.584188790828938,0.6309858757881306,0.6831970995515753,0.7357767443087506,0.7874647585432071,0.8253869859221725,0.8197919948872385,0.776949721073174,0.7246900474756566,0.6735236995035239,0.6271885749396029,0.5752860474212187,0.5227060019237244,0.47012519131351604,0.41754776190398757,0.3662471669792766,0.3199382446022956,0.26814458499814897,0.21557130612710362,0.16686448807032894,0.1688669023744982,0.19371306933904764,0.20116210320662886,0.2028166041010535,0.19892777998218136,0.1844318353415919,0.16887341616010332,0.16765279736766003,0.18547543003429712,0.19925959463495224,0.1827530245583211,0.1543104537567639,0.12748621759776646,0.10243535929409853,0.08663713321988031,0.09445228398713601,0.12190616326660786,0.14928210791852803,0.17923999595488738,0.20071065526817433,0.22280428440658184,0.25006666455529913,0.28056042832299055,0.3269493642165664,0.3732451174373004,0.4244088180251715,0.4749047500767676,0.521627322596635,0.5720515206891374,0.6120488651098095,0.656461107048921,0.7065448885325321,0.7591035527764534,0.8103832565099893,0.8566847652898912,0.9084955350991388,0.9589575346637471,0.9999999999999998,0.9998664492093885,0.9548949972089626,0.9023872255210221,0.849806414910814,0.7972256043006054,0.7446447936903973,0.6920639830801874,0.639540938296759,0.5906183459948724,0.5425507575098134,0.4900843042396048,0.4375034936293949,0.38492268301918653,0.3323578071351543,0.28212022516220236,0.2381412935852043,0.2313758045474268,HB
0.27685379057265125,0.31522157360209613,0.36889064844272934,0.42323651577724164,0.4746180362828437,0.5296942205898626,0.5852451057653304,0.640796757351254,0.6963484089371778,0.7519000605231015,0.8074517121090253,0.8630033636949489,0.9185540902714519,0.9724498752828231,0.9844346022346965,0.935106623905373,0.8795748786900991,0.8247718226138917,0.773502825739154,0.7187589473093178,0.6632963088895548,0.6106773449654358,0.557927528277753,0.5048892127628349,0.4538795493400415,0.40485758243133685,0.3594774863971223,0.32106020784142697,0.2887358320111951,0.2707076690658703,0.2514519864210871,0.22193935526283182,0.21879976479536734,0.2031735248896508,0.1646521336586354,0.123813559647174,0.074737651349439,0.02881546547969349,0.0,0.01663637429425613,0.059570190965437586,0.10901416992407398,0.15669016226698107,0.20061748622236042,0.24142680406119865,0.2695295545104842,0.26367288594259797,0.27661384241778353,0.311702977861662,0.34148272129838264,0.32804378918400334,0.2834098833946015,0.2458589701632521,0.26447385527995826,0.314478580636105,0.3678160545045125,0.42333404204646274,0.47886031561243303,0.5324187490348747,0.5843430206011214,0.639696783274606,0.6952483762325125,0.750800027818436,0.8063516794043598,0.8617774523404628,0.902191562393115,0.871606513658408,0.8170253819634702,0.7657085030487888,0.7111948348737823,0.6561122316453144,0.6047205247799231,0.5506764310154794,0.49907914843794143,0.4475973725589576,0.39952782463773573,0.3593389077753567,0.326637226121698,0.2975979544977433,0.26263059002808764,0.21740997063448297,0.17084906774780118,0.1231589451206575,0.07808379128565901,0.0423802324466116,0.0443696132404241,0.08732069505198348,0.13333356070069102,0.17914002329541312,0.22652152511018686,0.2696783957170613,0.3037335552865965,0.31767788102086836,0.29950604385273094,0.31667112681538545,0.3506372521232791,0.37998322219192515,0.370121308314144,0.3308342301067225,0.333611346798119,0.3807508740231905,0.43370242206030796,0.48915601159510114,0.5423348292299829,0.593674125020511,0.6408816149698952,0.6938904242089833,0.7493930136890771,0.8022633510218536,0.8256862691403647,0.7827555176345947,0.7275469447358865,0.6758130943897859,0.6220572415422784,0.5689936626134061,0.5183892591041098,0.46692213818726847,0.4168424505357594,0.3788884410123813,0.3495991897140829,0.3200060971703066,0.2801827169211176,0.2383633834468103,0.1929906644642062,0.14942879722095592,0.10924729847705628,0.10293506020673104,0.14193783322024234,0.18746498513800813,0.2327846132450594,0.2760778003547888,0.30753852658252145,0.30512554641662337,0.2847398033624118,0.3042548547111015,0.3340410571526603,0.34155603621454145,0.30417919095021506,0.2837545398899237,0.32057728478838277,0.37301344608330755,0.42426382101883064,0.478889184427406,0.5343133786521778,0.5866338053303807,0.6397441441423776,0.6950756163596011,0.732980759232586,0.6994287643703315,0.6444552004038696,0.5927956803191913,0.5391816987265151,0.4876156701895117,0.43663046367647673,0.3875207432407196,0.34557532399717894,0.31416173457004204,0.2816516007580483,0.2454150899234847,0.20397110401822027,0.16091488087141737,0.11556258579187839,0.07053092822688312,0.041473673125883126,0.05654863111362607,0.09908616824404404,0.14829593259738827,0.1936028854660704,0.23251649977714062,0.24601376577884548,0.2240542249127525,0.22757764767470245,0.262932211804753,0.30026228347523753,0.3078508972577805,0.2763855898306028,0.28916527367763023,0.33855253177215305,0.3924778247196038,0.4474338182988332,0.49874464957294495,0.5532799271658243,0.6088270448398875,0.6642393179041054,0.715764879902202,0.7396346827081873,0.6982223146463539,0.6429715714909502,0.5905865607845465,0.5377437368838865,0.48586137847495425,0.43340638116935504,0.3835410282600936,0.33833540189760936,0.3031399727141556,0.2728754914611996,0.2387771414858345,0.19809548113548514,0.1511058833282133,0.1050559373797052,0.06100311792130364,0.029329830048730132,0.04233618032396613,0.08540198950611999,0.13208560362002086,0.178734980126797,0.22089408074703087,0.25149411295088,0.24243181005255277,0.2332620747183458,0.2657904435680085,0.3015875581263092,0.3280241243432511,0.3113525220963663,0.3196761548735292,0.3677851954551673,0.4229242605969735,0.47576839673601967,0.5283409284611585,0.5834176998543686,0.6318825164397487,0.6826386607389406,0.7338621985486559,0.7884796929338725,0.8440277995393929,0.8995794511253193,0.9550731485525511,1.0,0.9767106543889138,0.921923831968488,0.8664003147838669,0.812895653462444,0.7609229101334475,0.7055611686193527,0.6501840876097641,0.5981481212562182,0.5448942926411512,0.49291466120298144,0.44133902420015614,0.3918018470228978,0.3462627372437781,0.31111119011273447,0.2808023717895316,0.2453976898078135,0.20258339869901876,0.1584031064239969,0.11303010783366141,0.06960264442783315,0.04066068947827384,0.05797817255100035,0.10072467844452226,0.14622225628298435,0.1924154036213105,0.23451029662884226,0.26325044409435583,HB
0.08039720628278535,0.062057145441721806,0.043359236846166826,0.03809751145158469,0.05284868932192199,0.07474622059799718,0.09450598358739448,0.1176481723095264,0.15390374532173334,0.19655114243157645,0.24043102265890703,0.28728343664843115,0.33342249797206835,0.3848809562120339,0.4364772788416813,0.48807360875189887,0.5396699386621158,0.5911210989975835,0.6369437521018255,0.6847384978445288,0.736293373115658,0.7866940089910475,0.8307844577788936,0.8812090224882854,0.9257207958688587,0.9357878133402473,0.899641176316355,0.8554475544043096,0.8043497437467402,0.752753594901123,0.7011572649909057,0.6495609350806884,0.5979648284824803,0.5468291026031167,0.5022351428092093,0.4529282525466838,0.40133971885831543,0.34974338894809853,0.2981470590378812,0.24655230196621636,0.19603936190108806,0.1519594093864074,0.10221046190138527,0.0848041696355839,0.12389543655102875,0.14784718651878892,0.15039971771313798,0.15165252957549002,0.13858818264094164,0.11455901494073784,0.09420012237723707,0.08146785466296635,0.09145994222183518,0.09408795636980138,0.10821399675949128,0.1226357770704607,0.13310005160421357,0.1333568381126613,0.12180652916996504,0.10546532352623705,0.08769503136305357,0.08215177663177964,0.06045157854767047,0.04670798154440914,0.035238875913542245,0.03817527171939572,0.06248925202926281,0.08148552639463102,0.09626469363947399,0.13021493223937375,0.17257537381128873,0.21610066555931784,0.26341666191667623,0.30874335270088826,0.35988261988243164,0.40520771049323856,0.44740378272057124,0.48629498322969744,0.5365116570621737,0.5807634206838836,0.6306560812145336,0.6822447418158315,0.7321497104120456,0.7763771558455963,0.8272778385874802,0.8785985330028196,0.923646026082346,0.9621267446837434,0.9559991930286571,0.9162854915498106,0.8653618557188392,0.8137658722578249,0.7621801121299956,0.7129459037434673,0.6683310510039966,0.6171408437107748,0.5655446560354525,0.5139483261252356,0.4623519962150182,0.41075779021789227,0.3603820809319216,0.3163277431107341,0.2657259595195436,0.21413077999264507,0.16254025079573342,0.11582881798501199,0.12132074069078591,0.13732488995493108,0.14366388706167932,0.13524905212109095,0.1133061489965328,0.09177681514628988,0.07312632375961714,0.06643692855367811,0.07368488541139495,0.08658106461374016,0.10251125251194826,0.11928869373849382,0.11588457384220585,0.11005014630494636,0.0999996543659829,0.09961072167885576,0.1123578338266138,0.09817510560279352,0.0781020543549924,0.06257292779549539,0.06832296635668045,0.07908826347539177,0.09942135793981843,0.12062614166594265,0.14945710267562506,0.18909490434790177,0.23215044305222743,0.2797111967109087,0.3238053549283142,0.37438708417317246,0.42376477117885236,0.46830472564748127,0.5194220735881345,0.571009636719835,0.6201663948382261,0.6648728657264618,0.7160468789781371,0.7674782065992753,0.8132028543702219,0.8611103997409215,0.911678289490659,0.9557133399861015,0.9999999999999998,0.996865393466954,0.9514449235063991,0.899887342805257,0.8482936756365691,0.7980521475568862,0.7539682293550187,0.7032615517563172,0.6516661265828845,0.6000697966726667,0.5484734667624502,0.4968771368522329,0.44528138893599856,0.39448775237010403,0.35030094153485525,0.30024968733476065,0.24951708148598284,0.2111856104062917,0.16719239627028082,0.12655960744134398,0.13272603455539622,0.15270781560992175,0.15388618679933197,0.150269655384212,0.12789196879646814,0.10307305497054031,0.07438404072284399,0.06618428760660766,0.06601443391255613,0.06295910185168396,0.0671809393838323,0.08114822883807293,0.09826002287322821,0.10867003201301628,0.09780109918010527,0.08142548743469513,0.0704191142739028,0.07495243287192932,0.06471753872639763,0.03986288158911999,0.01668315096430195,0.0,0.003182585089791079,0.021595076505912747,0.040563697841163426,0.06628447745449617,0.1067657589747173,0.15145704967928908,0.19580952914771466,0.2449731886840869,0.291539525526493,0.33855501947230104,0.39000597054047814,0.4368192949530838,0.4835941583044183,0.5351144888452819,0.5859594358175231,0.6301651731763516,0.6801469991925877,0.7316590100257778,0.7784657595276034,0.8252379610272411,0.8733683865610866,0.8907206992636592,0.8573365399065482,0.8135356561303857,0.7628957292637348,0.7113004604108271,0.659704729991273,0.6089355704804673,0.5647580475534,0.5146727383543188,0.46307924418845325,0.41148291427823436,0.3598865843680199,0.3082902544578008,0.2566939245475863,0.2050975946373672,0.1535012647271483,0.1019065002156434,0.05286830480586957,0.05180374747729566,0.08578751746382585,0.10503195240038532,0.11344295244139246,0.10616396768684022,0.09547693582188943,0.07936965209085223,0.06499647589240753,0.07288312650078832,0.07384522916090352,0.07620664086912643,0.08819729617445304,0.1037005591888629,0.11373735710331045,0.11185026378644602,0.11068853548413626,0.09564468286241334,0.0813863079159014,0.08900003613073637,0.08660599825227555,0.06279139859773086,0.040159422265405365,0.03931460368277451,0.055429305129155004,0.07622017864385588,0.09493776655392328,HB
0.010609655761313563,0.02415063315670174,0.055666519611321186,0.07903291246688382,0.0881662192264887,0.1158809675402579,0.1494899958265956,0.17900040096599912,0.2031457231105167,0.22213510600704156,0.23669997055550263,0.23729672197061236,0.2435662220246848,0.24540029381996198,0.24938192134155046,0.271164325484625,0.2940035624988915,0.3064063307410083,0.28331803191308724,0.2409524417734692,0.19853204729893892,0.1665330290477227,0.1810506093715336,0.2249161101075292,0.26818778986984104,0.3109032026004286,0.3571838246576562,0.403559753280895,0.4499355839566457,0.49595433072646733,0.5375009501740637,0.5821642219237861,0.6285317668416421,0.6749076954648807,0.72128362408812,0.7676595527113588,0.8140354813345974,0.8604114099578368,0.9067873385810752,0.9531621336399838,0.9974555978550372,1.0,0.9564383678483386,0.9100822749928539,0.8658309743141157,0.8239902267422878,0.777845204465923,0.7319518173960986,0.6906094495182695,0.6456191503563449,0.5995125545026156,0.5577370178905285,0.5140061073075515,0.4771747846755565,0.4394098303166414,0.3957268822282407,0.3552079304807285,0.31762383475635225,0.2861424952521703,0.26023958030965666,0.23800803820348082,0.21576344137864978,0.18956616562816153,0.15786495795328293,0.12178558376648918,0.09016841043804391,0.07271445586042402,0.0860408208346497,0.11974116234568632,0.156530810454246,0.18949010965545154,0.22046297055862962,0.2516536216824703,0.2820192598564579,0.30403060802641213,0.30239275391393794,0.2872555650926911,0.27475978652240585,0.2626539903320886,0.2506653030768371,0.2592962811619255,0.2756056199527597,0.27446813226675326,0.24091505397261193,0.19689021658964134,0.15533225556025898,0.13121595880712933,0.15465655404805534,0.1980608374204944,0.2397887963688652,0.2858862521481198,0.33226218077135883,0.3786381093945972,0.4249619755024814,0.46827419081539756,0.510957283415862,0.5572341943321055,0.603610122955345,0.649986051578584,0.6962930858099081,0.7393548175096025,0.7822709699699331,0.8238343204529683,0.8134223788541979,0.7682012209549844,0.7218467762705092,0.6778113731892492,0.6357852301962434,0.5896289634812444,0.5457150098763557,0.5035840958336424,0.458107604043132,0.41693154431495105,0.37248212304345696,0.3317317889539355,0.2933627892629511,0.2627592631898006,0.2367429005723023,0.21251967922905224,0.18825379795903951,0.15809858520726294,0.12586954725642552,0.09275123631450388,0.058030195974763665,0.022596560001810206,0.0,0.007955456334294952,0.037732670351254716,0.0727018583939103,0.10779778825100683,0.14031416253789697,0.17064583283924928,0.19365681246522137,0.20507484662865982,0.19896675971973665,0.19240951820306518,0.17753287646667926,0.17148226725788285,0.187932975138138,0.2096757535244549,0.22042831062966117,0.20431104017023483,0.15990712854146216,0.11857238662187974,0.08123106844237182,0.08520249829116577,0.12591967302248497,0.16705990032146523,0.21263967836552644,0.2590142187402842,0.3053901473635232,0.35158852725952117,0.3937235096076641,0.4376340968903836,0.48398623230103177,0.5303621609242706,0.5767198958500195,0.6209377037110706,0.6628143161902842,0.7089582458617782,0.7553341744850175,0.8014917051225181,0.8287885362639564,0.7998079103618401,0.7555895034134297,0.7092475723571057,0.6650603662776182,0.6231665954732932,0.5770297390194159,0.5329640029647245,0.4909643344094561,0.44494126761645836,0.4027235960772464,0.3589146873122433,0.31263984850213955,0.26986734482647323,0.23438647086376063,0.2102271531862694,0.1921537538274698,0.17061065519378316,0.14466015616972228,0.1156412134498398,0.08232600624457442,0.050145112745393905,0.026181369718241254,0.035317359424276384,0.06493796776271521,0.09921233000718588,0.13399384449211604,0.1691346781098222,0.203708395723444,0.2328366730853808,0.25777622347717655,0.27291903040363996,0.2719573119585452,0.2677677061104591,0.2641573930918546,0.267478859617593,0.2890765471804375,0.3075457194918092,0.30213075909661136,0.26633486396439654,0.22291308940293963,0.1824746263661603,0.17931000842628952,0.21750667893322828,0.26369238643608317,0.3073084911944295,0.34970393463679583,0.395947816398293,0.4423237450215318,0.48869145538106995,0.5334845399003034,0.5749331856116053,0.6209200190045414,0.6672957585822792,0.7136716872055182,0.7600468469664767,0.8057272307793226,0.8375323138812492,0.8171756405172359,0.7716140291840528,0.7254573013147902,0.683538522155474,0.6393744024345485,0.5930619368994783,0.5495839051903526,0.5070676233589722,0.4624155396925733,0.4211559585428932,0.3797931958809626,0.3409566739213252,0.30604421393350933,0.2826569871163751,0.26426197471738155,0.24226946534193972,0.21191160351709049,0.17862342468051762,0.14420899844314095,0.11259003705532855,0.089430706625939,0.0982928399715779,0.12642136402640003,0.15952477267526666,0.19353143076263746,0.2235205403547289,0.2509071624537771,0.26134371542758417,0.2513330097834727,0.24278915800471856,0.23840727486256785,0.2239574761665204,0.22819075168819514,0.24752537767809435,0.25230112165731655,HB
0.5088126533442874,0.5285409491301418,0.565726725316045,0.6033725982782463,0.6334546768044123,0.6575446789346937,0.6687352523492238,0.6497097578248625,0.6382278601268319,0.6235764331668532,0.5979583796908672,0.5819611912239862,0.5980999595874821,0.6244771152620687,0.6425646328243004,0.6511652558825469,0.6619939028554964,0.681430302906072,0.6998571914675524,0.7195364022954287,0.7340046686930837,0.7113742632831836,0.6664451970251151,0.6202757442760432,0.5677013676802145,0.5202503358707975,0.4704020395512647,0.4170999088051981,0.36441354725985264,0.3182197076761297,0.2666779243425914,0.21383774278306777,0.1674455878338592,0.11626376583559095,0.06479719647564164,0.028387464544646024,0.04084620277171003,0.08340264434927469,0.13486243524583397,0.18818860065295628,0.24151978062914603,0.2948508754132997,0.34781308008724343,0.39452284988452413,0.44528005771495915,0.49859860241578,0.55192978239197,0.6052609623681595,0.6585921423443495,0.71192100694044,0.7639595844158982,0.8099520969636542,0.853510900931534,0.8336495896835641,0.7988041194512867,0.7787771069074467,0.7807419267749436,0.7726831102569622,0.7577115287066984,0.7360424612227827,0.7058071307533831,0.6782789587752653,0.6732685894997612,0.6939757070894783,0.7282862449272474,0.767765304253289,0.8025590084577685,0.8367831431181525,0.8693348262996605,0.8960188800989384,0.9168546665870057,0.927703834603095,0.9227099564150287,0.9317425907947834,0.9459413605944855,0.9616844696999014,0.9597616349698441,0.9636137814393655,0.9757557641018324,0.97112165835268,0.9633966834749779,0.9424782006306964,0.9020685508149309,0.8512266383849059,0.8051105989693828,0.7533919420212045,0.7073583092805513,0.6553968830500017,0.6023666031563963,0.5554109163376257,0.5049635971996931,0.45167005368429325,0.4013888538353878,0.35430300646747814,0.3027199665298761,0.27536653113407183,0.2988756488834814,0.34424760806541554,0.39458168992174936,0.4478964242694201,0.5012272711898815,0.5539536105405114,0.6002178289076547,0.6516495886960183,0.7049752460560539,0.7583064260322432,0.8116151610575533,0.860747248669429,0.8991266054559388,0.9438828007246343,0.9944801844690709,1.0,0.9513696489537837,0.9087701446302778,0.875181085232065,0.8539601582101695,0.8347947811390888,0.812914729531329,0.7888630034018753,0.7630023220734463,0.7316793083383142,0.6993207655543614,0.666436230749067,0.6407410592599798,0.6353580419180194,0.6562868664301706,0.6847767208073376,0.7182947719912025,0.7486802039411777,0.7683476710409425,0.7785207437478487,0.7637150179209502,0.7391053187618275,0.7166573744625511,0.7090090466483674,0.7162146264514571,0.7319485470473841,0.7504806988088202,0.7653353626035211,0.7639949226964182,0.7529454856739553,0.7401780137194156,0.7221408986032261,0.6911819726770294,0.6418584144962536,0.590473617901446,0.5441971792150462,0.4914624326643904,0.4382521712694252,0.3901059074384754,0.3409852568538352,0.28773837051042794,0.23762167653434174,0.19038763182039276,0.13731328317648084,0.08678055126952622,0.04012588291632868,0.0,0.010010768988215957,0.056441023053350636,0.1051174133258087,0.14495220291448363,0.19384366525952323,0.24116050387275578,0.29428760307041224,0.34761878304660265,0.40094996302279173,0.45428114299898215,0.5076123229751714,0.5609397846524802,0.6127931991401574,0.6588488554607919,0.7113604843173769,0.7646911447618054,0.8179985964603425,0.8627995712869512,0.840891569327572,0.7945820877389482,0.7485268998549712,0.7058199313675255,0.682731514865381,0.6674000505790789,0.6498749521338814,0.6258114086337045,0.6021462147486747,0.5755720214696431,0.5489107381759177,0.5244868165127414,0.5193251432938488,0.5389496867324659,0.571515846178833,0.6067490280901011,0.6332651790042578,0.6456306692593738,0.6446104086483744,0.6330991496633973,0.639672464167186,0.6551714804567159,0.6779958224843288,0.7044379053211975,0.7277351754920425,0.737610819009749,0.7497475240524294,0.7641930094563392,0.7819405337948946,0.7966551913998821,0.7967799014531884,0.7592972228218691,0.7136736466028619,0.6637960878065428,0.6172267393462914,0.564323543416827,0.5109924681849445,0.4576612882087552,0.40433010823256565,0.3510095313433965,0.3000278685383433,0.2534771249934564,0.20058915161850566,0.14944836007571027,0.11564240160845562,0.12760843572174452,0.17042798739888476,0.22292950150728985,0.2762600683801366,0.3291969835921593,0.37584711854479425,0.42668849699071076,0.48000780376216134,0.5333389837383529,0.586670163714542,0.6400013436907313,0.6933204175665215,0.7442015192040725,0.7908222476356983,0.8437490357784425,0.8970790582223669,0.9483901227349931,0.9554298525669096,0.9155976122752605,0.8751170432905151,0.8523482231211215,0.8429956171684743,0.830732718283576,0.8100123737246752,0.789180251801533,0.7648016223050431,0.7490084792407599,0.7541944115706303,0.781851338511496,0.8138388549568119,0.8481523087546565,0.88761238776825,0.9226720908192738,0.9512815442496991,HB
0.9114321210647922,0.8849578611493816,0.8554573268390135,0.8259493991781017,0.7957742467721989,0.7663312684205121,0.7271109891405192,0.6881250882062588,0.650738605389171,0.6347431930237317,0.6551478038136505,0.6818368526635197,0.7189585564101022,0.7606281685303866,0.7945338861362279,0.8203834530608101,0.8303853013894877,0.8358463124316786,0.8444222656301315,0.8347816488356896,0.8158257801803326,0.8060205591774103,0.8255202232630312,0.8496642993901242,0.875076599852489,0.901170909086124,0.9004107224784013,0.8642718954777404,0.808626847359665,0.7486685495980927,0.6887118581903457,0.6328437583121809,0.5796251356246573,0.521989194081069,0.4703020687733799,0.41100538800111486,0.3514923361197504,0.2994529576003171,0.24216197533229367,0.18218311375019858,0.12403214235169213,0.08285241127896015,0.08904949244969584,0.13463402590028561,0.19280935384148234,0.25280007053565945,0.31277523796354356,0.36956397003187447,0.4219998639252287,0.4816255051123761,0.5416194095310194,0.6016133736644997,0.6616073377979792,0.7215890357876247,0.7788855770087986,0.8309206405142084,0.8904321619330264,0.9486971167662461,0.961566070325572,0.9281377652628928,0.902169128230486,0.8801359375131297,0.8587136320790976,0.8249873676179089,0.787259267103189,0.7473057718557081,0.7073152502845172,0.669565193999891,0.652443290404032,0.6751878982490518,0.7091904206234558,0.7481513337120413,0.7872209514266049,0.819543585346618,0.8528010823873757,0.883374606779191,0.8936664694303453,0.890967647129405,0.8843092789435762,0.8646433010613019,0.8437172278364298,0.8542179195093453,0.8798049123150664,0.8936399423309029,0.9235856529985296,0.9361593713412286,0.9081518888289744,0.8580720572528986,0.8004705127569363,0.7493880934106605,0.7034817195563889,0.6585955748316688,0.6040459748839897,0.5475551436662467,0.4949541615001112,0.43527447931332564,0.3757016371085038,0.3234680829580239,0.26642860961039827,0.20763548930751274,0.16762153091330245,0.18080829178881763,0.21988428351089762,0.26157902544299727,0.3137607278264143,0.3734876368683342,0.43348160100181343,0.49347556513529334,0.553469505417157,0.6132421553972478,0.6664429481860659,0.7223375761639856,0.7822949041306535,0.842288868264133,0.9022666175420153,0.959231854143825,1.0,0.9887080360108982,0.9717007929291663,0.9462974750067454,0.9160507884825786,0.8803262273127068,0.8425469304107649,0.8018470349883859,0.7587500826974827,0.7129252369764361,0.6703319319908416,0.650556801092443,0.6641382380824756,0.7003357142195257,0.7414754735758737,0.7870235814610698,0.8218502106941572,0.8504691393776618,0.867478469300742,0.8706262424801041,0.8616381130057533,0.8462988313847655,0.823686084815602,0.8170391133303663,0.8333303795084128,0.8526370833277641,0.8737918508309088,0.8808975037750293,0.8506408522196043,0.7918706123031816,0.7323050130976905,0.6800936155706081,0.6238918198338688,0.5723487560658509,0.5141979979630791,0.4543433221760742,0.40041731360700394,0.34530455959698547,0.28537696796968803,0.2254019754929697,0.1687711927468778,0.11645089479949777,0.07438314302225324,0.09243394449352627,0.14957773047290757,0.20569130393636925,0.25868653664364394,0.31843486657385434,0.37842883070733424,0.4384227948408139,0.4984142919499035,0.557008860830813,0.6084178208276212,0.6672496435862896,0.7272421338361739,0.7872360979696531,0.8472254276248827,0.9036446085000158,0.9062001959606707,0.887248463414662,0.8680190776043823,0.8452852320720672,0.8141198430634122,0.7787727629996402,0.7417363927516092,0.703573331427201,0.6733600899989958,0.663873633542843,0.6911077146711626,0.7254362406962995,0.7626773958310245,0.7899280968565008,0.8100240211456577,0.8245355808920394,0.8236546322340494,0.8110790537845443,0.7898058708803257,0.7682255897084473,0.763236962669039,0.7712871702841695,0.7827876029705254,0.798272302278535,0.7982675561392607,0.7630013177618982,0.7119819669468159,0.6546953585590685,0.5972173317323521,0.5452978477706876,0.4869493101713427,0.43551888850843423,0.3770617777110006,0.3212108541232219,0.2765523054047945,0.2302428696708929,0.1819288629384299,0.13436571651254225,0.083065042879654,0.025873551486032875,0.0,0.03784161882040582,0.09721788704981038,0.15658012156387824,0.20837517314365805,0.26605717772221116,0.3260434305383215,0.38603739467180254,0.4460313588052831,0.5059992871721135,0.5621791794753361,0.615120282619974,0.6748567336671634,0.7348506978006444,0.7948446619341198,0.8545967318460295,0.8930483768037067,0.8711857490583035,0.8547264144159974,0.8388800755884618,0.8183209141953147,0.787907026685909,0.7504823740390159,0.7054582172501256,0.663589440673138,0.6329845784715702,0.6320995589222198,0.6640581484951991,0.708208729913351,0.7494836094547785,0.7818440986980468,0.8160055720763395,0.8455617886848239,0.8598942151170779,0.860405746685037,0.8580132733636592,0.8435324781519538,0.8296242822925817,0.8459681404794055,0.8704597078065843,0.8893790870309295,HB
0.5370448488967037,0.5406515727810456,0.5327005060196928,0.5303265510782895,0.5262336175161674,0.5281446086914956,0.5492105563811972,0.5612760652525056,0.5326801444202955,0.48622114214820733,0.43764176883793227,0.3846680512263212,0.3307602012210482,0.2768488579091616,0.22293831698102395,0.169537889938834,0.11991023935761824,0.06725952134893998,0.019126101547789542,0.010390761741223387,0.05441913135816823,0.10743212774217481,0.1569820418630996,0.21005647056610788,0.26396511856107807,0.3178764618729646,0.3717878051848509,0.4256828193665825,0.4778529443883117,0.5278470373797824,0.5814923463920177,0.6354035569454376,0.6893149002573239,0.7432262435692102,0.7971375868810969,0.8510489301929832,0.9048892754461054,0.9502903552538727,0.9358980934702764,0.8874180608626342,0.8352639238657201,0.7839373980318342,0.7340234536890368,0.6846225131854929,0.6340710393636185,0.5930990109520896,0.5613125745365185,0.5370971927509345,0.5068599407239117,0.4692120685544816,0.4332976705425797,0.3907523884721479,0.3453697477813974,0.301379502720015,0.2551028758272367,0.22411096087482685,0.23612081834534349,0.27611087129198586,0.322349466789573,0.3701978700542429,0.4152259134064413,0.459078991150658,0.49877197697554365,0.5332116469318949,0.5613090880427193,0.5708525255562994,0.5588553931567549,0.5497336045367042,0.5473812974463698,0.5610815565999748,0.5733666542439989,0.5602313625280421,0.5121983030105411,0.46164259261352936,0.41022431081344846,0.35815608540859867,0.3081161341166122,0.2544806599058125,0.2024790586877785,0.1536463038791206,0.10859080247610053,0.057765525488127745,0.014176094192244248,0.01709220998439709,0.06485482966547851,0.11852558128549251,0.16896389835129222,0.220597111418105,0.27447247198969327,0.32838381530158023,0.38226707149148875,0.4340815574499818,0.48435909020703194,0.5380882298335518,0.5919995670621666,0.6459109103740527,0.6998222536859394,0.7537335969978262,0.8076350820638273,0.860133933764116,0.9099098115593763,0.963103188596946,0.9940384398418588,0.9557312742775107,0.901955434012267,0.8484900950571207,0.7988120641809983,0.7466305882525263,0.6979870857410263,0.6572985566410857,0.6155292560237234,0.5779201511034625,0.5504837154761518,0.5234162670896249,0.48988686380232804,0.44930867178513023,0.40644759555325727,0.3607511530352451,0.31286620339037496,0.27014280458642215,0.240767185894311,0.2523927727773968,0.29088500940561846,0.3318436701571025,0.3765755718010173,0.4215005018888175,0.46602266090857825,0.5062992030344577,0.5374692544498343,0.5541618259583486,0.5502561031951948,0.537772521637592,0.5328281309180009,0.5327724542748489,0.5458862293367247,0.5553777483202836,0.5424592782051144,0.4987492002244702,0.45161603444415754,0.3998637015931892,0.35027677960003545,0.297416604913204,0.2439119580226372,0.19416556179256272,0.14165710794285435,0.09132999972305711,0.047718309277130166,0.005859601504940026,0.01385302032720559,0.06294399815191154,0.1124805406012751,0.16571947217561322,0.21962921263099555,0.27354055594288174,0.32735935019206497,0.378156790939561,0.4245078435555686,0.4619803545191986,0.49792678124932244,0.533947167283453,0.5737772277228089,0.6167889477980316,0.660382699113479,0.7074135732315,0.7467943331992372,0.7955308068295616,0.845485754005555,0.8975430604929809,0.9395943989799874,0.9141996029827978,0.8612754127256715,0.8115572929854052,0.759989873062905,0.711139914255651,0.6638803093459408,0.623032059700284,0.595843521312094,0.5655227016438796,0.5318241928068769,0.4941744522724133,0.45328171609885426,0.40886234457940585,0.3598135216229511,0.3144519037553146,0.27038472592067064,0.2337879939264217,0.2278950866041768,0.2647100924971515,0.30909530134861873,0.35401641013135643,0.39914677351542316,0.443444596710695,0.48566018820577916,0.5244828849444172,0.5606751770356787,0.582790914616823,0.5689292728456153,0.5415283876862037,0.5282230565474513,0.5239963962704965,0.5228608467979187,0.5343890957275983,0.5391563168807554,0.5046856917073961,0.4569291474050393,0.4057104459500609,0.35404129761895575,0.3036817761825483,0.24997710098570536,0.19837326032133018,0.14790928886456722,0.09429760781274632,0.04392220158701898,0.0,0.00720577733402078,0.05683772117304409,0.10640235488822691,0.15929193535799757,0.21319899190760538,0.26711033521949157,0.32102167853137753,0.37493302184326494,0.4288443651551511,0.4827557084670371,0.5366670517789233,0.5905783950908109,0.6444897384026983,0.6983943175220774,0.7510687475487557,0.8007365262716705,0.8541947569221421,0.9081054901632827,0.9618779351652248,0.9999999999999999,0.9688420134333672,0.9156475110030305,0.8658814603961659,0.8135128174023564,0.7630546303350746,0.7121464522048108,0.6629190527259458,0.6141568135582768,0.5681406458040211,0.5319404133169652,0.5090017076474336,0.4897740365455988,0.4562073262819377,0.41278534309252524,0.3694160190142777,0.3275309709036811,0.2936474304133615,0.2970018426725506,0.33530180891254247,0.3798217728469516,0.4227617474390586,HB
0.9986731803886267,0.9781128473470723,0.9560965009469821,0.9347152178887829,0.9169769560194801,0.8954372817197574,0.8734202322177708,0.8514029449371424,0.8293856576565136,0.8073683703758853,0.785351083095256,0.7633337958146275,0.7413165085339989,0.7192992212533703,0.6972819339727413,0.6752646466921127,0.653247850013479,0.6319464963184954,0.614226547979363,0.592588653506488,0.5705714939167893,0.5485542066361607,0.5265369193555319,0.5045435141652898,0.4849699687763144,0.4658285834027448,0.4438610538608375,0.4218808017685026,0.40273653739993176,0.38339070488758653,0.36550004880678877,0.3464683069167973,0.3301943358798727,0.31922967787685264,0.31340964280135863,0.30800108782948754,0.3037648253434174,0.29682694351150896,0.28491236553928934,0.2749576418434203,0.26224606186038146,0.2479658804999212,0.2353310430218002,0.22431668102870372,0.21561563989608934,0.2152893240644822,0.22501242055881088,0.23646868965892287,0.2494330035073664,0.26354326822625995,0.2769859818647049,0.2906016313240548,0.29229403533479925,0.2834772822131568,0.27030677134759584,0.256986501888806,0.2459938626962851,0.23955246336414426,0.24061101360051096,0.2551185006123904,0.26050260566545913,0.25853565219182406,0.26211966334495695,0.2580991978494761,0.25370386685483215,0.255046413798924,0.246860561763397,0.22610610392610253,0.20604399379723792,0.1873779517216203,0.1654407178741173,0.1434234305934886,0.12153614217296382,0.10315906376237383,0.0827570722465989,0.06078806058573094,0.04436475275913343,0.050103859615763136,0.06982890230588146,0.09181690342806892,0.11140392314346859,0.1305175245820115,0.15249683716735274,0.17451412444798153,0.19653141172860988,0.2185486990092388,0.24056598628986747,0.26258327357049593,0.284600448281489,0.3062688494520225,0.32403729495617184,0.34525969015236346,0.3672764263458198,0.3892937136264486,0.41131100090707695,0.43332828818770597,0.45534557546833454,0.4773628627489631,0.49938015002959213,0.5213974373102207,0.5434130148327377,0.5644381653542304,0.5823108047271527,0.6040733028049158,0.6260905900855446,0.6481078773661731,0.6701251646468017,0.6921424519274305,0.7141597392080593,0.7361770264886879,0.7581943137693165,0.7801989267018251,0.8002296887667913,0.818926482037221,0.840870179264012,0.8628874665446401,0.8849047538252691,0.9069220411058979,0.9289393283865267,0.9509565669429844,0.9727524742344279,0.9891386410105595,0.9832773095007955,0.9616796854831452,0.9396624452465435,0.9176451579659147,0.8956338835464731,0.8753829537722068,0.856895165433322,0.8349692924712199,0.8129520051905915,0.7909347179099627,0.7689174306293337,0.7469036446965286,0.7262210365707641,0.7080624628302986,0.6862415281714754,0.6642242778540105,0.6422069905733815,0.6201897032927534,0.5981724160121243,0.5762287187853333,0.5575319255149048,0.5375011634499384,0.5154965505174302,0.49347926323680136,0.47146197595617234,0.44944505830718395,0.4280330331862091,0.4102839344214536,0.3887857539748142,0.366768823180849,0.3447515359002201,0.3227342486195919,0.3007169613389631,0.27869967405833407,0.2566826085566897,0.23513531835950385,0.21736711688010735,0.19865290444777595,0.18084283498934384,0.1633064296891028,0.15049459777083274,0.13931907357059503,0.12788412064091614,0.11770659955895646,0.10641092397582053,0.09481928090010394,0.08534357343735999,0.07045517995980222,0.05980818129912169,0.04638188748096572,0.03579227455748901,0.019568719420065772,0.011411235877518688,0.004438554622321678,0.0,0.004293026703030889,0.016904513498643192,0.02853899287153716,0.04210970255554902,0.05367050705332921,0.0666851812333148,0.073301583123064,0.06665615629592936,0.05781311263693467,0.04876536362543227,0.04851019566247261,0.05781008205547933,0.07357190692087356,0.08958339739275945,0.10287511279551775,0.11492194320170346,0.1277597082264763,0.14660469626251493,0.1642384733965564,0.18106563731165493,0.1965152298435756,0.21269635610623805,0.22795997052074146,0.24694957345393798,0.26352894779416336,0.2750228467264174,0.28638770392151336,0.2826446396165526,0.2618839307407953,0.23986803193805173,0.21800163566799569,0.19974297016845766,0.17920348626349425,0.15719769095472313,0.13712202285613495,0.12916917824037888,0.14082736192346357,0.16258545007117842,0.18456325094057713,0.202814877745783,0.21814736693741654,0.23899807825564257,0.25313948285127463,0.27283569669688557,0.2907525810005215,0.3117589478899099,0.3337746174577383,0.3557919047383672,0.3778091920189959,0.39982647929962434,0.42184376658025335,0.44386105386088215,0.4658783411415105,0.4878956284221393,0.5099129157027681,0.5319287543829326,0.5530451913812079,0.5708939895841337,0.59258884168264,0.6146060684780917,0.6366233557587205,0.6586406430393489,0.6806579303199779,0.7026752176006067,0.724692504881235,0.7467097921618638,0.7687270794424922,0.7907429418642616,0.8118676776331538,0.8297143084569879,0.8514030121429405,0.8734202322178165,0.8954375194984451,0.9174548067790737,0.939472094059702,0.9614893393367362,0.9832995674503181,0.9999999999999999,HB
0.10087703511247881,0.11982542131862939,0.17002014036600777,0.2179197732061029,0.25129842215645937,0.21542768134608536,0.17013105123655237,0.12229911010335615,0.10114801787228567,0.0958279791393668,0.09308791260282145,0.10866505382903746,0.14870759895721974,0.21014277316305519,0.26068264176159284,0.3114191401488924,0.35872969051998416,0.4062697255743628,0.455930448086896,0.4956620177791211,0.5267921339880699,0.5418592321601743,0.5276722488298295,0.506588982735324,0.4925133988582693,0.4791224563011953,0.444702800104682,0.42870733087575896,0.43305135127682925,0.46251797046591614,0.47614140393208837,0.49241401656838857,0.5157697217187995,0.5242003404714843,0.47896138981669667,0.4170648091417535,0.3464744501806951,0.28223491774544396,0.21946732880172393,0.14913104217828232,0.09639770006835713,0.10188527579683004,0.16492438895945494,0.22667982565448952,0.291985692469412,0.36280091450833707,0.43341920079938534,0.4952441166330104,0.5604907426490628,0.6312123806993095,0.6952568519221431,0.7582183410214678,0.8276780391901237,0.8868888327593427,0.9344474121811701,0.9006570028293659,0.8405701653916502,0.7809388710744294,0.7328100656749075,0.6776092505595002,0.6247835126901213,0.5829606791034783,0.5447616752613627,0.5321910394104119,0.5127645576177682,0.4870851409126269,0.4506381073762409,0.4125259216121484,0.36454108819430653,0.3131796381866012,0.2659318228215368,0.22380515354528585,0.20574582035336642,0.21432759591541561,0.24837679595590112,0.2955115083512512,0.34578311570994646,0.39088396025270766,0.43845750691161767,0.48269263674995777,0.5270366204571042,0.5640207900928602,0.5869120687986151,0.587743297710329,0.5616855350882943,0.5421287256614487,0.5279921014849145,0.5137692991333154,0.49501892591226726,0.47573202526681646,0.4893927349555729,0.5138649701199993,0.5205820793720033,0.5314646745798028,0.5153711190142296,0.4653863437265864,0.3955948914531815,0.3247360689864873,0.25387689501489286,0.18388029509012682,0.12419332019829721,0.0613486914577801,0.04896842494575404,0.09794777337802074,0.1680659218708036,0.23496842205634705,0.2953547775289209,0.36572897954857897,0.4365881535201739,0.507232103351551,0.5692135360355475,0.6342824396549887,0.7050743450034904,0.7720870552681935,0.832358556743396,0.8972600364390937,0.9311060931388795,0.884158984138097,0.8273289170133333,0.7667410103025989,0.7068521951453102,0.6561892298675724,0.6030643054235849,0.5519462700747497,0.514000602052902,0.48432346790608927,0.46055676440988247,0.4357001282874866,0.4072849643650325,0.3703465164543456,0.32504593162770234,0.28054748827394693,0.2254894048520244,0.17972761793390468,0.13785773200948093,0.10647739886824326,0.10457243017578666,0.13256416520761638,0.17855712839947557,0.2260666913418845,0.2760855306013621,0.32370342017428166,0.37636156227981976,0.42129266971866564,0.45728401991296375,0.4853362542938169,0.4994958518629886,0.5013315194895771,0.4865920387437219,0.47133733263247235,0.4517624758470977,0.4302414643071577,0.40866170513776234,0.41163814789262343,0.4390968108377509,0.45750427211595435,0.4651857177491676,0.4702740389578053,0.4416943927110215,0.38140622241506517,0.31068135679387066,0.23982218282227574,0.16896300885068172,0.09811123166643032,0.030743172240693895,0.0,0.03481682030254207,0.09344839760102897,0.16339965646253152,0.2337356726218509,0.2941248475320073,0.3610575883180429,0.43190248219114524,0.5013245281445422,0.5606064039308452,0.6295492127945481,0.6997833630240242,0.759713989934542,0.824326286453462,0.8578081122365311,0.8164743417479965,0.7604471282823222,0.7060263971460867,0.6503753409790609,0.5956365649227848,0.5482003504092798,0.5165978513086489,0.49196339018249535,0.48189868999396523,0.4560917417229682,0.4295060215853632,0.3945828949619612,0.3530109260196217,0.3031608040441469,0.2534560545734821,0.22000720320025913,0.19867070037236267,0.20987860384469004,0.2459593811387779,0.2913564069632022,0.3380784646491928,0.38702768445232527,0.43427559435939456,0.4808103589247721,0.5196050880753242,0.5543612822478208,0.5637991983426018,0.5721655546494122,0.5586114768729002,0.5410553738940629,0.5265624220392113,0.5081661236911414,0.4823779241633299,0.47472958670357945,0.4961293254543895,0.5266826473724455,0.5344900523962179,0.5512741533772121,0.5519513785851338,0.5037299138266085,0.4369613373861325,0.3775087015887726,0.3077528711004094,0.23699602589761382,0.1737576407914765,0.11110663619198924,0.07785511299562531,0.11926281864058419,0.18887442736133764,0.2597098259345856,0.32622659084306704,0.3868974846991877,0.4573774153054164,0.528233069639064,0.5969688389477645,0.6562113115597938,0.7258816479225834,0.7963623935630006,0.8574617316439093,0.9235089426498715,0.9877134552219875,1.0,0.9453836776117726,0.8855837300534333,0.8264751313392238,0.7692255822269964,0.712615246771398,0.6560144226360975,0.6032209448355212,0.5585769202717827,0.5252348572664798,0.4989994282151944,0.4785659507052298,0.4457790664674208,0.4126412648636495,HB
0.045934203354914604,0.11359226717891513,0.18544305238419034,0.24875318205481367,0.32125672088759183,0.3857744489180346,0.42283404909643063,0.47383416709111126,0.5246850281496807,0.5751299057891734,0.6026433414856225,0.6323856078821479,0.5996477126948188,0.5845721794652112,0.6476617929506019,0.7157924549169974,0.781818047706015,0.8554594069325936,0.9292803013123634,0.9948611787525845,0.976245503630619,0.9196199796047257,0.8732770543478456,0.8539717411754375,0.8404894790865041,0.8109235024934591,0.7740232374533407,0.7334383738152543,0.688429776723638,0.6422237780453113,0.6006293793343609,0.5845485905141596,0.5985556176896805,0.6376308380935556,0.6843791288631969,0.7327408456060955,0.771545331583865,0.7978741172874879,0.8033967469535344,0.8033784736162044,0.7967080736132512,0.7709591530701414,0.7448685819810343,0.7260075026105679,0.7417470703955558,0.768519715105326,0.8046150248505621,0.8322341974123715,0.8232627895704878,0.7562909518645018,0.6876231159402235,0.6220778276050374,0.5511722756760684,0.4875531416294159,0.41500566857386567,0.35041427336087927,0.2806136739051215,0.20800965293342455,0.14469169551143812,0.07403185988885896,0.02810874284058107,0.05109608281710809,0.11352162169583702,0.18660044435382628,0.2515932088497088,0.3208970202657133,0.3946963434724313,0.46852829298200405,0.5423602424915765,0.6161919124744539,0.6893591359560829,0.7533286759816873,0.8239675809890898,0.8977864025618634,0.9690712740186753,0.9756093781031949,0.9268714702407217,0.8929315715906752,0.87453958164209,0.8591980559430024,0.8323782159662314,0.7958247537478127,0.7523854146993592,0.7051410475496787,0.6565650784621262,0.6271636164287653,0.626808308067857,0.654462176102478,0.7043500201453305,0.7553801872139272,0.7946830468812944,0.8245218054605457,0.8435851649889794,0.8548254546247462,0.8472487917035583,0.8334861685919974,0.7967345850500762,0.7555161423278762,0.7225294903536432,0.7108968684229189,0.7207523563075449,0.754771870486334,0.7914847773537934,0.8196583247228757,0.8031223605717774,0.7481281789437086,0.6811982739234055,0.6096954269175909,0.5462734146652863,0.4753888054185147,0.41206448584697286,0.3396680069592313,0.27180258995859363,0.2054944795922209,0.1321097489121874,0.0672138639997737,0.01837258751586246,0.033521736955716364,0.0974131496454409,0.1612471033995504,0.2344312001027653,0.30826287960456633,0.38209482911413906,0.45592677862371156,0.5297587281332841,0.6035906776428566,0.6774226271524291,0.751254576662002,0.8250832932930914,0.8969633739218308,0.9360717154984499,0.9026244487475852,0.8635524242287347,0.8378703710523894,0.8205217244265359,0.7960693702505459,0.7627665418403891,0.7190505847115722,0.6705329362346264,0.6158014966597372,0.5755922532569469,0.5467356653099009,0.5468081684568094,0.5843205720335569,0.6326068688238555,0.6791280349624738,0.7223040985754108,0.7535333895056349,0.7657994707340263,0.775451897187541,0.7757913920413309,0.764930355298068,0.7396786469828109,0.719606949514167,0.721080398844482,0.7444325044049349,0.774476414972757,0.8095653047986566,0.8197752862446666,0.7757080670637153,0.7063929188266167,0.642991938442194,0.5711013118999784,0.5073791409791033,0.43697854980521367,0.37301010005153556,0.3024348141747335,0.23021850868897897,0.16695972369220202,0.09525740700906082,0.038240050436632256,0.04595345560679842,0.10571674567076217,0.1783182557123073,0.24263658173456748,0.3128012849719619,0.38661844965303427,0.46045039916260677,0.5342820320154189,0.6074290898942829,0.6713435126559393,0.7420572916270278,0.8158777272174422,0.8897096679767622,0.9630391463913579,1.0,0.9505982779634272,0.902320413250822,0.8670875950991808,0.8575132223003767,0.8439985535016055,0.8142937869598881,0.7727183617159672,0.720387087899276,0.6718134481249978,0.632841630710081,0.604735946301358,0.6036976884927663,0.6359500436794847,0.679676196356255,0.7262343493245949,0.7660367403711663,0.7997249000246271,0.8161553310582046,0.8165367919654347,0.8064776121362307,0.7949973521075124,0.7690622000880554,0.7386839560856471,0.7234477710377871,0.7391137112055524,0.7676247782583592,0.8103167815911969,0.8469592375446946,0.8376248340807324,0.7785214372755811,0.7153657032508756,0.6435981453294848,0.5795593236868646,0.5092303059929018,0.4428917839530484,0.37506642213939645,0.30150274287187373,0.23542665249131667,0.16731379628478593,0.09355560437960597,0.02301744249603921,0.0,0.051159159746911875,0.11563352602743482,0.18518255947586204,0.258987727306085,0.33281967681565905,0.4065456553509006,0.47367556590869464,0.5407026678453386,0.6144150553609209,0.6882470048704925,0.7620789543800663,0.8359109038896375,0.909716426117702,0.9742699799187111,0.9541344129906966,0.9068428320974742,0.8715613401874474,0.8564471400816474,0.8395013087925505,0.8057930583576196,0.7633502796109068,0.7189939142432014,0.6732919325022841,0.6270316972788228,0.5938134554294168,0.5763255051370679,0.5929650261960844,HB
0.32358817787996386,0.334872751362165,0.3193745414968696,0.28541621823123764,0.24494789193486177,0.19536270339615447,0.1438339121278691,0.10703614720773613,0.11083843327917653,0.1513524529861956,0.19889453135720303,0.24852288341820783,0.2895622597611438,0.3243848751758447,0.3541020720433743,0.3917771215700949,0.44023458718481145,0.49231383901995174,0.5484485905950063,0.6062997605129958,0.6659183436582878,0.7234858049913735,0.7837411305165385,0.8407725054251429,0.9018485124153495,0.9587772457373527,1.0,0.9736133119935695,0.9121624798808075,0.8485074179044716,0.7848483893929448,0.7211893608814175,0.6575306956872173,0.5943851560332039,0.537247228121372,0.4758123157108085,0.4121649506312872,0.3485133830022389,0.28675627105650503,0.22982481106500452,0.16691367805052426,0.12052653264945556,0.15303227742805858,0.20856723739248362,0.2632015788807964,0.3142711818696773,0.35230773734632037,0.36261770650783975,0.3564652177590568,0.34670862268203684,0.3399039309248584,0.3674202950148955,0.38681627290047094,0.40159238986861556,0.4088865954431866,0.38574980348799426,0.35114806587936953,0.3060677569283863,0.2583979242686272,0.21222192009717888,0.1674985329910721,0.13980977857849686,0.1684185085199752,0.21351167625845902,0.25895963048472703,0.2988701610761997,0.33996965235477883,0.3695487430706934,0.40082936555217286,0.44069397461548965,0.4891230187761515,0.5476275321567587,0.6111534606479863,0.6719900075011909,0.7295013392388714,0.7891928957687209,0.8473667018178785,0.9063202173226346,0.9615378203677247,0.9769238251866499,0.9299759900360756,0.8720881237213582,0.8120014960590525,0.7483835089834268,0.6847244804719002,0.6210707934354349,0.5589966903432404,0.5022015110261386,0.43935810441945033,0.375700070221769,0.31204309429620825,0.24949047251347212,0.1931195050433674,0.15760245601179235,0.19973157512929274,0.2583962588308226,0.32084996643523134,0.3746290296530159,0.4180247082514559,0.4286376593178238,0.41467481433679154,0.4110607274461342,0.38873652233351996,0.3893029871410467,0.3867251902739055,0.38100094653974836,0.38557209030384154,0.3660095493372375,0.3255482348606129,0.2788870655768825,0.23009532172433023,0.18276560685992482,0.1402642004823733,0.1193749727965161,0.15481464414000023,0.19916433608695638,0.24109946955103823,0.27974005266667956,0.3112249121305024,0.340642559417071,0.3745478805192819,0.42278186799948014,0.47754791890753845,0.5356499594325006,0.593353459101623,0.6515775893325064,0.7110767326197645,0.7687418195996767,0.8288807789463886,0.8795304492007716,0.8722251709560811,0.8168032454999721,0.7533404367014045,0.6918921047212481,0.6347864813241288,0.5716212487290249,0.5079699133014384,0.44686992768731315,0.3968704884611589,0.33574557127064164,0.2776787084885881,0.21744209698810213,0.15382054366217335,0.09017597390829124,0.033476218310974915,0.045084808739194626,0.10256134080787227,0.1619967171504031,0.2195947993114271,0.27587666983837034,0.3319434609249501,0.3790903917067101,0.3894033866988813,0.36884483014909186,0.36216563687833125,0.3440684387127202,0.3365262460039715,0.33343869761430533,0.3355859841637596,0.36421165515962883,0.3885823964196089,0.36985730066604394,0.3312293080009232,0.2854801588926066,0.2341878265893802,0.18661462094625647,0.14232796395112857,0.12071470648117177,0.154684069280826,0.20054977743435565,0.2494487186453409,0.2910668054284742,0.32899554576320056,0.3591256247222676,0.38938335314389727,0.429005100212422,0.4799726851721755,0.5342856903509572,0.5915638910375725,0.6499643024283306,0.7094128406530869,0.7683411613077897,0.8273859713284262,0.8839908913871484,0.9046975367550885,0.8559835292987148,0.797922265261322,0.7378356375990147,0.6742176505233906,0.6105586220118628,0.5468995935003369,0.48324059231831495,0.41979412252299286,0.3616565730323782,0.3014949534509832,0.2378751832502044,0.17421615473867869,0.11055712622715097,0.04700596612731123,0.0,0.030782919888411753,0.09009387378875933,0.14880691613601948,0.20824509955326942,0.26839631274907494,0.32416458834180784,0.375874471670937,0.41463471517182904,0.42080030868407925,0.40727478120038074,0.40876022163050907,0.39050309400991057,0.3909809075724331,0.40199819921720015,0.39068374245147086,0.38055616249370217,0.3750277885488533,0.348934659496555,0.3085655230963289,0.26112074990984735,0.20984367074173815,0.16407921151074079,0.12930714375852714,0.14430734917254084,0.18845850255953867,0.23702087547500028,0.28282460564338896,0.31978517005413454,0.34945503077853335,0.3811910553532367,0.4219966026001305,0.46974198421697966,0.5227068089443334,0.5789422385522165,0.6357190045380701,0.6969098616520029,0.7551689160023558,0.8148453532847304,0.8707095445539381,0.8977191680731553,0.8582795191043822,0.7953547950732922,0.731696190829912,0.6680371623183843,0.6043781338068586,0.5407306271950092,0.47921414845166965,0.4221598808268934,0.3590123911385197,0.29535544680878045,0.23282049376201086,0.18688458694163246,0.20480581002710707,0.26166001137347017,0.31630505291078226,HB
0.14288709169186764,0.1156891879362385,0.08269342398173796,0.05049077980356287,0.020279947780363572,0.0,0.010211775964702574,0.03987806106628944,0.07409427119732115,0.10740964164373001,0.14222372045866838,0.17628492926672656,0.20961704469880915,0.24238040461691357,0.26936874068630545,0.28272114226020106,0.28599038556763967,0.29922371706341455,0.32302697178726225,0.33511878627924496,0.34364359443421066,0.3556677923165279,0.3423272824188851,0.30812718558776875,0.2883429475181193,0.31279527566038245,0.35414509706115116,0.39636294556235463,0.4379169541313048,0.47620017935898207,0.5177233749537202,0.5597324785265287,0.5984706469506278,0.6390925001268213,0.681299822368586,0.72351782757068,0.7648536425502384,0.803163453129099,0.8448788050838987,0.887081026501368,0.9275692845822552,0.9663711554484322,0.9999999999999998,0.9841822643594016,0.94347538887174,0.9026809321265652,0.8640679691212918,0.822217991741216,0.7829678800389286,0.7430390891112919,0.703781441348277,0.6641293154973271,0.6260102773058542,0.5931988290165064,0.5605776218438532,0.5242953589910146,0.4850197573857358,0.4472314300817881,0.4106097768594079,0.37596120697817526,0.3462189727044592,0.3247069847980538,0.3059936281711718,0.28321336677627396,0.25417931990778386,0.22350239211810818,0.19168351288548546,0.15782998728422792,0.13169631228524914,0.13109614037189277,0.1568018066333826,0.19215344580125815,0.22626880883945844,0.2600444067022788,0.29335664619887225,0.3250002750574569,0.35261033987686985,0.35983669363325643,0.3421988354024176,0.3276351868524384,0.33589288294748654,0.33309441686055996,0.31798771805036463,0.3072922517099138,0.2917736683219997,0.2609278796966733,0.22531467322835885,0.20995729689592257,0.2376893086437365,0.27623631218286393,0.3174913004054494,0.3557876789894079,0.3974064202044598,0.43959369295917194,0.4797162212854591,0.5188795070171379,0.5609832320087809,0.6031762648370957,0.64339595715673,0.6824702134466305,0.7245599469623567,0.7661636043720066,0.8044407802383362,0.8459125071236384,0.8841710357639005,0.8766753170502284,0.8389865410716455,0.7986792880401878,0.7567305037809322,0.7180967072973705,0.6773350413066024,0.6355347856578006,0.5971435103948224,0.5566536549076704,0.5210432209503142,0.4894562865772374,0.45364408296771375,0.41619816637074125,0.3802957346965571,0.3448522700951251,0.30794707879985894,0.2713455747469964,0.23671152576220533,0.2112905159667786,0.19452431811511317,0.171691890988663,0.1444105642524558,0.11508105757268328,0.08367074186806345,0.05568269376097512,0.03387148555476471,0.04094711541034679,0.06942560139744114,0.10215457022604135,0.1353340270821186,0.16924145890432596,0.20487175715784733,0.23511119428402127,0.25776003536764847,0.25395811866740503,0.23351933199627728,0.22867418443728793,0.24531389261347603,0.24687700966280768,0.24352695184884798,0.24180457034635627,0.21598250229942062,0.1799021607721497,0.16944388762193585,0.20149983006419658,0.24093194338605461,0.28274489370608824,0.3212003402167113,0.3622240575903689,0.4044356783143631,0.44581591594086367,0.48412031393325594,0.525796561541015,0.5680099911486072,0.6090524567482856,0.6475087428607582,0.689373843764775,0.7313309187043273,0.7699492668889054,0.8107412916865926,0.8526953836826692,0.8865899301089399,0.8756300156887102,0.8425297619561256,0.8070317599567807,0.7653667146852887,0.7234379861304057,0.684905148905204,0.6440027724824637,0.6022557474092209,0.563935517966133,0.5237746138161965,0.4864621121525421,0.4484389446946786,0.4077335785442605,0.3723560340135573,0.3373651315194832,0.3007670176792806,0.2664145523259147,0.2391757666873866,0.22166753759737534,0.2067599630142425,0.18316793176865287,0.15340287165136068,0.12133405662561114,0.0930745427906099,0.07927471953344445,0.0951186982590736,0.1274162504104508,0.16066877460148654,0.1889563094772979,0.22158126695692548,0.25438835145570404,0.28658615697638734,0.3148460077717691,0.3304447504236031,0.3239279606513451,0.32401625714197224,0.34429367797856336,0.35285213614121724,0.35449033659306817,0.35506360308529583,0.33073113792266084,0.2971841769985165,0.28534149766063654,0.3153460200284114,0.35189655426075117,0.38616405834563683,0.4238214534209066,0.4649952941046229,0.5065667890791039,0.5448473080135463,0.5863510364431839,0.6285702191176517,0.6705978897348595,0.7093746218137122,0.7499425994290438,0.7921484001699162,0.8343694935355515,0.8765905869011863,0.9188107891611283,0.9604718911917467,0.9899086251899538,0.9692743892007716,0.9294512268336008,0.8903949282299284,0.848421031909953,0.8092031324500835,0.7691626289331677,0.7288352582214475,0.689928751172233,0.6502334485186143,0.6116955839190354,0.5747491949920276,0.5385217826361339,0.5012256843956218,0.46466002189269573,0.42841471060362823,0.3909789840584992,0.35323271602267037,0.3217043312841623,0.2996760447828839,0.2797200876659679,0.2553774336425664,0.2279231817072922,0.19636581728409674,0.16538510723624578,0.1362970845936482,0.10956896023814855,0.08844927419743387,HB
0.22369389078512691,0.25104175637971515,0.3064868453937848,0.3521961260426836,0.37219441472422643,0.3640842648509337,0.4139033059542978,0.47022574305140363,0.5242747399733307,0.5757447099424144,0.6126974751058256,0.6135176325184073,0.593517632884649,0.5920515597366385,0.613365314314736,0.6456853222715737,0.6750553589768331,0.7189461870915181,0.7521493164842301,0.7360950564885429,0.674244177663347,0.606445067130537,0.5316635353138923,0.4614952663714047,0.384194683229111,0.31495397228830635,0.24827719266296544,0.24373815426663503,0.30951715042901995,0.3819214282289787,0.4626491449144976,0.5398680699325551,0.6098320089282137,0.6901152062740921,0.7676580966493223,0.8374260768563149,0.9175877376910608,0.9944470167089627,0.9976063952999001,0.9317207351188048,0.8670856632108794,0.8090763583498006,0.7700539425653088,0.7300681781924516,0.693884047013348,0.665703170116287,0.6309011850800181,0.5834612821750578,0.5291152974766891,0.4769342191493764,0.42977294163880364,0.38601652005618936,0.3467940353108636,0.3351019519057199,0.3743157034865785,0.42806245666395526,0.4819948252165771,0.5314727002996977,0.5640427584616958,0.5790079990149315,0.5715251431029009,0.5537857565781206,0.5539740273066758,0.5872196364856448,0.6143957613014921,0.6587497579936583,0.7109636996914546,0.7350727277420241,0.7126545559408273,0.6524376999892487,0.5828858926253706,0.5056779238794586,0.43607546168145417,0.3570999443801095,0.28770689825134355,0.21560508033400705,0.20654861135327884,0.26576824577137437,0.3455931274796482,0.4240643069170722,0.4933451977428409,0.5730607554240379,0.6539642169941478,0.730083996922839,0.800949266050325,0.8814535403678732,0.9617039576610966,1.0,0.9385458125058861,0.8708562957934554,0.8111007207272323,0.7625524293756474,0.7203801505167395,0.6898087325892872,0.6767256773471511,0.6387717701905289,0.5926049641511661,0.5394815342853798,0.48717272091958597,0.4412240982957685,0.39521330019326495,0.35368137870373184,0.3523457887812742,0.3917699586860146,0.44901961330888795,0.5039330357611091,0.5595796807586351,0.6059664394022497,0.6118483010277234,0.6177946764957647,0.6014760686784721,0.5914522120477659,0.6095818528621018,0.6464115239758765,0.6804953272791363,0.7263710827429493,0.7581438991156664,0.7500498753068929,0.6881220943552329,0.6188003348413611,0.541214352212029,0.47445757977779435,0.417323718586164,0.3441143222399434,0.2748911235057223,0.19695703021555833,0.13767398088742677,0.1317650972574489,0.1919644693676692,0.26969312250986777,0.33889252245245016,0.41853328154160785,0.4991322242238616,0.5703738313903295,0.6460343983879113,0.7269259479748467,0.8078574339619928,0.8882562970012753,0.9570321038799356,0.9714567129002374,0.8998155249236404,0.8389259684806674,0.7957446779107018,0.755299549519389,0.7244162895871171,0.69616498604517,0.6631479952514825,0.615678615024609,0.5642832208278215,0.5139981596801881,0.4603859520787239,0.413203711839365,0.3643471562937384,0.33300295823000914,0.3447931710312031,0.39849994012316836,0.46265109546051963,0.5162558749898434,0.5579348029409381,0.5869130550741692,0.5894718488321606,0.5733298175044288,0.5559857568888247,0.5571288927019991,0.5944955542067691,0.6179440847973505,0.6593723015104969,0.6977439966354364,0.6985496106156983,0.6377348423197615,0.5690547604196725,0.4974274606096478,0.4238963975622574,0.34342775689161265,0.2722022538739366,0.19650297281301032,0.11640373983459762,0.04724408473136954,0.0,0.0414571273618507,0.11151294658214717,0.18737792538243525,0.2679615989690669,0.33937352892743133,0.4148480055445276,0.4957358304559554,0.5766674034547687,0.6574380244670306,0.7303659411099122,0.8042289643470086,0.8850498788307353,0.9573626925714889,0.9363625385451759,0.8691551721046613,0.8036948576720868,0.7533337089358243,0.713557668760791,0.6792798120860088,0.6449076218594141,0.6135250429121588,0.5746591624342656,0.5229144014863478,0.4610936314943075,0.40840954209549274,0.3658986310154799,0.32688179885324065,0.30291333723881975,0.3195212104360192,0.372615806923005,0.43319466303322907,0.49137297274445135,0.5467397569182086,0.5876859544785962,0.6047407260500459,0.5975800651629872,0.5845372384783136,0.5840911957686568,0.6129934015723992,0.6428611140600462,0.6850172635413685,0.7311880538879523,0.7529475046783363,0.7192851936481088,0.6526190990413423,0.5837605999797639,0.5073344377688023,0.4378642594501523,0.35797920679561424,0.2843963583108007,0.2111982656229885,0.13082013861730468,0.07693551320263747,0.10627603587652246,0.17940510720975622,0.2589482834684702,0.328214305267009,0.4068114588709313,0.4872603753499183,0.5505304607951005,0.6053495483469606,0.6845363055510774,0.7638751930234302,0.8236013010161072,0.8945790175304356,0.9364134701494526,0.8892859366528292,0.8289650840253642,0.7802125324219742,0.7409395904153846,0.7066399548544724,0.6741247810187647,0.639735797299791,0.5889883993908596,0.5374754874883658,0.4895367772907817,HB
0.9999999999999524,0.9894950215600676,0.979579153616989,0.9713771071469878,0.9603458156766563,0.9492418222082432,0.9381378287398298,0.9270338352714166,0.9159298418030034,0.9048258483345905,0.8937218548661771,0.8826178613977641,0.8715138679293511,0.8604098744609375,0.8493058809925244,0.8382794443367044,0.8303653982475289,0.8201573885425956,0.8090539046695272,0.7979499112011138,0.7868459177327006,0.7757419242642875,0.7646379307958743,0.7535339373274611,0.7424299438590478,0.7313259503906345,0.7202219569222215,0.7091179634538082,0.6980139699853951,0.6869099765169819,0.6758059830485686,0.6647019895801555,0.6535979961117424,0.6424940026433292,0.631390009174916,0.6202860157065028,0.6091820222380897,0.5980780287696764,0.5871997197076878,0.5795291933380607,0.5689297401578854,0.557826052446679,0.5467220589782661,0.5356180655098528,0.5245144797177154,0.5141681847508247,0.5063028525009178,0.4953660891868553,0.4843396525310354,0.47642560644186016,0.4662180044132024,0.4558722190416563,0.4480081098205769,0.4382594720318489,0.43013498237444114,0.422786756604286,0.4171950922575287,0.41245693354951785,0.4114545256916732,0.4066300660547848,0.40003299556603644,0.3989625330397105,0.39434628960060414,0.3887407013184494,0.3832157551558901,0.37769080899333096,0.37216022954704575,0.3680416467239013,0.36084698550700145,0.3534688779496602,0.3473298806832149,0.3383404894294385,0.3325809374469746,0.32700178822205306,0.32140568038383355,0.3142234984022513,0.3069240883904334,0.3008118866323294,0.2971422573481607,0.2953684315542592,0.2954282107542303,0.2985923237395389,0.3042543128878341,0.31175338401190467,0.31920701000046103,0.32656890137171246,0.33393089466203296,0.3415025640333761,0.350023798151603,0.3593442075801936,0.37044565307188293,0.380653662776817,0.3885629596173237,0.39830600484960943,0.4064144237958387,0.41415954153704715,0.4215825893198353,0.4289734387313191,0.4345446743756698,0.44015026265782564,0.4447662003397268,0.4450332265779666,0.44076450416506574,0.4338313552790851,0.43276742792777323,0.432007181449528,0.42698493619120037,0.42446548226082625,0.4259897394855665,0.4332916417191537,0.44025965811962686,0.44109491343374385,0.44060220278908213,0.43600383523489417,0.43310188823648266,0.43643942826725657,0.4369360728080385,0.4382194642315739,0.4410002960887903,0.43797631161650896,0.4308154298206178,0.42302290148786104,0.4120861381737987,0.4009821447053854,0.3899256637475903,0.38165001464701054,0.371829412602132,0.36073016838238825,0.3496309241626441,0.3398878789303583,0.33480217720901617,0.32464208769097624,0.3142963023194304,0.3064309700695236,0.2954942067554611,0.28439021328704783,0.2732862198186349,0.2621822263502215,0.2510782328818082,0.23997423941339519,0.2288702459449819,0.21776625247656867,0.20666225900815555,0.19555826553974237,0.1844542720713293,0.17335027860291607,0.1622462851345028,0.15114229166608978,0.14003829819767644,0.12893430472926332,0.1178303112608502,0.10672631779243691,0.09562232432402362,0.08451833085561067,0.07341433738719738,0.06231034391878404,0.051206350450371085,0.0401023569819578,0.028998363513544567,0.017971926857724863,0.010059103797376567,0.0012828818281891696,0.0,0.006839112116164614,0.017821668047051265,0.02602371451705293,0.035939582460131736,0.04704235289971759,0.0581463463681306,0.06925033983654394,0.08035433330495717,0.09145832677337018,0.10256232024178341,0.11366631371019675,0.12477030717860976,0.13587430064702305,0.1469782941154364,0.15806098739815821,0.1668079059228098,0.17612831535140006,0.18723027043843432,0.19833426390684766,0.20943825737526067,0.2205422508436739,0.23164624431208714,0.24275023778050014,0.25385423124891354,0.2649582247173268,0.27606221818573984,0.287166211654153,0.2982702051225663,0.30937419859097925,0.32047819205939265,0.3315821855278057,0.34268617899621934,0.3537901724646322,0.36489416593304536,0.37599815940145875,0.3871021528698718,0.3982058405810781,0.40880529376125385,0.41647582013088125,0.42735412919286975,0.43845812266128337,0.44956211612969643,0.4606661095981093,0.4717701030665229,0.48287409653493585,0.4939780900033489,0.5050820834717626,0.5161860769401754,0.5272900704085884,0.5383940638770021,0.549498057345415,0.560602050813828,0.5717060442822415,0.5828100377506545,0.5939140312190676,0.6050180246874811,0.6161220181558941,0.6272260116243071,0.6383300050927206,0.6494339985611336,0.6605379920295467,0.6716419854979603,0.6827459789663732,0.6938499724347862,0.7049539659031994,0.7160579593716127,0.727161647082819,0.7377611002629947,0.7454316266326224,0.7563099356946109,0.7674139291630239,0.7785179226314375,0.7896219160998504,0.8007259095682636,0.8118299030366772,0.82293389650509,0.8340378899735031,0.8451418834419168,0.8562458769103295,0.8673498703787429,0.8784538638471561,0.889557857315569,0.9006618507839822,0.9117658442523958,0.9228698377208088,0.9339738311892217,0.9450778246576351,0.9561818181260483,0.9672858115944613,0.9783898050628749,0.9894937985312878,1.0,HB
0.7543311054383856,0.7979842897755748,0.8454444869939041,0.8923354790764092,0.9353260734174184,0.9810632456838612,0.9999999999999999,0.9635842287845638,0.9195726095267355,0.872226278503088,0.8257833854551647,0.782792614905986,0.7359016228234813,0.6884339564201779,0.6409654532738,0.5937020483677461,0.5501158956553577,0.5065081418853586,0.46349821294922544,0.4208955247150471,0.37897961258033985,0.33871030185312867,0.3024605489188157,0.27459600542361573,0.2601030398353261,0.23606772316235514,0.21174483823569434,0.20982982293849917,0.2306265014307931,0.21696271421062086,0.1870484834838677,0.15749755186673564,0.1268258201187984,0.09513556765768638,0.061644109584711115,0.026688820200435615,0.0,0.0038446441103964224,0.03265043289847336,0.07451136205610753,0.10821283031418416,0.1440291905524954,0.18435026224162954,0.2234307634598639,0.2602990204690506,0.29102831247142735,0.3118794000373867,0.321827392699224,0.3224092507855244,0.3236440198072593,0.3192919167567313,0.3165373572438718,0.32478909188102867,0.32382310910604206,0.3256426452844602,0.2973861269378173,0.25476268054733464,0.2119012849018974,0.16584033110798668,0.12305679633711764,0.08717409479754701,0.10030280757415577,0.14205726700512433,0.1870115821508388,0.2344396415805292,0.2818957399876869,0.32773188983391,0.37104741940530894,0.41822842606162147,0.4656967992736697,0.5131637101671823,0.5599258678496412,0.6028628080795894,0.6494878015830877,0.6969539569668096,0.7444225314406648,0.79189110591452,0.8393596803883746,0.886787739818066,0.9317313525838243,0.9710068524729086,0.9638320565149489,0.918503264551798,0.8734209960186302,0.8294842900153149,0.7821549643801263,0.7352638784207571,0.69228827471835,0.6458419077240275,0.600016295919226,0.556787422416512,0.5129493955148808,0.47090625143473896,0.43459521121227407,0.39708751182638513,0.3555007480774931,0.3164641128068594,0.2824271420179103,0.25969453517475793,0.24247577703088008,0.21925035264870052,0.193008539916944,0.16572041863304876,0.13570361333598846,0.10275387185632723,0.07020617220805359,0.03706924205127371,0.008584261646380154,0.005154331946276236,0.03341374163930144,0.07000521000800353,0.10938069532164041,0.14893454230039682,0.1880956973677973,0.22592670830632577,0.2624319383598136,0.29069511153351246,0.30698024102192945,0.3143996424138572,0.3155741150929895,0.31666743976967504,0.31024062863314505,0.31542234574220795,0.31286639171831754,0.32113576144543565,0.30603627852271764,0.267902460263426,0.2245776379349088,0.18034932611950227,0.1358407615907966,0.09165402874124118,0.06858863013271099,0.09788621639909179,0.14437270817800985,0.19131419502781033,0.23434362904944794,0.2806954897014531,0.32815964759306737,0.3756214756910944,0.4217782286870505,0.4649017318075891,0.5119486792221953,0.5594168052862073,0.6068846044741577,0.653828510414091,0.696857944435728,0.743209805087735,0.790673718832034,0.837809999577272,0.8810602160979192,0.9264992542608669,0.9616593155536267,0.943476942345172,0.9010145172242662,0.853965251921713,0.806874127809812,0.7636939553488747,0.7176377719863279,0.670437072076531,0.6270255953331808,0.5814142057585824,0.5372690862066937,0.49431002484665,0.4508613529941271,0.40433590362021576,0.36203226107242503,0.3214323712549422,0.28436826685853434,0.2577140562307645,0.24256183175208168,0.22799872880185523,0.2080490816287589,0.17993477758768273,0.1513291168751214,0.1211494246421545,0.08952537201712818,0.055479018349698594,0.02906134458817744,0.03653292584593526,0.06687726197603805,0.10428604635833028,0.14339321910545044,0.18718693919450125,0.22795413931662623,0.26627854878844426,0.30231303888863703,0.3320484311188293,0.3521935314724566,0.35892128398777057,0.3594755285043242,0.36199120319652744,0.3546527887084808,0.3603517991986219,0.3621529571239356,0.3644494597379816,0.3556200859966746,0.32016517533549427,0.27338730743734574,0.22605434739099706,0.18212620928920242,0.13866287737165295,0.11638611067627092,0.14319601915374647,0.1870594274787134,0.23440435791527514,0.2794935273286673,0.32342122269553475,0.3692337838210268,0.40775097748931854,0.4535310029349192,0.5007289385547687,0.5441431762564294,0.5898587808942931,0.6373139531407915,0.6847825276146476,0.73224943850816,0.7790115961906182,0.8219485364205664,0.8685667835482379,0.9147210996221921,0.9576739790955976,0.9932843735399174,0.9727785877506018,0.9295857332973033,0.8843639167053235,0.8369253945180269,0.7894568200441724,0.7419883644494448,0.6947799307811205,0.6513685253652476,0.605858678051035,0.5624478381334991,0.520776683704507,0.477826229928232,0.4346263456004863,0.3924744605842362,0.35303487698710223,0.3201746785344054,0.2948551627695576,0.27837137646601817,0.25770680940420854,0.2306752577601543,0.20158001348694332,0.17137471450373065,0.14047600915766267,0.10666746165547514,0.06976824878906185,0.03715382071746254,0.012335117067151291,0.020054733411465353,0.0523100367341367,0.09158921780599927,0.1314718960589839,0.17124449676275233,0.20814279374452516,HB
0.4839820599651774,0.5331665379472283,0.5875947456139166,0.6442467502397022,0.7051503027846657,0.7685055659500111,0.8278094689572768,0.8894452056925579,0.9474070817423814,0.9769793765289716,0.9373487738845425,0.8754744482421226,0.8116961018510294,0.7482802558166672,0.6889636645086288,0.626890801745466,0.5631148482785435,0.4993245337985075,0.43553421931847125,0.37174390483843567,0.3080794731094565,0.2478270853784008,0.18689242387757643,0.12316295848479974,0.05977514073563883,0.023407847300310536,0.06623164077378207,0.12576928921155972,0.18158791666025986,0.2331521153167344,0.28512238457374717,0.29310459109847975,0.2688601749854038,0.2466955135834188,0.24696266295143654,0.23174132334929398,0.1969668170465515,0.14743583794290882,0.09726734700074047,0.05003234558647485,0.017314128085999303,0.03801176756718616,0.08887596745021342,0.14606752631673836,0.20318193507264604,0.25722050144678055,0.3088728486631158,0.35662997789733275,0.39581695893433366,0.4280833045509731,0.4637014036111089,0.5114049598740538,0.5644546171274558,0.6210774798253684,0.6832879742960651,0.7434272881170376,0.8040165538735311,0.863147140191393,0.924884218817019,0.9815630129985748,1.0,0.9525609453349753,0.892469575522387,0.8288046047050679,0.7650206599309832,0.7024796577423591,0.6434217689661839,0.5802226125676655,0.516433343871396,0.45264302939136014,0.38885271491132456,0.3251112873043982,0.2639810586857938,0.2039129494527554,0.14027229409161723,0.07814388819993434,0.0612649251973334,0.11280459849639513,0.17451136174867488,0.23756153774722577,0.2911683327533314,0.30840277166879226,0.2872534520388941,0.2621926380715811,0.25959984358885313,0.2488853835577507,0.21894967351738504,0.17169988041414797,0.12185121795776588,0.0708786440954493,0.021701916066275806,0.007505033858845489,0.053575798581052325,0.10952649855488428,0.16447315347163372,0.21910290957786094,0.27247954878400704,0.32362429474872756,0.370005795904206,0.4079278690356334,0.4395722648144098,0.4779043651867476,0.5296881871441468,0.5878737378553498,0.6448399981571538,0.7034201081589813,0.7630521746597319,0.8229552697720979,0.8839469631438781,0.9442497068656828,0.9960450392516984,0.9892088774917043,0.9337539047893755,0.8702246127168132,0.807324018197318,0.748349037585111,0.6854285860226781,0.6216409135053054,0.5578505990252693,0.4940602845452329,0.4302725006067776,0.36732576057937427,0.30835536848037925,0.2454762703738893,0.18168902371156093,0.11790841843174804,0.0592672540165613,0.065577233005919,0.1263239752911528,0.18626340151561682,0.2453167831829941,0.29608617372915935,0.30567821989424115,0.2831345190283643,0.2570781904740371,0.24763760938818602,0.23446576200473945,0.2011663071277927,0.15634515809449656,0.10678725344987294,0.05611883081807423,0.009948397751397442,0.018396812263001716,0.06877754248781676,0.12309151325235645,0.17759873491186873,0.23225817575079066,0.28077586479936656,0.32238582962024576,0.36707805414288575,0.39945016721544646,0.42984751844453695,0.477820385070554,0.5321399720191036,0.5878127180502284,0.645000712514626,0.7035009584687597,0.7649236690968013,0.8238556842702245,0.8838882010647955,0.9378919531066803,0.9427121532859744,0.8895747195378205,0.8260949465605854,0.7623047501681668,0.6985144356881303,0.6347241212080941,0.5709338067280578,0.5071434922480214,0.4433531777679869,0.3795628632879502,0.31577301103567357,0.25242219262955734,0.19320813200264908,0.13097123479163086,0.0671940620702427,0.006293049157583996,0.0,0.055351625365628876,0.11583084701232704,0.17547424666319544,0.23359486719925537,0.2771296208933951,0.2756233521985567,0.2526852299090965,0.23995774653597723,0.23897570907091836,0.21743952558424295,0.1781574380879105,0.13047938099007683,0.08042596898825105,0.031573413066959044,0.014200612471516827,0.05614461198276033,0.11029170657073317,0.16423463510629777,0.2192149673695174,0.27238385078402105,0.3232816603327062,0.37084487646257447,0.4071477260171992,0.4383282639762849,0.4820707181663908,0.5343805453760515,0.5893062218246594,0.6449267734068451,0.7034420334733171,0.7634617969398101,0.8179340780258963,0.8711924538973428,0.9294543472791323,0.9787873368579889,0.9618338887732325,0.9004110057226484,0.8366381499911517,0.7745942588653103,0.7152582764599047,0.6518326825880483,0.5880426168009465,0.5242523023209116,0.4604619878408738,0.3966744083055156,0.3337622397431643,0.27478840625926204,0.21187829306081585,0.14809075720777032,0.08515355719517292,0.05687548597143799,0.10352575084790694,0.16523138240380375,0.2239571989435618,0.2811526784680949,0.31990370352697073,0.3083540363041699,0.281445250355729,0.25941790547264465,0.2555599199540357,0.23876734608320715,0.2020422055180069,0.15547367952806146,0.10537209373053735,0.054920912697690394,0.013330736662669485,0.03452968654831334,0.0849499457969275,0.13675139096952782,0.18381333327925664,0.2287298127758255,0.2795679815881147,0.3320064189962557,0.3732530859616008,0.4050169138989428,0.43990576073887966,0.48553476580175037,0.5342326880777686,HB
0.24267899329104925,0.271227585950785,0.29995449418711473,0.32376618134995605,0.3440268868834967,0.372319975618017,0.4079746507617924,0.4471320317787605,0.49051077724463144,0.5345146085508231,0.5753929397213683,0.6170838856037871,0.6611577360681625,0.7047708734841119,0.7446270859060432,0.787699163847489,0.8318077020054752,0.8758244079669096,0.9168054472141961,0.9583299730811016,0.9968337510119122,1.0,0.9627586223944343,0.9230128381976394,0.8796043332862872,0.835493234920483,0.7913952147231934,0.749046950202014,0.7087353957128079,0.664845473138784,0.621447277443976,0.5816613804815295,0.538305385180632,0.4942948893459521,0.4533526544168748,0.41172767174152847,0.3687826734307139,0.35637934443656427,0.37277362901785305,0.37089875171241526,0.3511472117208997,0.33328757571491774,0.33818724304707815,0.33886047898354554,0.3216984694858428,0.29828262734995303,0.27564760317502557,0.2775823428342994,0.2729294021810976,0.24716969678836953,0.21319674813524325,0.18006878908429935,0.14926385871452208,0.11501321885678972,0.07963916179837105,0.045336382887960935,0.03090876582467017,0.057705261733227764,0.09339662289509632,0.1289354599515402,0.16700932962152581,0.20052740408326797,0.23063234776486152,0.26324829620148815,0.2903056326307657,0.3129827798866305,0.33473206430006497,0.3610197450181526,0.3958359849337699,0.43620918299198974,0.47609785254544057,0.5192794968605096,0.5583994459827691,0.5934296084266361,0.6346166844270319,0.6753215694997293,0.7171781080267535,0.7612508536962487,0.8039393449159163,0.8440000930276931,0.8877770414559315,0.9293036804337195,0.944382159833452,0.9110441778149269,0.871248909318184,0.8283212030707102,0.7842142769547845,0.7401016329905369,0.6959924008956068,0.6528272786821882,0.613004512107553,0.5694592817679017,0.5266866447071682,0.4866718939798017,0.44309268073260666,0.40262810060148635,0.3604904007689592,0.32243491642797883,0.3331282064812938,0.35820151848653514,0.3615703995156988,0.346586147814255,0.32686844767882806,0.33388308537294453,0.3425942100133944,0.3298528993860804,0.31315232540249904,0.29632541202130114,0.28792215270376964,0.27782558697684623,0.24956766378484996,0.215799248004358,0.18200586720169654,0.14747126866315707,0.11219303205930464,0.07722694947984854,0.04149138799092533,0.010423142656310946,0.018521941870321967,0.05218815774349084,0.08808324421263658,0.12486596236908143,0.1620427648282028,0.19634021504048083,0.23351713705570243,0.26614116710379787,0.29226433256338347,0.31489434744789135,0.33834673993421605,0.36642024195600864,0.40227493052348284,0.44113449508325286,0.4822766783810931,0.5225806099152489,0.5656064298666478,0.6054085293330479,0.6488972975555231,0.6929826219023253,0.7349378656417002,0.7755778460010206,0.8195422709565422,0.862533800441542,0.8899168330103183,0.8681218097547759,0.8246639611131995,0.7805514942429114,0.7364388502786644,0.6923262063144161,0.6482796559401646,0.6069901496664164,0.5657242522956331,0.5216769322680918,0.4776043143614289,0.4359409596977305,0.39542967433891507,0.35607342386993335,0.3378649994534345,0.36435953878088523,0.3771432788925816,0.3749759578987365,0.35765076378069105,0.3390815486262667,0.3462413041038862,0.3585948687555508,0.3504066123927779,0.33389415319426796,0.31553666139513503,0.2978003148732361,0.2961062464679891,0.2835771281175531,0.2543868215599582,0.2211939552818537,0.18759255465496272,0.15333995093397246,0.11806080626322146,0.08273746843051988,0.04572139510516837,0.013041077640809196,0.013903620670383865,0.047345584963848,0.08282112826833588,0.1191867016212923,0.1556049833291927,0.19273881868359244,0.22949293075167287,0.2618397047017684,0.2899923302858851,0.3162954074374722,0.33692872539233065,0.3614203392208216,0.3969901611632388,0.43598610990571685,0.4756733569657191,0.51771082024263,0.5579710933513206,0.6003610670208074,0.644452145518361,0.6872144091253672,0.7272321832020535,0.7709966926406603,0.8151050785823221,0.8581412854054665,0.8939308968107961,0.8917846032180025,0.8522612636442713,0.8081929911054592,0.7640847078630854,0.7210468094501187,0.6811783107985682,0.6375430830766174,0.5934310730948879,0.5493304990234668,0.5068198965483423,0.4666361593324916,0.42354165700164603,0.3838372743155193,0.35166360816291753,0.36533587478513485,0.373154134097451,0.36336318886383656,0.3412575902879146,0.33257775266283074,0.3467847193968848,0.3431656355478495,0.32609944523241186,0.30661496626988893,0.2930343118809189,0.2923504070067573,0.27975681882260706,0.2518867225805025,0.22036389446851368,0.21749870804190496,0.21561437854058418,0.18891731864516315,0.17397105986555117,0.15946142103095695,0.1403976539485663,0.12958076088333947,0.1040266304574674,0.0691808551752977,0.03157879884925141,0.0,0.005658756918576424,0.03831541027852858,0.07488048840795392,0.10934722403598485,0.12923155232973438,0.14734321675752726,0.16181897168211357,0.14127746042574418,0.15839016726074384,0.1923050180157152,0.2148366141129604,0.2391067386353658,0.26506610371877815,HB
0.9999999999999999,0.9941799743869114,0.9842442267922743,0.9744037995365037,0.9678704503749255,0.9580916833500873,0.9478892359925927,0.9376867786153876,0.9274843640990679,0.9185752796280656,0.9114465074000379,0.9013317874244807,0.891129331851258,0.8809268744740529,0.8707244170968474,0.8605220039715512,0.8516872208980745,0.8444899071663358,0.8343694262536968,0.8241669703327185,0.8139645129555132,0.8037620555783082,0.7935595982011031,0.7833571408238978,0.7731546834466926,0.7629522659744502,0.7538852910337047,0.746902169501063,0.7367996915168052,0.7265972366825634,0.7163947793053583,0.7061923219281533,0.695989864550948,0.685787407173743,0.6755849497965375,0.6653969977259687,0.6583453005555735,0.649429596672913,0.6392299604096132,0.6290275030324082,0.618825045655203,0.608622588277998,0.5984201309007928,0.5882176735235878,0.5780227207889059,0.5701649892730859,0.5620595006171741,0.5518626841366636,0.5416602267594584,0.5314577693822533,0.5212553120050483,0.5110609249805979,0.5032769305430951,0.4950983353090007,0.4849003226181241,0.47469786524091895,0.464495407863714,0.45429295048650853,0.44409912917228955,0.43638887181310426,0.4281361165221026,0.4179379610995845,0.40773550372237943,0.39753304634517417,0.38733059861818875,0.37748493186743937,0.37094729886187927,0.36117804685160093,0.35097559958104485,0.3407852432419929,0.33352662548750167,0.32481965088918585,0.31499833550086265,0.3084778378712305,0.2987683788323141,0.2920187053085411,0.2827190849730582,0.27253590311991216,0.26571427449813534,0.2586024078478938,0.2508057513201306,0.24385725657517776,0.23690996277706966,0.23300947440461506,0.22337542493993479,0.21459599079077707,0.20735816983516597,0.200020556108212,0.19259140140163722,0.18743006118183814,0.17994528391186082,0.1728948513740357,0.1640265445843161,0.15382708673556855,0.14362467030659315,0.13461342141399246,0.1275788937535673,0.11748645894557641,0.11042539038338695,0.10151916591931442,0.09131956533892543,0.08111715030097255,0.07218020280589799,0.0650868304114316,0.057619657416455194,0.05240886557710095,0.045112981388904516,0.037661351083422834,0.027519310387001505,0.018656664441596194,0.011495316253649801,0.004096723102446964,0.0,0.0006416513551539271,0.0073588429061455796,0.014182173166403078,0.022244200617957066,0.030129583538146154,0.04032473856833224,0.05012253562229013,0.05664731709590454,0.06647729111737088,0.07666617513774315,0.08467741922605265,0.0926336645862878,0.10152842255011135,0.10859417790580189,0.11868596331043635,0.1257083171449639,0.1331406819034751,0.14049143023151095,0.15068249370835224,0.1608849510855574,0.17108740846276238,0.18128986583996765,0.19148857434759703,0.20002869985911453,0.20745322603981975,0.21764484755453295,0.22766234082773285,0.2335793539594858,0.2396497141275873,0.24832204211438036,0.25530745474894534,0.2647811681566514,0.271445174559679,0.28144515360480715,0.29158723803150355,0.2990415758165369,0.3074288151546257,0.31169856333352863,0.31417890882786337,0.31612726442181016,0.3153390303520386,0.31007657388299736,0.30131665579651334,0.2983328512252388,0.29875037438006524,0.3024153248585142,0.30390932253651703,0.3071363030524916,0.3037237915980313,0.3028940085278896,0.3065901238977107,0.3116753286815708,0.3193809991600566,0.329401618386046,0.329718177919494,0.31970436224891374,0.30950194205983006,0.2999701407403703,0.29393194837220915,0.28950046028522025,0.2820243088677734,0.2718541450239331,0.26165170668635074,0.2519473064057307,0.24624838578371389,0.2454110492012126,0.25003761104759503,0.25857917557366294,0.26877943184176367,0.2789818892189687,0.28918434659617387,0.29938680397337913,0.3095877426629081,0.31884944532403836,0.3256162639826329,0.33574179336030385,0.345944250737509,0.35614670811471405,0.3663491654919191,0.37655162286912436,0.3867540802463295,0.39695653762353444,0.4071589950007397,0.4173614523779451,0.4275639097551499,0.4377663671323553,0.4479688245095603,0.45817128188676537,0.4683737392639705,0.4785761966411758,0.4887786540183806,0.498981111395586,0.509183568772791,0.5193860214335599,0.529452493561056,0.5360172390252188,0.5455385893707867,0.5557410155369208,0.5659434729141262,0.576145930291331,0.5863483876685364,0.5965508450457415,0.6067533024229465,0.6169557598001517,0.6271582171773568,0.6373606745545617,0.6475631319317672,0.6577655893089722,0.6679680466861772,0.6781705040633824,0.6883729614405879,0.6985754188177925,0.7087778761949984,0.7189803335722035,0.7291827909494083,0.7393852483266131,0.7495877057038184,0.7597901630810234,0.7699926204582291,0.7801950778354342,0.7903975352126392,0.800599992589844,0.8108024499670489,0.8210049073442541,0.8312073647214601,0.8414098220986649,0.8516122794758701,0.861814736853075,0.8720171942302796,0.8822196516074851,0.8924221089846908,0.9026245663618958,0.9128270237391006,0.9230294811163059,0.9332319384935109,0.943434395870716,0.9536368532479217,0.9638393106251267,0.9740417626338534,0.9840974330043205,0.990633739273718,0.9995452373838672,HB
0.36706804768502305,0.3084010338262501,0.2496296624598892,0.21585109933177554,0.2541172720411294,0.3171741008400106,0.3810997109711674,0.44502610089102107,0.5088973316460597,0.5660629783416202,0.605593095962655,0.6596208758222828,0.7202791340962154,0.784114991459661,0.8480413813795147,0.9119675047312812,0.9746611416745419,0.9965933133769884,0.9454436614071497,0.8852094380412581,0.8241110543681225,0.7672092733214531,0.7195500293205148,0.6809303570939396,0.6390699000331295,0.6116078557851776,0.5990701761727295,0.5644277399062363,0.5478886944913002,0.5360667189527524,0.49612030820360925,0.4782257334794148,0.5111865233354091,0.5619063123886747,0.6144319994742793,0.6681824934798117,0.7089331123450289,0.718973171639179,0.7316958330059069,0.7447677400031498,0.7474544328717114,0.7235303986697601,0.6698047548602377,0.6091831369093057,0.5495438917668805,0.4874111663703023,0.42403770801511304,0.3646324875682914,0.30199488223306875,0.23865615805999402,0.18143607463908656,0.16339321311392047,0.2139139375594145,0.27325449269940166,0.33670568167676135,0.4006102301192119,0.46258962023911393,0.5224046906323765,0.5860579208785068,0.6499841717681343,0.7139105616879884,0.7778086776225246,0.8396012599762583,0.899568939097737,0.9628614271391913,1.0,0.9565285938071935,0.8974429946966394,0.8373436418519,0.7808729479011665,0.7331041398156575,0.689899984350824,0.6497029897058444,0.6057886327817017,0.5591018334358322,0.511150679269107,0.47455672666790655,0.48073293750505325,0.5283402633119745,0.5792526309349364,0.6273973110638518,0.6694479196525649,0.6871448118356898,0.6598202789422745,0.6045879633617417,0.545179999312732,0.4838475173554693,0.4232028447008194,0.362222207213493,0.2993607193790245,0.24021141126497786,0.1920856250523328,0.21746795103881372,0.2762627275682273,0.33992850124168755,0.40215918635809905,0.46179968266767396,0.5253703972223449,0.5892946178134999,0.6525143763915546,0.7118216031453195,0.7747270689899115,0.8385810585504574,0.8901203324708873,0.8632932039963956,0.8025313114914574,0.7439621270317929,0.6905950488385659,0.6483963077587382,0.6146331077156229,0.5789798674893609,0.540047732863574,0.5199849845925213,0.5431069749546664,0.5885590886227225,0.6335791187236219,0.6735652973048256,0.695996777896545,0.7000825471305152,0.7077024055376522,0.7175170814859542,0.7004973367321499,0.6462788019417136,0.5852647849492829,0.5255161341619956,0.4622366655781113,0.40257508510098977,0.34037608458346985,0.27646571344065723,0.2125393235208039,0.14864449694639364,0.0897649511780304,0.08235196560040342,0.13417696379895355,0.19707236396680677,0.26086595348606817,0.32132117202633487,0.3825496843990794,0.44642122085813335,0.5103471480360664,0.5738738667490999,0.6334365302558964,0.6957865292138274,0.7597003920359044,0.8236267819557579,0.8874370622178247,0.9358323346219954,0.9067782961427522,0.8474174012561257,0.7891881466482265,0.7340968433532651,0.688600631371654,0.6523591668255251,0.6111884119123914,0.5635807841097922,0.5147521443433387,0.47250752348400654,0.459871189688181,0.4988384886288701,0.5503981812270542,0.6025048366337857,0.6496405312188098,0.6858361007669143,0.6930390183758182,0.6933950424337616,0.709702569157127,0.7201940152842334,0.694460175351467,0.6370964462536763,0.5774365314339296,0.5139023578957314,0.452841735845175,0.39222441686318527,0.32840908410692077,0.2647072997308209,0.20471259614705412,0.14297809168599457,0.08158788160780356,0.04405663479286803,0.07682441645640636,0.13917081013224725,0.20204189730685834,0.26134969708147254,0.3245989177180048,0.38852374222457725,0.4524501321444307,0.5163636802194489,0.5786968639885675,0.638268751492558,0.7018033462812197,0.7657293033222015,0.8296556932420562,0.8935711405094899,0.952266904167677,0.9464413326174497,0.8898230840480941,0.8296191068554712,0.7709326161810164,0.7220287192693855,0.6863218295762517,0.6464466822747863,0.5978878527281888,0.5505598595022203,0.5041126714909909,0.47358768341904417,0.49364784246168986,0.5416577895224077,0.5936175969707849,0.6449788180814942,0.6944786705532788,0.726402347879918,0.7265188767624349,0.7223519634032847,0.7293969186611984,0.7097065079566518,0.6556874307239604,0.5966428461320596,0.5345992106976949,0.4751573880397825,0.41171685826963195,0.34786461014171194,0.28687394736451927,0.22618774354673682,0.1623659440984741,0.09901187891292357,0.04000592617900994,0.0,0.03752013005011534,0.09711324106851515,0.15873674345328453,0.22262903042556276,0.2865335798721335,0.3484914299184238,0.40832398672846176,0.4719819434828186,0.5359082016033323,0.599834591523186,0.6637609814430392,0.7276867789024255,0.7911750331285525,0.8506841381986712,0.913124190544587,0.9756938949580205,0.9960813660074515,0.9433840659312054,0.8840800635943855,0.8251027131037532,0.7711599474953332,0.7271573172805301,0.6886141531759267,0.6460739113011886,0.5983916402399905,0.5490633412529706,0.4962838685703967,0.4533897414287084,HB
