0,1,2,3,4,5,6,7,8,9,10,11,12,13,14,15,16,17,18,19,20,21,22,23,24,25,26,27,28,29,30,31,32,33,34,35,36,37,38,39,40,41,42,43,44,45,46,47,48,49,50,51,52,53,54,55,56,57,58,59,60,61,62,63,64,65,66,67,68,69,70,71,72,73,74,75,76,77,78,79,80,81,82,83,84,85,86,87,88,89,90,91,92,93,94,95,96,97,98,99,100,101,102,103,104,105,106,107,108,109,110,111,112,113,114,115,116,117,118,119,120,121,122,123,124,125,126,127,128,129,130,131,132,133,134,135,136,137,138,139,140,141,142,143,144,145,146,147,148,149,150,151,152,153,154,155,156,157,158,159,160,161,162,163,164,165,166,167,168,169,170,171,172,173,174,175,176,177,178,179,180,181,182,183,184,185,186,187,188,189,190,191,192,193,194,195,196,197,198,199,200,201,202,203,204,205,206,207,208,209,210,211,212,213,214,215,216,217,218,219,220,221,222,223,224,225,226,227,228,229,230,231,232,233,234,235,236,237,238,239,240,241,242,243,244,245,246,247,248,249,250,251,252,253,254,Target
0.5594559266232682,0.5248564056462215,0.47486653208929347,0.4331127486608268,0.38972596476590754,0.3590345142964885,0.37419788532425485,0.4032062556885561,0.4111605237828931,0.4271395631632457,0.4283805417938354,0.41829632801822286,0.4065402926852833,0.3689899409203788,0.2990139152903151,0.22532804468337758,0.15087625059254983,0.07719070310081477,0.008794347099865263,0.0,0.06450343518771667,0.13807050192389014,0.21227208754926902,0.28585523682659214,0.361267481004724,0.43694494372154064,0.5104419166001304,0.5868278261746662,0.66285952213836,0.7080146687443445,0.6605281822587212,0.5881072799811333,0.5151759746971052,0.4436850177488731,0.38679102159446305,0.3634337319249807,0.34834708267795794,0.3559976471049217,0.38928548815403546,0.42148325477780496,0.43586126588377677,0.45733635030105896,0.4763710887546914,0.43432621329379667,0.3613581299501168,0.28502925453034295,0.21148397491238097,0.13828998734968678,0.09005370854670486,0.12604411434350943,0.18487199015520456,0.2535935755023853,0.3290337403543652,0.4024205685630681,0.4786224887131553,0.5554003925033317,0.6321805201357664,0.7089127998424964,0.776379427606803,0.7631177145620929,0.6930467247026442,0.6197764894220492,0.5480423560482401,0.4801286807814243,0.4227234714914366,0.38780855518680585,0.35971569792892294,0.3500200838450667,0.3738148401089943,0.3972696735733399,0.4026966161566314,0.4184152231771477,0.4220055254881379,0.3678006662890762,0.29546557776830745,0.22091342533052577,0.1475653792366317,0.07418733513830578,0.02078964677543682,0.05496485151276137,0.12679479844608377,0.20017651816193754,0.2743271967802548,0.3411595418514877,0.4006580523833501,0.46438550936160733,0.535512664233637,0.6115319875255072,0.6850834834863211,0.7017043101888347,0.6380406006978916,0.5621135921460607,0.49019426947006733,0.42663582634657343,0.39032908384022763,0.37820875302786977,0.3697761912047905,0.3935681838355852,0.425932952967579,0.4560691530162971,0.4695654988442373,0.48670152915879056,0.48627051232483803,0.43248208725311293,0.36363318072807155,0.29000889491875687,0.21644037588777726,0.14263716370696544,0.09047356450197047,0.12391355065997428,0.1963328926486691,0.27296934096959674,0.34836408900493304,0.42204347849630625,0.4985461674505451,0.574283661317256,0.6477602254658885,0.7238788533310274,0.7850659512996525,0.7592490563006755,0.6882704144591096,0.619132517040843,0.5534919457906493,0.4896432543852947,0.4493935182712527,0.43368015398565624,0.45256447767976765,0.48235215319587016,0.5392088493829037,0.6109090144133331,0.6831155747216175,0.7563659398661904,0.829752488066348,0.9026728347527957,0.9713897296626095,0.9801471430211288,0.9149695519030367,0.8386732842725242,0.7618948174570748,0.685400305737341,0.6117522175898857,0.536312120206679,0.4600445158112731,0.3866240203505555,0.31089768652928723,0.24096528107804166,0.23656165577254712,0.30389572851587415,0.37759599489538725,0.4498229901995982,0.5058650556216708,0.5088157061891148,0.4892928268809024,0.4790607050561499,0.4537525054789688,0.4180509385607441,0.3938101228043411,0.3985623259594057,0.41279092177732085,0.4618264317675583,0.5301030271113836,0.6027809583177597,0.6753764621581158,0.7480687035670621,0.8210597705878071,0.8948469031599959,0.9246347038360094,0.8676161384058867,0.7931300435874638,0.7197738624487136,0.6438165382166878,0.5695670025933655,0.4948664883402259,0.4182623424264789,0.3440640821970585,0.26944725583039825,0.20177051447613265,0.20898315642141835,0.28140527237896934,0.3554741091828802,0.4214268743047271,0.4495641466815718,0.4358969006895614,0.4234929052414031,0.41966979848778746,0.39584464827720306,0.3724262497343233,0.37729340546214,0.40645211175193413,0.4460244217557507,0.5094694190440292,0.5795859053833619,0.6523012390517753,0.7259195164863048,0.798964059977485,0.8720043179857688,0.9449933472956573,0.9999999999999998,0.9745322896349391,0.9224559770153511,0.8686312919866683,0.8017222462833908,0.7260123809087591,0.650806750316645,0.5769938525601368,0.5005061704973284,0.42603662354005606,0.35159039093980043,0.2828771716652165,0.2931042127845284,0.3641183916594836,0.43645587626584187,0.4920939575952565,0.4893476843201257,0.46250428820053086,0.44785150591294137,0.42192182087969105,0.3902040647190194,0.3750875478884104,0.38150018973551253,0.39690996291652575,0.4472893154884137,0.5166669647587687,0.5887124172302056,0.6556249186370651,0.7295359870284464,0.8028877307242799,0.8768067952882477,0.9265987897780734,0.8881280877323736,0.8149727067538561,0.7415108040158984,0.6658996575426628,0.5896111678309672,0.5161800218553025,0.4403357510273241,0.363697540645004,0.28959153321435144,0.21503994895736106,0.16276364050046505,0.20434136048205082,0.2780272839896775,0.3501424360006959,0.4105449003044587,0.4364347395165717,0.4489196138984,0.45037505199970346,0.4342479323057337,0.4274702316758175,0.4498646221047948,0.4924899907374614,0.5433030088787083,0.5894466431640999,0.6523967221817235,0.7178881264366401,HB
0.645576088898403,0.6881332744030331,0.6659319489406529,0.6096260876696817,0.5656329797496515,0.5261042647058104,0.44846321908649267,0.35183900468412,0.25131520090196335,0.14834315432448253,0.049089596328040025,0.023648691323872637,0.11052067476005983,0.21036351979933313,0.31246008062958386,0.4155483359285086,0.5177873237709175,0.6176876326132196,0.7199940544663884,0.8200161452725503,0.905338148617537,0.8785601227207416,0.7846331637439419,0.7015462730946066,0.6374149619727651,0.5979257502797696,0.6097222551405039,0.643433911572695,0.6962031253185681,0.714294229173006,0.6349105714377522,0.5347446055275712,0.43182041720611175,0.32872703398372694,0.22668749548422215,0.12671633875015095,0.02793786003665273,0.0,0.08389554931383819,0.18472653636471945,0.2877541540280115,0.39050312531361253,0.490525260922988,0.5924746138042297,0.6943858904586917,0.7943686839399052,0.8844274525691694,0.8659966288923249,0.7765864250169261,0.702314358188046,0.6384732873454642,0.6036754996831727,0.6189219253066696,0.6489261789394998,0.6959248139917825,0.6945564114665708,0.6030037743278603,0.5017831913378531,0.4012677824324764,0.299529197041141,0.19946422343536066,0.09841296729801241,0.04377003610260638,0.11114426122267157,0.21302335708192408,0.3156475537990868,0.41556776605362833,0.5177391149347149,0.6198212185626402,0.719778663266692,0.8206248886169576,0.8647628808554366,0.7907716986898929,0.7074066583057154,0.643476865121006,0.597238419116508,0.6100251570343987,0.6430284667761602,0.6896579321661686,0.6917760508442208,0.6070713358048146,0.5058617411839907,0.4053896839937169,0.30408634987055605,0.2015859107028403,0.10513137297138125,0.017966400636831095,0.023275108622780163,0.11606671378873096,0.2184285450837715,0.3213649075464352,0.42181419241264484,0.5231844792079656,0.6262495604859873,0.7293541963049152,0.8315846657876267,0.8912216696842267,0.8269921095710783,0.7381124183049161,0.6683627648302063,0.6167061386507066,0.6140737229093872,0.6400143431611022,0.6791499038167235,0.7081187911108,0.6471058623450324,0.5584417163461012,0.46119474926792403,0.3589796254647206,0.2590902669552322,0.1569981251727743,0.057706513266385207,0.001943646931227186,0.07076953384088924,0.17330244296922434,0.27640707327775405,0.37951171732986466,0.482583537438554,0.5840633532060869,0.6844210661280664,0.7869559296090506,0.8834828324148252,0.9089820684677749,0.827007277913981,0.7374091842357189,0.6659192375158185,0.6082913075933928,0.598688401789296,0.6221405280776425,0.660873839508857,0.7007939609964281,0.6524943427869115,0.553754360722899,0.45379295135430864,0.35292425006250017,0.2523414048753425,0.15026572298850974,0.06668410546821185,0.0936855694103007,0.19249842739624337,0.29488572804498536,0.3940393125926527,0.49032920243823896,0.5904134073012198,0.6902592092786629,0.7924396837065139,0.8834153682816839,0.8770731243564196,0.7915996428541953,0.7379373504807497,0.798728534077986,0.8950863498814968,0.9850782715405485,0.9934682531038362,0.9053510759470161,0.8039295900335592,0.7033250034108773,0.6103519247592029,0.5896595913197081,0.6781136425987057,0.7632308826217099,0.7493471475940356,0.684717933398427,0.6439662759450943,0.6209413655341962,0.6184096099487072,0.6718327980919567,0.7434382126342607,0.8348773115889446,0.9297755677595595,0.9927359187969024,0.9358150902060128,0.8370314442668452,0.7350652228518308,0.6405151708890588,0.6306556653310235,0.7188231112550557,0.7628055780565038,0.7136154225857938,0.668201442177629,0.641035562732744,0.6304298333129486,0.6792082988278886,0.750695787058367,0.8417708050885493,0.9361249697608681,0.9915596880292395,0.9287258955974728,0.8288566925794135,0.7289908268493618,0.6265061315173944,0.536492355671992,0.5539549575840236,0.6498686648837785,0.7430599041906573,0.7575049134013331,0.6985818228174725,0.6519102289996803,0.6225583041360897,0.6178954781688426,0.6688905165858379,0.7361797703612974,0.8255334196649591,0.9209632792388204,1.0,0.9703296992122866,0.8735532917340949,0.771682140554018,0.6717157347165869,0.5690494280057119,0.47463253816293893,0.47913602254550114,0.5719815064400021,0.6666763549192953,0.7494097978322642,0.7367353351618513,0.6800835171063899,0.647738718149268,0.623137813472845,0.6466431319855775,0.7099157990868586,0.7906001379628187,0.8844051494946525,0.9755038351568895,0.9904311986762541,0.9032541908926189,0.8019128123248079,0.7017462959230557,0.5991087742613118,0.5160771234468242,0.5518086851933572,0.6508741472245317,0.7468039060521837,0.7758782375124652,0.715362188355853,0.6613264706723389,0.6310972620726258,0.6164364977629271,0.6579457712955606,0.7247721864804296,0.8111447558534597,0.9064176145009365,0.9843184559486781,0.9499618710912366,0.8522087218533527,0.7520613407683691,0.6498581994131405,0.5500421811091104,0.4598038803801201,0.47786114424871273,0.5753021258454107,0.6749580019354567,0.749720620572385,0.718146885148624,0.6660070242162927,HB
0.7456517542836223,0.7400377212225693,0.7600517893346905,0.7843623997958891,0.7554057780282373,0.6856129782486882,0.6084013209383796,0.5304060128276309,0.450328014246874,0.37361535322253175,0.29283559211623683,0.2128909086623531,0.13607485887996307,0.05792673061778153,0.021216664313144284,0.07878446111540643,0.15966005604530026,0.23719297421175373,0.31616296139417527,0.39756611853464147,0.4787055943483313,0.5558911803981943,0.6352250740976468,0.7122483962761863,0.784589592445692,0.860422902767171,0.9172394683699006,0.8798982487752454,0.8209207307810893,0.7844461525399513,0.7501880171226893,0.7079561671391943,0.6787968306964931,0.6900173389401896,0.7277482014456349,0.753612967353908,0.7521395999261902,0.7580065358502925,0.783498388969126,0.7949974735358147,0.740604613638941,0.6643339004724313,0.585602152205406,0.5082326734322085,0.42731957263002923,0.35007623603170285,0.27076829525239116,0.19096157364462024,0.11413500065330784,0.04074730033723645,0.03281037255605895,0.09482976073608829,0.1752664036307025,0.2561829229543608,0.3330007870836304,0.41297591137875705,0.49441253772632915,0.5758601974324566,0.6573078571385838,0.738743430359786,0.8186638064411051,0.8946221634953311,0.9351194467559656,0.8829529160768419,0.8208891369569953,0.7815858767355592,0.7462332090639989,0.703705674691153,0.6681683977300827,0.6739902481960862,0.708350302420321,0.7355789561321764,0.7353596464720975,0.7331103543755471,0.7581149070273372,0.7820877521478686,0.7485033238473109,0.6753126157200564,0.5983045458465615,0.5196324484422534,0.44045738157415076,0.36314154173251895,0.28204608972617756,0.20542884072172057,0.13190022674053126,0.05223461823103043,0.0,0.03847605467260251,0.11747103901700501,0.19553523688292712,0.2739154694403509,0.3552586342917308,0.43386293490216127,0.5034779477938618,0.5798880916600975,0.6611379944824161,0.7424638194510298,0.820498896576455,0.8942117234977076,0.89842123043732,0.8347731231659161,0.7889576197177974,0.7579575767331796,0.7183385478892028,0.6855087578512706,0.692474527413905,0.726505040683938,0.7476570044066371,0.7478657930637826,0.7495951211596295,0.7672097460859133,0.7892899753441458,0.7560226394891316,0.6833089211341088,0.6056202578034826,0.5308735826840845,0.4617071101374572,0.3817850404343622,0.3050022781383153,0.2250070407024048,0.14592996348786547,0.06887782321607622,0.014120273130841632,0.057765587421649,0.13360760898095347,0.21442750936041383,0.295511835715263,0.37257708297965414,0.45214604529536245,0.5335355742607137,0.6126278929625419,0.6900582939062956,0.7711829555192307,0.8494237253170374,0.9126926766925028,0.8875502056640456,0.8230365552006156,0.7839960305831404,0.756232643452786,0.714896734940327,0.6861288057553105,0.6990298420946137,0.7352438436510169,0.7558471216918903,0.7559952150867746,0.7663013399240686,0.7775898132598296,0.7762128587854316,0.7521937507449366,0.7169444451023395,0.7163625433785772,0.7549032628728591,0.7933006948054933,0.8207900423493306,0.8745105732352181,0.9443202606152827,0.9908959804845219,0.9488908576795172,0.8739480835403552,0.7940097198993654,0.7134575857815058,0.6368078044875543,0.5563149764673794,0.4750914831041379,0.411503162424843,0.44413738943637765,0.5241157010503845,0.6055462968896086,0.685247050519971,0.7596306219810234,0.8099919446919948,0.8080296825953388,0.7809228054779953,0.7680408007360653,0.7695662339212181,0.7600706351264774,0.7265301463028051,0.7039870794183718,0.7301972381423592,0.7700541568071022,0.8016458595319835,0.846717144804447,0.9127510248365893,0.9783887711541912,0.9876537573627475,0.9213865884243655,0.8436764501346323,0.7656761352807522,0.684523963022416,0.6068082305615574,0.5302310754140913,0.5065874694814094,0.5750819361297501,0.6519090221542865,0.7313557101755288,0.7970004912719499,0.8061494415651196,0.7789437093886618,0.7565429353701851,0.7587410927797904,0.7548891466212713,0.7233611565204661,0.6900468514566531,0.6990397424286543,0.7424155434816282,0.7808371526063667,0.8149209712388747,0.8695230149920683,0.9386068621972989,1.0,0.9905856401055493,0.9180228666368031,0.841494479354908,0.760962067824845,0.6809931022895999,0.6041773320324193,0.5232561470183017,0.44423186388259256,0.4228521451237451,0.4894836467207279,0.5699668316339206,0.6467676730581802,0.7240069637086688,0.793702619511131,0.8229851691616117,0.8036657173515804,0.7776518938278638,0.774297980048023,0.7763404356829482,0.7538674115208663,0.7155913216566687,0.7070259634620111,0.7459827553261433,0.7847817690567078,0.8151927770844853,0.8662169135177125,0.9349951584546059,0.9953348930618671,0.986204739535635,0.9151909715494189,0.8341161047882488,0.7526698043009548,0.6717369388360814,0.5949046275586327,0.5151994386714824,0.45726075619993706,0.4988009226059727,0.5765814591473124,0.653338148399522,0.7305396430403268,0.7961623696513069,0.8105892077870949,0.7858851517313781,0.7629972009132073,0.7668444322853891,HB
0.7564689903802211,0.7369570328684336,0.702187108458489,0.7203399433808839,0.7784825882106707,0.8238878760746853,0.8344654423090685,0.779879964583378,0.6853472033547645,0.5899290138246158,0.49915896419830763,0.4025740099606665,0.3073657524635751,0.21648319880227285,0.12145436248489849,0.0645701178417416,0.11545437344110854,0.20661964281628953,0.29827659018040453,0.3948693829358578,0.4861003638997783,0.5807715060831786,0.6765044189588381,0.7671413946374388,0.8613158495425217,0.8992489204668086,0.8637291992210572,0.8311168928548516,0.7763771072105361,0.7091179476043796,0.6779342277581939,0.7136253607719056,0.7672641939880607,0.8301469824162242,0.8763208232365112,0.9043977580305533,0.9189298102976131,0.8982077243459965,0.8834546409236457,0.9229683510842268,0.9417657645563264,0.9104458208243329,0.8283976875306538,0.7373385395437375,0.6432414512017193,0.5459235181244919,0.4485900863095795,0.3540484188219295,0.26293247639943385,0.18051490851356178,0.18819001872789076,0.27207342545834345,0.36764612311385036,0.4582471227999019,0.5536699969937717,0.644864260707829,0.7388917303651552,0.8296362979928729,0.9120053871179019,0.9103230370570603,0.8725815533734331,0.8254167851474792,0.7618210419382991,0.6984744807375192,0.6716477619784396,0.7073525133958454,0.7570777030628266,0.7835329439255985,0.7723304195291707,0.7542393276466222,0.7241895882130722,0.7227547208458815,0.7722210746831557,0.8096173559277993,0.8017511660263681,0.7332676836736878,0.641511815381389,0.5487501691196854,0.4528035158325774,0.3622242345038704,0.26617529617133373,0.17275940431532177,0.0806669769559718,0.0,0.020874902836770848,0.10947313285699545,0.2021689749570058,0.29492438988099967,0.39088025347938227,0.4814627956448301,0.5774388490801925,0.670142816981274,0.7613895053155486,0.8072637178216857,0.7752715082228421,0.7314524031747061,0.6725875251308884,0.6088335593048253,0.5561156025040228,0.565385697716853,0.6150857976377859,0.6702139157151135,0.7012866132005351,0.7066978252606437,0.7141842346048723,0.6956882833661899,0.6992283524259402,0.7534842708790142,0.8053262996513315,0.8334645675277483,0.8069303550217417,0.7199789351819703,0.6270080229304427,0.5345760547208043,0.43813119353898555,0.3473506596092151,0.2521403723815344,0.16000895958060846,0.088165012162983,0.1261052191884331,0.2151198010479637,0.30966278120348956,0.40361665319024675,0.49539095228777774,0.5913845305725907,0.6819837434985172,0.7771701461718208,0.8665520862573688,0.9116231401671371,0.8784740509906892,0.8393976937558159,0.783294446032808,0.7185214220901246,0.6631931578501804,0.6768550406809919,0.7330248857862147,0.7917305776955472,0.8530459069557368,0.9007682919571136,0.9434513562772862,0.9766536251868925,1.0,0.9756784788995037,0.9326963520548972,0.8856890063689331,0.8299583081239168,0.7690495208281705,0.7120297230452688,0.7109233522226641,0.7747822845320034,0.8355857363360921,0.8828535980893664,0.9199623847004643,0.9739749837661307,0.9640152890491664,0.8808914365179563,0.7884879070314095,0.6940235295967878,0.602765065016053,0.510732597483097,0.5027725318726333,0.5922697845078853,0.689606579891465,0.7851158553946049,0.8681695145236314,0.8967796338072842,0.8573273924691001,0.8229173961105429,0.7704652827480232,0.7266892060590053,0.7405882928596459,0.7444951439007599,0.7363051944107084,0.7343914023737097,0.7008107541121,0.6452839815523557,0.5976545621015226,0.6182868130418946,0.6844035112638853,0.7424489875833091,0.7893704478113885,0.8326287844309808,0.8801903372605093,0.8510565372953718,0.7637863669261205,0.6732025061611076,0.576788334841404,0.48889379630065677,0.4905820698755581,0.5815051945291183,0.6762900165603964,0.7660550256701595,0.8447349692745132,0.860286365908975,0.839535887742062,0.7999046563855712,0.7551670224768077,0.769901525455881,0.7935043402643827,0.8127046994704352,0.8129951908704556,0.7750844343478378,0.7260608516938656,0.7259959042748538,0.7844131003799577,0.8496966411460776,0.8963295901119523,0.936467639677979,0.9931614696922999,0.9967542544208485,0.9200328513166924,0.8306633322659882,0.7358344030899291,0.6485427822935663,0.641539141079241,0.7296081818683189,0.8215823688805108,0.9111859463024505,0.9740478498412246,0.9740153423778388,0.9691892128305861,0.928000946481534,0.9277362605664532,0.9518160503168325,0.9465085047292394,0.9182970961947936,0.8832710207463907,0.827301065028482,0.7695520674362353,0.7252786053616014,0.752553507737814,0.8166251979923178,0.8675690566532359,0.9004829115302668,0.9534714663420263,0.9642085184747915,0.88941297625509,0.7977571902398084,0.7072487664345095,0.6114262912283557,0.5201750054706535,0.43052170245387544,0.42423875502593655,0.5142125771492683,0.6077682665483837,0.69938988542608,0.789599379844292,0.8697526150408956,0.8844179955122391,0.857211569828334,0.8161351877832699,0.7599790220148765,0.7481947344493141,0.778329720222847,0.7890790109670593,HB
0.294634627091539,0.34921181836570936,0.42467467598946085,0.47489361321087276,0.5149062368023263,0.5027343146709342,0.4926367660906674,0.4816438619024366,0.41803064074117624,0.3165485584851895,0.21867557646312186,0.11698346928246073,0.024067605798443692,0.0,0.08082679842697793,0.18614113875533023,0.2904937833965131,0.38854025832969974,0.4940475936259803,0.599016851186355,0.6942140851813818,0.7208852984626886,0.6396338440225087,0.5706128625793212,0.5361959503935705,0.5341061397885998,0.5314033527064612,0.5453614121578636,0.5533160614997565,0.5441281492291064,0.5239918512782482,0.4332387852823787,0.3311370788675958,0.23175154668002373,0.1351327050716531,0.11265572482589192,0.1972991170899232,0.30038822527115716,0.3988527694830324,0.5041134676975323,0.6026473035152975,0.6895994326121604,0.6700715225719327,0.6196845389789827,0.6070618812159063,0.6236959629334771,0.6077008628510197,0.5767529430918212,0.5785997873512683,0.5968033442675842,0.5874725137191572,0.5039446537174195,0.399429999107658,0.3001957444742902,0.2026079647275798,0.1816906548889563,0.26665349196015975,0.367522999779055,0.4673196097000758,0.567607479326528,0.6647923368122619,0.6885781543769893,0.6419425996516539,0.6223340942218243,0.6004293989738747,0.58868005113292,0.587375761532962,0.5741155573037824,0.5673202508350548,0.5706097971406048,0.5465818659853576,0.4709545552999177,0.371695362491133,0.2704422692743036,0.1672241569750803,0.08117814456501682,0.09282487265916517,0.18499822122739862,0.28858982932027377,0.3882562123619451,0.49028315710228343,0.5953691882157934,0.6920601209622743,0.7413228765911188,0.678905960648349,0.6281044129440407,0.6091882066549403,0.5881043115145512,0.5566690162679859,0.5408046904620281,0.5746761162249769,0.5982514625247037,0.5991180776915845,0.5782573786883833,0.502552449276241,0.40069289452649337,0.2941900019470691,0.18765695680683536,0.08637438120285723,0.044498299255893325,0.11315676179055778,0.21325181187061837,0.3131228620455797,0.41804242695893556,0.5159672940538655,0.620198285912513,0.6878549011563238,0.6448388836339134,0.624092156561681,0.6200049159081105,0.6130461939949898,0.6237133145117855,0.6348126339361315,0.6326020498305793,0.6241942063274386,0.6124571220711261,0.5668870521597451,0.4720142232808684,0.37070340059615625,0.27070859358991206,0.17396347059208694,0.13973649611276917,0.2148063597545964,0.31255906503740505,0.4183124912488483,0.5248730593489537,0.6311297040133061,0.7109101413855277,0.6787508916606673,0.6396903365944351,0.6317342172190361,0.601268654906034,0.5532939103894001,0.5428382897939785,0.5893890564742683,0.6172965769826968,0.5849785069118245,0.6101065792503377,0.6530623759208043,0.6693533082101892,0.6821717904614937,0.739708569242201,0.8281395122851414,0.9071693422662717,0.8868113446212911,0.7924368980552281,0.6927447926874126,0.590176974211998,0.5010168095812593,0.5170271988206785,0.6112906912978544,0.6879908125271814,0.6735717140312307,0.6571017904477425,0.6642473665808972,0.6697620664622179,0.663975604175685,0.6520297144284946,0.6447235354255199,0.6581223395862883,0.6587825950597761,0.7012127244249571,0.7905869797629184,0.8580935881384477,0.8118701882629391,0.7173095587639209,0.6133312870877159,0.5153869444747856,0.41648434734626627,0.41285162178192425,0.5107287075800047,0.6072280656651974,0.6776816719615477,0.649320817604732,0.6288490298877245,0.627343022699584,0.6080310712013104,0.5820210705858972,0.6056150264339095,0.6343884879394412,0.6504679003028522,0.6897382335398297,0.7688943563815391,0.8595299411969493,0.917139093935915,0.8667114178783033,0.7668303815030642,0.6603623871338276,0.5539823641731807,0.4666243982662994,0.5003433320339401,0.5915797507968421,0.6332759936646848,0.6084248050406205,0.6000461117682747,0.6073249005346522,0.6162877902304713,0.6176434897043603,0.6344195153690504,0.6564386507037914,0.6768100742406522,0.7480447419069185,0.8255750755556706,0.8123844560214508,0.7224038384651494,0.6245452501739892,0.5225645131065861,0.4797558520231755,0.5650418192373858,0.661558738186701,0.7167688906057841,0.6652064286181392,0.6256522829722446,0.6120625140201812,0.6287647535148981,0.65725068453633,0.6508255083847001,0.648532653929415,0.702672655102768,0.7815153422793324,0.8078008429803372,0.7335615640408795,0.6307561543178408,0.5245627348653281,0.45215411908755554,0.5171564565687421,0.6169559948149426,0.695435360403774,0.6784093485223399,0.6042786487319873,0.5899552214642412,0.5879485412284595,0.5733320426524775,0.5776118137564965,0.5791354926027601,0.6144558803479034,0.694499469815445,0.7886364487998503,0.8833491238885924,0.9744496093983519,1.0000000000000002,0.9202557505292279,0.8207033940366084,0.717276305224422,0.6188744461018907,0.5133919371715774,0.42074061915701844,0.42723871946677416,0.5161531423841863,0.5496175082780017,0.5374586892912137,0.5538379541323535,0.5669923526782843,0.5673968887889485,0.5841308960508744,HB
0.39923772602255203,0.4506890786880705,0.5082785662642811,0.5428872623067668,0.512578733389952,0.43308608374106494,0.3434216368123396,0.2560384839900983,0.1676450201911096,0.08122456763832264,0.055012296839347274,0.12412449202275633,0.2144203062798714,0.3007376458480716,0.38472726482491815,0.4628331255773245,0.5426074130342263,0.6316518281559947,0.7152503735548911,0.704457452321713,0.6314255385848216,0.5593199012857392,0.5244648562621276,0.5188618637013122,0.5190071940248752,0.5296081269211598,0.5484877720380475,0.5836031419854956,0.6044347776853257,0.5865067505344889,0.6006275152477397,0.6251949053336358,0.6294812959454502,0.5889812326703808,0.5026137817673647,0.4163714614899193,0.3268190484601038,0.23997906495599397,0.15225665005130817,0.09543693287942423,0.13411513321959379,0.21911106165559657,0.30693100379258664,0.39487134493422704,0.48696934363907773,0.5773285473202253,0.6632825688502731,0.7537406320284182,0.7986941103543351,0.7378984813559099,0.6715610733429468,0.634857440398637,0.6171394224890449,0.612662962941903,0.5940911029951027,0.5662868068616015,0.5861762615765417,0.581208732746196,0.5675455729768158,0.5883975346599347,0.5992879310375986,0.5770796123332204,0.5071396375779479,0.4275044441118413,0.34236553228774513,0.25126820542444916,0.15904152758512236,0.06751904048266788,0.0,0.02941464871109445,0.11677015071394914,0.20368886820905818,0.2926550371931863,0.3848346768559542,0.47699271188155745,0.565527821372762,0.6528471377238888,0.7405393995308195,0.7520386223397365,0.6798886776999326,0.6202783013594694,0.5898961252780989,0.5745144477130427,0.5665631035174808,0.541656275527954,0.5490170652120346,0.5793177780989481,0.5700755698272887,0.5741029816135551,0.6016454739988676,0.6081823924965643,0.5732558954361603,0.4930477174399165,0.4048629100712463,0.3177120955145575,0.2268647176347932,0.1481591479417913,0.14262855401630936,0.22405952519245764,0.31088400806323857,0.399912860969161,0.49161606596201557,0.5779078297961501,0.6676855026504472,0.7511599933159397,0.7430861745983287,0.6782898928605307,0.6409215640194817,0.6333036896628258,0.6312783223336714,0.6254496029465123,0.6022000631255605,0.615941324444396,0.6193838542490099,0.6015960811094526,0.6220812178448402,0.6451121727164902,0.6404827319039851,0.574561635822079,0.48722268387746326,0.39585118808763,0.31770940790008095,0.23695422518505949,0.14587860070274195,0.06366848081875565,0.042521903302813246,0.11737143196540512,0.20297461765376312,0.29404554978806263,0.3816311011257624,0.4698876017276611,0.5620214691360638,0.653108989464699,0.7370579156896006,0.7704183290001058,0.7073791011862726,0.6538790448740898,0.6309529609080525,0.6283860113128937,0.6188371302485228,0.5885450561003022,0.5946817438578892,0.637844267696639,0.6400898791438215,0.6657748899586299,0.684273258646419,0.6895569857743858,0.6991683730435233,0.7394047754033489,0.8108731789101192,0.888488760602164,0.9393295166822825,0.8924091973504126,0.8055783226836782,0.7189095045967354,0.6270147729674794,0.5347878380820273,0.4463687316889885,0.43455440399830925,0.5182379340101794,0.6049490844691928,0.677285407575778,0.7020243478879394,0.6946363654095228,0.6668837326127736,0.6631303922236093,0.6844841197213553,0.6665099783653726,0.6664465944632733,0.6857373337707874,0.6925794496094232,0.697280265692232,0.7139292351681125,0.7753617417598503,0.8574613028999013,0.9442535951264895,0.9999999999999999,0.9545862107048629,0.8713704406336943,0.7821845724297737,0.6915838124686836,0.6057521949877464,0.5180642780130468,0.5046286664148111,0.5807561865654051,0.6467530985490609,0.6634905338669727,0.6596508541596607,0.6351221839400335,0.6228909133084878,0.6384467300294808,0.6164395373432002,0.5982823904123699,0.6221734144499226,0.6330567677734881,0.6485598917102623,0.677042697094136,0.7402732640751949,0.8217810498878634,0.8610887705576159,0.8028930612555766,0.7141619325671315,0.6277147369361332,0.5381643236842698,0.44597261199673655,0.35964919239691573,0.36084882379338834,0.4446319600981671,0.5308142008448472,0.6133380080185066,0.6562296236329618,0.6552830561084507,0.6323548510826144,0.6215926924452754,0.6492205999740811,0.646546604008211,0.6335344744590073,0.6669980852810887,0.6795785497477406,0.6897527857982818,0.7126691562560467,0.7740459032006551,0.8517333664161274,0.9271395371461698,0.9399650848973992,0.8673794449101199,0.7767547220363776,0.6859498503437332,0.6002344535362777,0.5242600179717517,0.556645954040016,0.6391265775832086,0.6804916139277476,0.6855605876098688,0.6690790504212513,0.6469927011681581,0.6630323586017915,0.65218131759959,0.614667046651484,0.5940696549935326,0.5834248517868418,0.5831924651384638,0.5959876987441052,0.6600043408503206,0.7391740502558563,0.8242694865528953,0.9034298124082466,0.9059016668983758,0.8365395076811245,0.7574819269400256,0.6661521872996256,0.5888114616005554,0.5894140642912297,0.6105178126221807,0.5992889590559186,HB
0.14382611908667498,0.21752637499687832,0.286945615640982,0.36309133084684686,0.36890724517799245,0.28761968607892885,0.1981367400681484,0.14085007047782772,0.18736707325319402,0.2558189412085332,0.329775405097845,0.4437253422035401,0.5670563116539382,0.6489788009556232,0.5773670393532548,0.4818143803911452,0.41895237342293234,0.35852263970497056,0.2845170991625907,0.22746176801791007,0.2575243074898028,0.32517756593342373,0.30831339148563774,0.2587585859410053,0.3122175711501092,0.37748856124122576,0.3242179637143401,0.20446897671568443,0.08949308033872416,0.05243080583310622,0.15355524908207152,0.2725565921340287,0.397580880987801,0.5232437381672708,0.6413664398057763,0.6815942098685266,0.5871811032559662,0.4787344712672783,0.4068727034378712,0.34553345001592706,0.26565181537517146,0.19102099038250375,0.18899722720446976,0.258312422015861,0.30314859390123994,0.3123767700534177,0.2702677655221628,0.30707587582150997,0.3648236654163286,0.3079810375633265,0.19300629955396365,0.07294679653641323,0.0,0.07774074937989273,0.19812047652449527,0.31939147833998405,0.4450650273322494,0.5676511902672252,0.6872258936142781,0.7734205991780605,0.7159069593559062,0.6065266945547838,0.4987843898686184,0.41187630825394894,0.3651473423556999,0.306828532383401,0.22692306890869696,0.13943915351072533,0.11475318588937422,0.1906052187209093,0.26602643281009475,0.2964888587332062,0.27617491493391966,0.2898520979315511,0.3619661988930656,0.38800559442765725,0.2930071081047396,0.17324606961540412,0.08822249610299138,0.1434033056260382,0.2639884772985932,0.38920602905499657,0.5086691059209745,0.6281888080356861,0.6626053564813961,0.5687486687751215,0.47120076008458556,0.39993669669474396,0.3490612743970156,0.27857297012775106,0.2008996419102329,0.20209971095238255,0.2824454164559633,0.3036040226659773,0.26996995203135477,0.2646538781019687,0.3280530916912725,0.3333957915574519,0.233938547213276,0.12966009372711462,0.14062128582929856,0.257906652470522,0.3837508917061736,0.5095930615270292,0.6295696082252111,0.6618520537656902,0.5647990189822054,0.46378158349207843,0.39267076825772596,0.3311062773911735,0.2533047234237016,0.19702073230767558,0.2277363333579776,0.3085267676708041,0.32415913114434414,0.27385970799871395,0.313542971372194,0.3954484293844689,0.40450534355824597,0.30596794362245605,0.21231146458506078,0.25380619631192247,0.3744612513075569,0.49343488849660844,0.6122849207020507,0.6735676459728177,0.590298396270087,0.4924258447929113,0.4349395792288442,0.3728418327958436,0.28979684134058625,0.24886392490316123,0.2807515340769091,0.35437711479919876,0.4318379005423203,0.4847603584062208,0.5637934665906432,0.6733208419082013,0.7896531204748969,0.9074359981547231,1.0000000000000002,0.9483599531295794,0.831581726770328,0.7066269656681736,0.5855893988453758,0.5038716211735443,0.46465029757750287,0.3954668140494273,0.3254166426374163,0.3544404453953207,0.36234991794864646,0.2950657049349754,0.23701632373026782,0.2825593504522921,0.3579484116873457,0.4208912815074728,0.49509255098615546,0.6009316182566415,0.7152772347877905,0.8313830969733782,0.9362719034491558,0.9259544762666583,0.8122844210140492,0.6929122189773869,0.5696313584610049,0.4509938674927805,0.4195767408031399,0.39816962217364393,0.3327724534985925,0.3068195457041758,0.3542019362113782,0.34026868747204797,0.2591416669759177,0.26411842777051486,0.3428589894420344,0.4091893435931979,0.46788174893870416,0.560833728073183,0.6692120973499933,0.7847954842949203,0.9004463543102543,0.9665990829154196,0.9023454280956036,0.7872513226777007,0.6634598780805385,0.5416911243779343,0.4654934345659052,0.47658037822387844,0.43268024557946405,0.38190166161336947,0.4074384673866944,0.3879737896699438,0.36126973109614435,0.2723119442247688,0.21011919787609123,0.2623117579188583,0.35079335575652815,0.427373560007005,0.48613118166722,0.5571664114020729,0.6729121850025024,0.7913086425841089,0.8950621425102765,0.9158881285421738,0.8138926645705344,0.6917715338674362,0.5718309230176581,0.446404845046265,0.3354762105352078,0.3604077410662814,0.44279784481428575,0.43082662080347167,0.366327675180546,0.3706925790513069,0.36795742154513467,0.3076514187028847,0.23908925707967743,0.26323565878599897,0.3476405167199057,0.42204310504907694,0.48501965786582324,0.5716837459922539,0.6834695693426358,0.8039811499938392,0.9191229819162416,0.9604661194295046,0.8655241175185873,0.7474855867071866,0.6402685429239479,0.5173426194392581,0.4185989138546915,0.4461429703734978,0.43963657725711136,0.37412404279544265,0.3237946638092162,0.3634917393784016,0.35302181288284595,0.28668437538324465,0.2801765393032216,0.35018932316025597,0.41648095823148656,0.47442474052375205,0.5605709157471646,0.6730377020945537,0.7897333202563697,0.905604546989893,0.9720007241189557,0.8913818045186728,0.7731119302137257,0.6490542197849256,0.526285953197952,0.46405651387055724,0.4322044870003898,0.3623458742162806,0.2953439880458788,HB
0.8597085198653586,0.8716209939242126,0.8598003465162679,0.8385201020309757,0.8457047278634635,0.8772835971472608,0.8678125832093551,0.8049687714820944,0.7338528344228262,0.6626792375125161,0.5922804740738149,0.5253511340615654,0.4550286007123776,0.3839150898801036,0.3152711112766746,0.2472622549418987,0.17648861175524835,0.11698030136084808,0.12667092778466008,0.19048732422364642,0.2614433423869026,0.3326196003360097,0.40355369753668113,0.4710447196661134,0.5402907994998616,0.6114403892960305,0.682599727970789,0.7521352041997873,0.819346480848387,0.8802370850944882,0.8846153401605601,0.8684357439514239,0.866910039950451,0.8519640068267726,0.8381664682701259,0.8507956188697716,0.8407137455083841,0.817139335704036,0.8219464553196232,0.8547786602604959,0.8721917726618518,0.8317962773697042,0.7634259645309267,0.6963491244754694,0.6256332897180671,0.5545173464676553,0.4858779239094524,0.41786484379035493,0.3468134858602122,0.27563701889734615,0.20446182548582767,0.13396357293194422,0.0817869341556495,0.10790182157506151,0.17446683732297982,0.24551857227395465,0.31669503923682085,0.3878715061996869,0.45896895845720576,0.5273666262975096,0.5956115251707516,0.6666921603431322,0.7378648992905459,0.8081678203760108,0.8717284043253556,0.8873823202381927,0.8702336069924649,0.8678777752302896,0.8720215873520191,0.8488808986625294,0.8353530555822873,0.8631045750139756,0.8671892799622928,0.8461118418709059,0.8429327588157572,0.8792525472436594,0.9028110095832199,0.8647976248773405,0.7955977020506904,0.728540075721134,0.6586512121660285,0.5874841076140774,0.5164255658326415,0.44835069076146483,0.3797747036385517,0.3086635246081383,0.23769611651229208,0.17009250084909486,0.10098853462170787,0.03132578404199063,0.0,0.0500784628168828,0.1189192176768219,0.1900590878019678,0.2612355547648333,0.3324120217276987,0.40358630915832816,0.4740744565101692,0.541015438208386,0.6112372294950872,0.6824091428340097,0.753584953389099,0.824341455719643,0.8912433181477841,0.9424395442335977,0.9283045381426299,0.9064276992972967,0.8966214163111811,0.8826889572385068,0.8609451522944453,0.8749149303973773,0.8722152254735029,0.8475012255875511,0.8416193776231606,0.874475982729576,0.8890103850224593,0.8424528850077241,0.7735144986762429,0.7037263349600286,0.6366210412899295,0.5658811756938529,0.4947285255288826,0.42542913756526224,0.361677208534692,0.30379559581791127,0.24685566596978722,0.18876668833888202,0.12465387719182383,0.056027863575779435,0.014371030087367676,0.05815106555809432,0.12833206466926256,0.1955030595602609,0.2651953818909948,0.336358576802539,0.40753504376540595,0.4786992174933816,0.5484494521236363,0.6155901823868515,0.6863563349074149,0.7575321648717172,0.8286856946077086,0.8935606477683864,0.9037287577915628,0.8862582226514177,0.8720036811817717,0.8593437939490856,0.847229014795541,0.8580836378218787,0.8534114143308215,0.8358271639348577,0.8440091163618966,0.8789404628970294,0.9059765695289194,0.9376469575584424,0.9172644290174402,0.8943667336576367,0.8649258325978925,0.865922121752953,0.8788134106444335,0.8754955177283569,0.8676891818636091,0.8877107043622269,0.8963825778126387,0.9124579757456316,0.9356770343971933,0.9319862884620759,0.8722853907757305,0.8040396456710465,0.7329658273401106,0.6632501914565361,0.5960894100768139,0.5266104532139448,0.5002085611594866,0.5586821553151698,0.6297643900636078,0.6990765149356013,0.7665142160254543,0.8371610260018731,0.902547588271943,0.929006386671073,0.911543932625391,0.8825121567423678,0.8668336890328673,0.8868395553050022,0.9014422136882106,0.8886354441032479,0.9041656268097914,0.9159848110160512,0.9239982092335074,0.9472307379916521,0.9900857078983824,1.0,0.9433542286394002,0.8767743859833699,0.8068212729992589,0.735860598900287,0.685551191710979,0.72538622549628,0.7933330913983203,0.8612033676549368,0.924153984226784,0.9419636304902069,0.925163144959905,0.8852246560461607,0.8632301528354351,0.8826148179020687,0.8948066905979005,0.8749231368794923,0.8686991539444241,0.8923968278872029,0.8884772663813787,0.8917991396913867,0.9080583773919945,0.9511304657901897,0.9409886652076441,0.8789932884204105,0.8119502983677674,0.7411747850415208,0.6747567757530868,0.6629522417748789,0.7256451847910134,0.7930141277125851,0.8613631990431165,0.9031158779730596,0.8880386983406405,0.8555967035554982,0.8388235695069254,0.8553802453605396,0.8700576168088896,0.8687788678472917,0.8714149251734638,0.8864785713646101,0.8894935154966935,0.9052500097456938,0.9325756435718623,0.9087343731964929,0.8442863727692613,0.7768834656461395,0.7059498729841172,0.6351560196235568,0.5908215332896142,0.6310319834076845,0.6822503566912599,0.7297792568906823,0.7773268846967899,0.8308226881416352,0.8957275250378977,0.921510763620517,0.9019340663398246,0.8720212695971595,0.8620025081207779,0.8809245631132064,0.8914376792905025,0.8814626335066686,HB
0.0,0.05514197710474633,0.18059078496719305,0.2993529246962052,0.3936454886784957,0.5290814526493208,0.6827660266987423,0.7811390866527836,0.7540289952986661,0.7307226329648171,0.6729821093774855,0.6078289761757429,0.5351540166344555,0.471590893541459,0.45884552647514143,0.5229621975600192,0.58896435142062,0.6398237697067128,0.6577527673884052,0.6625023371472136,0.6732552799956806,0.6133486451724077,0.5411477231699151,0.5611165031185927,0.6414538699162686,0.7270783164306471,0.7703330003734474,0.66672843061647,0.5184178222231988,0.3860929941227025,0.38817953173233155,0.5009808442076129,0.44194135722682715,0.3155859433993,0.3380349952692936,0.4761528010023679,0.642725963176066,0.7937800497044267,0.810429877290161,0.7583507301874177,0.7008605255723421,0.6307501813583634,0.5521086032687568,0.4711903200574423,0.4340754635597981,0.4590463571431065,0.5031036723880855,0.5631615777887125,0.601518152568921,0.6298423587930846,0.6438098331862769,0.6684990123831187,0.6253569549740745,0.5703493201132042,0.5817624997595465,0.6404106571547774,0.6934994313605123,0.7363461772147883,0.6330851135473918,0.4892419017172869,0.3710470346317458,0.4001015086526398,0.5227960991177576,0.47926138397432405,0.4070213781523919,0.5031608332946083,0.6524317510697988,0.7828383630467521,0.7664999987552101,0.7133406090870005,0.6720935265779295,0.6016050319983859,0.5085932997542728,0.43153582413083447,0.40048374304334855,0.4460149668084452,0.509527829904092,0.5722806502008742,0.6196390175311159,0.6522782989700739,0.6813834366868243,0.7085362281643071,0.6951867857761589,0.6270506019895579,0.5751147365401503,0.6161258288140901,0.7020660271513584,0.7459567595249275,0.665762147594394,0.5191573453048961,0.379583962419328,0.32814406996922907,0.39196862570316915,0.43146428779854107,0.5702747293261807,0.7183073011914414,0.8412995027037771,0.8241528900682762,0.7844761244069551,0.7350524783952639,0.6721662564754358,0.5927379111264748,0.5245371211800545,0.5102825045975714,0.5693030180277838,0.6252937461898624,0.6622446786688445,0.6997537892965391,0.6957724005679542,0.7082515285291149,0.6784299078648934,0.6107828006621001,0.5866681316501574,0.6509941297995643,0.7442024305240138,0.7950078817991657,0.7233017782147235,0.5610947278721397,0.42701674845900284,0.4297474608763756,0.543209395851576,0.5042367040764701,0.3933509528566135,0.44478070298793027,0.5991033107615409,0.7466490137713531,0.8495645536117533,0.808872454994678,0.7623261276718547,0.7117434676733789,0.6363503835707465,0.5544293711268087,0.49307833672637047,0.4857823474861047,0.5300158829418726,0.5919958845908782,0.6335920217741262,0.6741236123902401,0.7530628783162956,0.7388870286755815,0.6956293183298023,0.6371151453988495,0.5831879916772436,0.5896877366318223,0.6608420619195869,0.7355343595755346,0.8086727255287829,0.8450218166370376,0.9055867193977378,0.9531596431549656,0.9021972842767334,0.7646913341343686,0.7148853784678244,0.7799096459273147,0.8697352032569152,0.8664118240438792,0.7977809105822042,0.7039242487604747,0.6954673825513891,0.7625266470188365,0.8093113804430652,0.782388976635858,0.7861479991451001,0.780586178720784,0.737769942590909,0.7102924187387498,0.6465004769149041,0.6004960206047962,0.6503602526154917,0.7348365802496155,0.7978239753642549,0.8462562455301916,0.8901353572652941,0.9501899521763462,0.9999999999999996,0.9258951043527399,0.7834536725900123,0.6484992136238286,0.5868419546269066,0.6886138300444649,0.8168740841618036,0.8472492788815029,0.8069062042007906,0.7437188793812122,0.6975015194931813,0.7542482933766324,0.794593234986269,0.7850062500059622,0.7600785742687273,0.7210364195576475,0.6828388734715527,0.6497489245224997,0.5843233109357597,0.5116137629106885,0.5124298938870067,0.5887127729598247,0.6829429355129419,0.7434092862531041,0.7976692499737585,0.8493195782432639,0.8925738457487111,0.8722979186121598,0.7672807465416311,0.7548460922133233,0.6913848386651886,0.7574299841755932,0.8239886681050872,0.793517015718693,0.7280997973673284,0.6773677014259509,0.6939250931308929,0.7585597644844255,0.7502582018812523,0.7178678796679434,0.6969576723541313,0.6808172986632051,0.6382012893652163,0.5860864747495973,0.5308107228670713,0.5392777875235484,0.6106509328620802,0.7007758217258542,0.7648007674605961,0.817608873554613,0.8608294004762551,0.9196564629604498,0.9443166028901211,0.8443733523500438,0.7139804830248369,0.6826389785351785,0.7926043347401888,0.8768237137522372,0.8509034692691633,0.7770101860393592,0.6987132593248728,0.644133869254436,0.7055320011185704,0.7474864727196349,0.7370341650107544,0.7258209234568906,0.7346363885179472,0.7017755186757078,0.6465884104279742,0.5857799593077595,0.585211504122729,0.6563332789040879,0.7180291169175468,0.7829604630101596,0.8262906876069143,0.868464146113761,0.9255826787118377,0.8786736358510345,0.744196950720498,0.6042434433264199,0.5742914797220435,HB
0.9147473262905496,0.9115020391428924,0.8943339960407729,0.905527323014517,0.9274968515224712,0.8902733410798472,0.8145455718454674,0.7345607315152601,0.6513618296340452,0.5723977542684268,0.48956195626228616,0.4055542323942196,0.32493846461312614,0.24429677239817005,0.1610733304375782,0.0841047605113362,0.05332964740469254,0.11669261416516213,0.19665998304730326,0.280608278763293,0.3646358298801323,0.44540959189902873,0.5258989487206303,0.6098916122347131,0.6928188674859755,0.7704369947682289,0.8428646344865408,0.914483985865877,0.9328151060800379,0.9018656745556503,0.8632481652522265,0.8208989254994242,0.7973553183560403,0.8220698710529474,0.8647783500473688,0.8842269556927703,0.8820133898064267,0.8837226889722171,0.8789467208450791,0.9036148636672329,0.9145991367528775,0.855660250385527,0.7756659048780893,0.6968023016241004,0.6138982072062115,0.5337713871804716,0.4526200318250656,0.3685637540894896,0.284978527676798,0.21209105327958566,0.13748431952238033,0.05500944465311558,0.0,0.04249459992619009,0.12506564163931283,0.20431499596941838,0.2865757491773526,0.37067738842310305,0.4540307680961073,0.5265248793172328,0.5966063124309028,0.6603751390483849,0.7270865036091444,0.7955014679891358,0.8728149375781055,0.9252751109304841,0.9071485286340005,0.8727354325384592,0.8305544080623776,0.7938018640827288,0.7989889816293604,0.8371205983548934,0.8578699762908321,0.8609716532623556,0.8702211260682965,0.8637391394121204,0.8833709837541824,0.914408249977905,0.8901537370726235,0.8148923066467461,0.7350470040092981,0.6551554197419353,0.5739407935942238,0.4904822992700014,0.41142607312393575,0.3288196299528455,0.2450085289285746,0.16554052496416372,0.0984622534117322,0.11756445684898403,0.18571189776862396,0.26809071451227895,0.35117707807299925,0.43009614408106256,0.5132599921767145,0.5971141525445697,0.6768286450001664,0.7584580562582751,0.8414545766679872,0.9167432291926197,0.9402065034897648,0.9128243440127134,0.8769137392417737,0.8344724890074645,0.8127384521501116,0.8390995130844182,0.8829123544628866,0.9096414477941065,0.9079663871893023,0.9028058312650292,0.9004007961220074,0.9237367374020699,0.9127122478896742,0.8512602603477298,0.7727258125165247,0.690413020734537,0.6113095822602717,0.5277520591981834,0.4443283459279159,0.36533385354100556,0.282578039604241,0.1994431971589833,0.12061561523305675,0.04946600870882406,0.06428142765524109,0.14393610565525777,0.22804369335038133,0.3118672636541864,0.39144989796565344,0.4732442387008663,0.5573307414578944,0.6406417780854584,0.7195809849740858,0.8007940798836913,0.8703702491059152,0.9365648258590252,0.933769576950782,0.9018480123239859,0.8611091173555271,0.820515035410397,0.8068113330100627,0.8404465851159707,0.876808452728631,0.8910373994680202,0.9016760120436086,0.8854965917934104,0.8452521228259534,0.8307282405955722,0.8670745686133398,0.908648246953026,0.9436531887786334,0.984998530890168,1.0,0.9362121433016292,0.8544243831134565,0.7816014057444195,0.7127116002442718,0.6360316605781019,0.5524810677542858,0.49836933381703985,0.5502365502713298,0.6338058079326281,0.7155384912157324,0.7949037826434399,0.8738938588588362,0.9421029264910535,0.9555268268225204,0.9322138304359352,0.9203776102803952,0.9274073925556857,0.9275531041433257,0.9256093166997538,0.8936302685447842,0.8492446229072407,0.8394598048780789,0.878745630447053,0.9186401018395586,0.9499272925891437,0.9923079107627429,0.9888217683181332,0.9199999685866574,0.8392271540948658,0.7551829101154247,0.6710628717695282,0.5869539256170415,0.5084922071799793,0.5070715690544603,0.5845769017743648,0.6666735135633178,0.7459942325695726,0.8275338774897979,0.904763662392622,0.9550255373222963,0.9386014395495138,0.9049542549967041,0.8868944442252126,0.8931364434538281,0.8862207244923938,0.8837177915584443,0.8707483173305447,0.8337628461325203,0.812151393238855,0.8471034776631493,0.8887083804397035,0.9239430989738838,0.9601582606098721,0.9789816047676086,0.9227167655399232,0.8403938551428071,0.7562831841037726,0.6725897710686535,0.5933095751531221,0.5110952092936192,0.4273298172147797,0.3717727194497612,0.423562124819853,0.5069546750825468,0.5866403964444451,0.6682564799123247,0.7495763055957948,0.8292760125335293,0.9067816360348223,0.9492576225092485,0.9350458992537379,0.9061980860953135,0.9059473267709163,0.9016985800799332,0.9026881906231864,0.8904079248688906,0.8504370990917641,0.8191817468686363,0.8458446914880692,0.8881547405584865,0.9252165816510166,0.9634139972539021,0.9967979862701094,0.9512775462218829,0.8737897190030507,0.7904866848173807,0.7063690360366123,0.6222746872406176,0.5403415028554601,0.466519744500834,0.46809566498507604,0.5471034818755383,0.6305954246349914,0.7096324348281507,0.7909675261055272,0.8665710326223038,0.9292000306442162,0.952956219825163,0.9337670106781567,0.9192424856055049,0.9306581857711801,0.9320209174201405,HB
0.5259145276193896,0.5769758341815149,0.5934399839563379,0.5065424899091432,0.41326023172597315,0.3134458168273312,0.21711838465965905,0.13852811265156173,0.07322647375720892,0.11695820475329233,0.2090206230670958,0.3085819180113062,0.4019290608002125,0.49680197296804984,0.5823319696797434,0.6708735031105962,0.71469213683502,0.7332429056827275,0.7760838537363249,0.8109166041802452,0.8264685128527992,0.8630193646128407,0.9233868053013535,0.9446640332618287,0.896282700257479,0.8544430622033853,0.8415230743008281,0.8276254601036649,0.7964506736587066,0.8117587232571929,0.8443584504644249,0.8549396809761044,0.7894344048412781,0.6954278208318744,0.5979606200046935,0.4992488262232705,0.4055021664232977,0.30551758178102373,0.21324222050732244,0.16433007717409176,0.2309693332292796,0.3240506506674147,0.4231718582653733,0.5164352211029798,0.6116575270290773,0.6921256173718245,0.7592362071145612,0.8010874980835271,0.8092985939267229,0.8308810151565315,0.8911087648251773,0.9178844143136656,0.8688590898455716,0.8168469440659117,0.7826753925993438,0.767711106994177,0.7498859593780834,0.7422850510753721,0.7774566817238443,0.8112342341206614,0.8080469461314218,0.7349043035506718,0.6357155123422785,0.5423732990566658,0.44241165514720204,0.34105283980964207,0.23982630407587846,0.14766220153285559,0.12290243091295594,0.19965283566656178,0.29345460524264666,0.3913370994141946,0.4877274373607293,0.5825598945000533,0.669534764047519,0.7398451720241687,0.7879560397056521,0.7937857485156495,0.8008292402963914,0.8534363222967788,0.8975198627904263,0.8565424886491299,0.8086327627718518,0.7879200434056567,0.778410386740023,0.7491231560713892,0.7247057552697876,0.7501629215194016,0.7817160845358678,0.7759264068295962,0.7080378980650711,0.6126674667375819,0.5137600077041357,0.4201505801369404,0.3196237167898225,0.2192878381727451,0.1258465543264945,0.030704440611786343,0.0,0.07252516428730782,0.16958356386915796,0.26346077574568494,0.3641976788525608,0.46555821389014185,0.5659454573320787,0.6581148873512498,0.7352918999582864,0.7741127647636098,0.7768304233994615,0.7955065661692874,0.8494937543770363,0.8967392364136301,0.8633172179746681,0.8250732169338798,0.8167445302914899,0.8070938599196084,0.7796812198866926,0.7867639449893856,0.8240440238750945,0.8479564947850452,0.8048872493298965,0.7096382230154942,0.6162453787791627,0.5168201037563044,0.41931848605583466,0.3246339237747299,0.22414506762969688,0.13517886215926012,0.12056904052602346,0.20413864078493182,0.297363866310128,0.3958249142880633,0.4895029355531674,0.5862828398735908,0.678593166772055,0.7623973479448601,0.8154883395847145,0.8308522819354188,0.8463783502296743,0.8985123882960145,0.9437642958206703,0.904548680782144,0.8535216674283405,0.8343277695850723,0.8295830692174221,0.8506666266189705,0.8640026761679517,0.8927047823707811,0.9540785830960034,1.0,0.9667015027041109,0.9022676998103368,0.8640062976850574,0.855860083373717,0.8299374917202341,0.7687408376102848,0.6914962866023683,0.7022633963091865,0.794149479628245,0.8867496793553474,0.9404925286015323,0.901684594407684,0.8662339798811188,0.8257097832576722,0.8192560408348813,0.8440587381867976,0.8474855826621225,0.8615071341558488,0.9137495160592536,0.9534429594793713,0.9174605141282751,0.8527453888358606,0.8098178395427736,0.8076878227866494,0.791659749829312,0.733247270721039,0.6472713856601492,0.5535023369585425,0.460142840470818,0.36552949950116365,0.36413929548313984,0.45896102200676847,0.5546124747028266,0.6507886141764322,0.7456742097257664,0.8330968876249706,0.8550285039330873,0.8165125576712747,0.7874263675311569,0.7670680549652548,0.7977471108526363,0.8130726286607176,0.8274406038542151,0.8717000675355132,0.9311218466498047,0.9490322194956528,0.8951861867044647,0.8375356291642292,0.8283312449478341,0.819569687931997,0.7817560507051974,0.7079912328645576,0.6172515895471905,0.524365050598052,0.4461811697447179,0.4887923570678886,0.5886145178309586,0.6844029495894991,0.779245012380594,0.8602093329315584,0.9151170651235933,0.8785048082537402,0.8379371432301282,0.8016314525824318,0.7809831888830124,0.7985504876740145,0.8131252664833074,0.8486014323438807,0.900980982258284,0.9608105109440436,0.9684553057496214,0.9094308325641561,0.8559349335152818,0.8373748952523407,0.825278489756546,0.7832961688129466,0.7078521645039922,0.6170768307099116,0.5520688350598065,0.6145431600053771,0.7147576864126025,0.8084884083264458,0.9017498211730729,0.9600085237374104,0.9211680399632393,0.8780529832768303,0.8471409820249313,0.8399213528507671,0.8642985798523409,0.8706882712289438,0.8966992093612441,0.9503584655535259,0.9961818343227894,0.9698542967594,0.9070436055244583,0.8595545775464294,0.841528865373219,0.8158166311863092,0.7618513759169222,0.6827968043177907,0.6498172895964357,0.7208913019508253,0.8126040470818882,0.8799173292969343,0.8566149230870538,HB
0.8493713509042048,0.8741382335943476,0.8546049544578062,0.808263908090236,0.765739578372096,0.7226468523913133,0.7011443659652873,0.7216749646406359,0.6984359105959294,0.6244210132877961,0.5423957679854973,0.4613148157729857,0.37914006247455434,0.29493338139265357,0.2147334407115684,0.1316457182115508,0.053303090477508475,0.024571791350271488,0.09224693803224598,0.17260102239062725,0.2555676474330717,0.3403909877723864,0.4249520496731336,0.5056339869985549,0.5883419784446255,0.6731297825381829,0.7559210631545205,0.834234828801624,0.8609354418841445,0.806322724175644,0.7635830964299267,0.7336769939196325,0.6861051532294774,0.6274149550580591,0.593649022899834,0.6248487512034988,0.6793411077629786,0.7174824637312688,0.7345858399008259,0.7365114768369693,0.7228851214137823,0.7199772217657338,0.7460017453456181,0.7112687921919446,0.6335808097287438,0.5522061787880804,0.47085533818615943,0.38897956105529286,0.3076951890234356,0.2239638819000761,0.14389149458762573,0.06355300045527268,0.04105437467558826,0.10778543201703278,0.19031787930105148,0.2751050053924582,0.3579660301375852,0.43853246890855657,0.5230490225180991,0.6072259817181541,0.6873692136865369,0.7709507886725057,0.8507641658798654,0.8681010142792563,0.8210765023030818,0.789228974791046,0.7502394613710711,0.6912152710562464,0.6348801703221708,0.6171366691119369,0.6623754684721751,0.7164596177636343,0.7456981752292996,0.7509847718216224,0.7485716271740325,0.7298820539314855,0.7292452161907114,0.7538478112359891,0.7085012658817259,0.630244083872585,0.5492703224243051,0.4670928399546508,0.386122312100708,0.30148332763891394,0.21663841611137935,0.13181189672253335,0.04936170784203259,0.0,0.04704301692663093,0.13026540700865913,0.2111273220730363,0.29361156140911726,0.3784171441636749,0.463212848544281,0.5455050176570725,0.6265324809762101,0.7111825865368168,0.7957368579802157,0.8754841766391056,0.916945345073145,0.8651272523826458,0.8201934417577982,0.7900654445101124,0.7404820790747019,0.6804402817238001,0.6271675034622624,0.624741036910315,0.6783668476903063,0.7390077493235262,0.7741993841930236,0.7867159769865691,0.7758681827318806,0.7569316447796991,0.7565007408950425,0.7689480077577729,0.7153314823734104,0.636237685919567,0.5519448213187442,0.4671010420651026,0.38233839234324385,0.3004996147817457,0.21906238438368775,0.1354149645618965,0.05847891537471639,0.037892230460671916,0.107302054776173,0.18780092571689444,0.27232878378432834,0.357143479823659,0.4398488346822219,0.5205351912506926,0.6050943599118954,0.6899266061292243,0.7732490012119434,0.8531677299930919,0.9094730942658461,0.8674846258558674,0.8160071331510067,0.783380691303457,0.7399086533304772,0.6827165092234221,0.6263229287326022,0.6095521284987895,0.6572305382455651,0.6816160473311373,0.6438822375824369,0.6523042767561428,0.7101407095959132,0.7634913835598537,0.8044290586899573,0.8395772483769263,0.8978287472297891,0.9670807983898552,0.9996561627323858,0.9423327558990787,0.8608603290858917,0.7808044936082444,0.6968249794460463,0.617047444254611,0.6083139237241468,0.6825662715529718,0.7591698997771233,0.7985867570280597,0.778155395813746,0.7795387997042039,0.8009162443220802,0.8072070593600446,0.7933301363482309,0.7572063301752162,0.6986685347374021,0.6552405286279301,0.6898568924032203,0.7497141325155584,0.7999079027744459,0.8330513810223638,0.8742821581692987,0.9401865590946831,0.9999999999999999,0.9799013656974948,0.9087085085932959,0.8285376131184788,0.7442131710093766,0.6630425584142138,0.5809116192409989,0.49612627802632103,0.4113051968926801,0.3346941051342198,0.3464135120156826,0.42740667459244197,0.5084292279211978,0.5900546958903455,0.6701218724514818,0.7491018890690934,0.7802918691648512,0.7571085756410852,0.7586386806539954,0.7733724904542888,0.7749503708552897,0.7631678174306215,0.7305722133947931,0.6781581506001361,0.6509799482463982,0.6956839834561269,0.7531085389692916,0.7992937528683038,0.8262894914105753,0.8673506846413371,0.9363762622470592,0.9781557334966641,0.9293538988742013,0.8496365621890444,0.7656838614874525,0.6855144955633733,0.601973031455133,0.5172739804452234,0.4512292573366833,0.48936571834424103,0.5715100491788795,0.6516167443493969,0.7302222630898222,0.7782102209008942,0.7634506427432152,0.7415759794809057,0.7561421124553706,0.7588852795405573,0.7499237536826121,0.7287634801662352,0.6858664258767823,0.6336279234045583,0.6353886865506351,0.6904740531322883,0.7418473938281896,0.7733684633286625,0.8116464790716283,0.8716497351535509,0.932328090842106,0.9422145654458821,0.8733859355009476,0.7892561691984846,0.7044158588902124,0.6204029781260486,0.5407704682849189,0.48856483228200887,0.5394889113855033,0.6202982732269419,0.6978253031243421,0.7528766753971255,0.7430007873294772,0.7260684715335365,0.7543591003073536,0.7957291819459454,0.8407470544275001,0.890002547057625,0.9075189910680811,0.8766301261225201,HB
0.05870006857557841,0.08217932682618445,0.11211421935799737,0.11710025921979339,0.14249392009149064,0.18624031298272692,0.2275421167680156,0.2620726374223471,0.26326508316635777,0.2558937670306626,0.2744993513092632,0.2849658177104263,0.2791555317342759,0.25561654635259623,0.23880572479885387,0.276250224545208,0.327046972749904,0.37725101777728665,0.4275047981875385,0.47977699796169826,0.528516231719005,0.5809488029253217,0.6340792166253634,0.6848278378465679,0.7345930789207701,0.7876345955322562,0.8407069365271135,0.890046520921962,0.9107555339562089,0.8687533246380873,0.8200028325701935,0.7681993859596706,0.7190773574678647,0.667561625965818,0.6157520636195063,0.5668119081583539,0.514053744145687,0.4608817135407256,0.4084410763780796,0.3597409130640704,0.3099727776988698,0.2648872486118031,0.23037327815995712,0.21497547942436102,0.19608305939249804,0.17197663802526364,0.14710900162347507,0.1365242017983751,0.15376956944034703,0.18596657904979663,0.2115827228729703,0.20629390297843675,0.18712644597538497,0.19264813719204998,0.20898026654056878,0.20840916435834334,0.1925871275235086,0.17013148286603885,0.19014991155404648,0.23122686682781468,0.28073598745412454,0.3333614165502162,0.38226343187182266,0.43415824677296977,0.48732558452772057,0.5405001497563556,0.5936747149849911,0.6468039007294976,0.697485730342322,0.7473098724455819,0.7977680275534215,0.8024921069541454,0.7571777006854877,0.7062119663951044,0.6569431406585639,0.6057142367960585,0.5565471773821807,0.5037094806576882,0.4543270190445857,0.413190311609981,0.3625450465322694,0.31360827755092424,0.26405461447793577,0.21627563871024957,0.173156822435094,0.1509850093274997,0.14535157812176047,0.12908856218373443,0.10403526266856111,0.09212715478983369,0.10944509132286595,0.14128763695754132,0.1731822036342041,0.1897439677306325,0.17745247696909505,0.18223818286305626,0.20265808602329538,0.21583486483620462,0.21358890572514388,0.18715973176264633,0.19825806687217173,0.2447090915229163,0.2960066635742521,0.3457698289078447,0.39650233498777887,0.4493268669945344,0.4984309699908961,0.5499888277897381,0.6031499578122473,0.6561978979116886,0.7060119256242322,0.7567061797996709,0.8098267073452462,0.8604188648509409,0.8729608739996052,0.8273885180586914,0.7783768718661076,0.7304797727190196,0.6850800050139919,0.6324249964673866,0.579837542723903,0.5310388263280829,0.47908769723516975,0.42958172175446585,0.37858450585353676,0.3278675404005812,0.27872373752131263,0.23231835217027463,0.19877741553205142,0.19465857778659967,0.19232405288252785,0.16795293143468648,0.12446091690974426,0.07756340699359932,0.03415050531070585,0.0,0.0057058807743198825,0.03626630799971575,0.05550212251711184,0.03304976904271928,0.005047970811741798,0.008561488519453486,0.03809463280170888,0.07013976658603127,0.07555022843043191,0.10158226859462305,0.14445006787511994,0.1913551552846855,0.23473554417725195,0.25411212833511254,0.22842824803661643,0.23683477971270117,0.28623932981767364,0.33938955859137343,0.3911916649945054,0.4401410355924603,0.4928990450448961,0.5444484914377007,0.5928359285522623,0.6375138111208284,0.6874613569189921,0.7371499979278066,0.78795511707365,0.8410816322576221,0.8895665635738558,0.8828543410657114,0.8331739199541354,0.7842805381626708,0.7320610748908182,0.6832196298803342,0.6312198361013103,0.5790108493358713,0.5302382013402293,0.47791152786034574,0.42848993758734666,0.37782873538526685,0.329002098104452,0.27729342815274227,0.2311042792787793,0.20298879438024597,0.18659005106792015,0.17121261070003735,0.14794052397646662,0.13399571496397777,0.14378734841121787,0.17170305154467702,0.19948030998629007,0.19727485293658298,0.17442374921778936,0.1700241891234815,0.18513379991901824,0.19413791008276182,0.18418346120299556,0.15558963448684193,0.16656836523577956,0.21208241475799794,0.26363145122162857,0.3130929239816088,0.36417435348963456,0.4171749514042399,0.46687260559825894,0.5176974625691765,0.5708329002900226,0.6232211530546593,0.6719665623477368,0.7243507378160728,0.7775229458288825,0.8306814891796116,0.8821320273150893,0.9305994670059395,0.9550307849189287,0.9189810156562143,0.8682237649837591,0.8180323164162547,0.7677626038396262,0.7148575750910303,0.6654312793788723,0.6142971964818117,0.5611683011392835,0.5098869959225795,0.46057517948578053,0.4076643515115471,0.3566701135743763,0.3071247276994663,0.2546728188537625,0.2152291937181361,0.2121275080730306,0.2104337701155844,0.19807681599858284,0.19607666250275824,0.2158316223702389,0.2254120185676327,0.2050565608821726,0.1761700730077026,0.15507009394931592,0.16332830088603434,0.18521654027531553,0.20398251916686383,0.2195749334608369,0.2480097339352837,0.29294643666844966,0.3416820922900278,0.3903720039043589,0.4420317955718108,0.49080277342637924,0.5433300893863343,0.5965031493058043,0.649677101610186,0.7024109934821811,0.7512965153530481,0.8025805801088083,0.8513569038547094,0.9033391077334262,0.9527879986280338,1.0,HB
0.9514623249081281,0.9637837663847958,0.9277896880400661,0.8947022207483407,0.9032246043794959,0.9092226403048432,0.8965598994711542,0.8612713536075721,0.8370796146442497,0.8445000109872766,0.860496409999011,0.819444349549903,0.732424633652036,0.644943343047156,0.5610117388319616,0.4780176708125955,0.3910354396799197,0.3019949826734377,0.21470522446433782,0.12468135600081065,0.0405425913213836,0.0,0.06516975223378252,0.15167536183863672,0.24475938872458713,0.33873427203227957,0.43077563610278513,0.5177157604560118,0.6102819246080157,0.6909461403627232,0.7693888191918227,0.8529269199381052,0.9164226752981303,0.934256211294488,0.9381998274607463,0.9527920308004697,0.9355844482649897,0.8973894793350349,0.8810372141445529,0.8910994320510904,0.8978909358840564,0.8725617238124518,0.8419099815436067,0.8487508945522254,0.8722024507738445,0.8519384300024943,0.7791297012548629,0.6894148702117343,0.6009239276787742,0.5184390074828619,0.4321772047403255,0.34503448515337365,0.2582864621580009,0.17059353684212253,0.08929600311041108,0.07481506457901888,0.1533542718870985,0.24716464822941897,0.3371557995937694,0.4135474247220804,0.499925840376208,0.5933599734975316,0.6815567985676464,0.7706715502545468,0.8529438147994205,0.8961046426495695,0.8807379496761188,0.8767087203814289,0.8974779690880071,0.8917895360408236,0.856625045860495,0.8640522134198244,0.8926522393601145,0.9150203222104715,0.9083155614917829,0.8771300078312717,0.8641155624576843,0.8835178626923613,0.878071425315975,0.8079830038621144,0.7166996258669237,0.6295204658009431,0.5470660336614709,0.4619180885687012,0.37173580434240516,0.28492521937934934,0.19512734538205612,0.10853470826333311,0.03580739146222689,0.05257933315703778,0.1414054284233084,0.23536635660722294,0.32709007565819614,0.4141939923692305,0.5075000547508047,0.6000338359295522,0.68676890214633,0.775949335495779,0.8619890665175608,0.9373274217469417,0.9669831124187035,0.9594968929432756,0.9607982767979951,0.9543745399709543,0.9107711336571988,0.8848469880559166,0.8958124658182863,0.9019300706877799,0.8840941888715143,0.8537704269808873,0.8485907246872976,0.8779365955706048,0.8901022580210766,0.8315978282524755,0.7469655790216435,0.6567575820161674,0.5844155983295299,0.5050611488186633,0.4193539054362819,0.33063091164811864,0.2428709111147822,0.15541849453183032,0.09728019032981239,0.13658687096995503,0.22797798300375893,0.321961218106937,0.4159392558119007,0.5080737234404379,0.5949687752674943,0.687706248894714,0.7753271871141035,0.8597884781434789,0.9243301665500593,0.925610511006215,0.910772438271186,0.902885218244622,0.9235281038575153,0.9464631589967895,0.9481693670498025,0.9546535367365755,0.9699222258112116,0.9467112907960079,0.8704208705061002,0.7860055631447834,0.7109008667336422,0.6236760531220421,0.5343583876291872,0.4408599068971836,0.37779167919890855,0.43233321740453323,0.5177886733104501,0.6022462893195443,0.685655504806972,0.7697815945836411,0.8530413351410108,0.9190531759437616,0.9249361884549209,0.8949033764708322,0.8782196008945068,0.904671181494166,0.9271893639577916,0.9363864874627811,0.9245871174410009,0.9273963576589462,0.9716791669577928,0.9955063461768755,0.9867400571162571,0.9916642474310319,0.9967775723002291,0.9751434086580529,0.9089637109717789,0.8213964464826943,0.7287912167761169,0.6420140147569217,0.5494032208230989,0.4565017850784695,0.3698016295027716,0.2958468857499793,0.33524572736288183,0.4209333389107307,0.5096038850442682,0.5925955043906918,0.6753272815823489,0.7615536584878989,0.8447385666786494,0.9112830452671924,0.9203928453440445,0.9028559749381545,0.9086144825528818,0.938230409984833,0.9464244579746351,0.927738197045617,0.9001417569886155,0.8875435941344872,0.9224887893366626,0.934247930871058,0.9150370757258272,0.91127954318069,0.9299896725284326,0.9161533946931396,0.8487249578817152,0.7585145905198959,0.6716454588815616,0.578636645880055,0.49010634186391744,0.41590470476418584,0.33872282935866915,0.360084940349254,0.4467289380897682,0.531125689866817,0.6125686754584688,0.6873192633912296,0.765711377497105,0.8492381780235959,0.9031050165888398,0.9107741957742134,0.8854568046836312,0.8875571615088201,0.9157942379664538,0.9339480685419249,0.9272591072704249,0.9150523323082794,0.926943428323051,0.9643908699123712,0.983371808544154,0.9725285339986051,0.9683606317654271,0.9634343330359104,0.9300586188988537,0.853356252187618,0.7659111127397317,0.6722546821629952,0.5816029936346564,0.493738886620828,0.40009073128763706,0.30674135557688353,0.25316795514439294,0.3135862510766324,0.40211962669144385,0.4888227746654855,0.5733630135469433,0.6564440747165027,0.7406807063359676,0.8231021816799454,0.8855840722065697,0.890372679784969,0.8743421438770141,0.892689236176529,0.9264492747940934,0.9393017792948307,0.9353455577134576,0.9311346940873969,0.9685056573992025,0.9999999999999999,0.9874518426478597,HB
0.8393721349526175,0.8537851030146135,0.8556959525472541,0.8369037619510837,0.8101710785555414,0.8141245552336431,0.8532076175585783,0.8841207467259145,0.8399104638970945,0.7478514194625365,0.6466568025988981,0.5514184772113573,0.45140280670522603,0.34827946497818396,0.24664803267691893,0.17761012373395269,0.21667968720706288,0.31047974136120393,0.40486456078314026,0.5044646037881939,0.5991529639149911,0.6993338407014031,0.7938730783745243,0.8861489353475915,0.9117302106276428,0.8863274702460278,0.8546694602313936,0.8066592326349822,0.7581237758218138,0.7494091704332684,0.7928139320531273,0.8397519069840225,0.8608621121821047,0.8591543849879408,0.8432369144459,0.8102162035468512,0.793236823527258,0.8286608618893354,0.8682500504671549,0.8379972029136304,0.7474796024018386,0.6473604556481072,0.5491526483850548,0.45256413654473837,0.35816800634337653,0.27067929106978483,0.17696656310549264,0.0881740461493079,0.08570063535587602,0.16915529426322062,0.2629825487562343,0.3504626813925211,0.4386872563990023,0.5349279679703169,0.6378132771468428,0.7409423518911262,0.8403214280357933,0.8962942986027749,0.8814858667866692,0.8598434117619185,0.8305277590885234,0.7892741285690856,0.7761414302128575,0.8095182629968389,0.8621400364578418,0.8809243513093021,0.8852414809868729,0.8692825699047011,0.8422516344365871,0.8181999429642448,0.8388742781609855,0.8795099887013398,0.8869977834671432,0.8040482985667938,0.709559947802441,0.6075940667698416,0.5050964450615245,0.41100037114068444,0.3260880801931094,0.2304354435110998,0.13520987479669722,0.055493458049200806,0.08303897688895345,0.17407841613752462,0.2710027441470224,0.36822108862988445,0.47027058851883763,0.5650530516299017,0.6658103011891874,0.7654499182671897,0.8597444894706887,0.9223307693177385,0.916047103688983,0.8946151056186884,0.856671501535013,0.8070412283213346,0.7635516095477215,0.7744958157217132,0.8263050243947287,0.8674159131567127,0.8751466170985178,0.878157784346294,0.8650217988886222,0.8361260859118627,0.8078925923784328,0.8345290588447691,0.8783814180352705,0.8682970376136587,0.7761253744877707,0.6768228732631152,0.5810775132169859,0.47847593653017473,0.38076671143795426,0.2835499459139674,0.18089370941109162,0.08485208237878927,0.0,0.010788266818529735,0.10011161676841374,0.19747914910967723,0.2939189581063728,0.3923049220975321,0.49388245692288635,0.5884351348777093,0.6900115146820665,0.7931479624261635,0.8915618015987727,0.9282756112401411,0.907698018380183,0.8770621087999553,0.828993971225104,0.7781201712513002,0.7491561618737519,0.7843074658516309,0.8350836612270567,0.8608673888282636,0.8698288736463871,0.8779844325922148,0.8677396864012523,0.8902868051157409,0.9190401536375068,0.9126088411230509,0.9043219434185625,0.8942072401829095,0.8568484762502284,0.808963681380092,0.8075484645335258,0.8586775284473447,0.9026453810238786,0.9359287810875401,0.9607874911113647,0.9868888767824928,0.9479432410374389,0.8560850333088752,0.759293185185028,0.6576085969225327,0.5630092697265539,0.4631378809014315,0.4195539858952133,0.49555890811723025,0.5974222338989132,0.6982219122047466,0.7929898560085453,0.8930773852430951,0.9779957979403608,0.9898747777283958,0.9372258035618359,0.891612109082218,0.852420169265204,0.8709010355598288,0.8980326959336065,0.9152527118216751,0.9157545014904531,0.911606631632401,0.8912197961780957,0.849625158484784,0.800670756912655,0.8217909172252331,0.8720184018140495,0.9136077561882694,0.9406140327679857,0.9687551208178387,1.0,0.9483932093539695,0.8541592225406585,0.759614116885329,0.6587766739279828,0.601385919663838,0.6723444707876667,0.7732855119713482,0.8674542741260116,0.9592524884178983,0.9975308822806404,0.9450103329906749,0.8980229323011377,0.8596686774424971,0.8666648821559191,0.8943821307346398,0.9187059071819821,0.923231893861612,0.9086271254826188,0.8866693386543252,0.8352739323402163,0.8197082654861483,0.858775409801497,0.8862524570341213,0.9072692650313099,0.9355882158277335,0.9633936245326393,0.9040297444514274,0.809334974812274,0.71460860946357,0.6152365783950715,0.565434287065014,0.6374648080766141,0.7361940755246876,0.83115377349699,0.9232198974674883,0.9565638618951833,0.9118959974805225,0.8677706137578147,0.8347049154225157,0.8579510255893759,0.8852180191711119,0.8958749680395308,0.8897592031988708,0.868251572542843,0.8236026442582016,0.7834207192102187,0.8124034504350208,0.8631193346487678,0.9041853964687541,0.9317089828458194,0.9594609937093326,0.9715678162038892,0.9013844813276284,0.8073179484159465,0.7281211345700589,0.6305805681037902,0.536083236555357,0.4486084221176969,0.4789458880326969,0.5789670309583619,0.673763066092032,0.7740383422200854,0.8695933350746872,0.9573912606502808,0.9609740892192025,0.911383593416432,0.8700236387058715,0.8483563311897753,0.8682060090380801,0.8840747272824274,0.8848007695766127,0.8784569126178827,HB
0.8546275261443353,0.8334416497216096,0.8582172038496599,0.8984768285908548,0.8881535006941058,0.7983863545610125,0.699485239848599,0.5972992842933021,0.4956441085723936,0.39486660860000167,0.2906664166323104,0.1914758563121528,0.08860081956684207,0.0,0.009904653336326397,0.10556228223872699,0.20608218262645783,0.31129292627983185,0.4154459652948965,0.5146362235684315,0.6188941457620941,0.7208897413893541,0.8207762219495879,0.9158030784558263,0.9470719132471207,0.9313136131886476,0.9003405130959562,0.8436413329326912,0.7961938082258603,0.8131929575112903,0.8752356562298153,0.9016966176940918,0.8843124438385922,0.8592151280959802,0.8604163597723374,0.8990212278232163,0.9095379750736466,0.8301106295064705,0.7305525123329447,0.6306151602730602,0.5303865787494667,0.4285130250976884,0.327139019728668,0.22618296346312672,0.12474217901264917,0.04832545278695899,0.09153447812561599,0.18907766407027882,0.293733921947294,0.3954464420701225,0.4962261744247968,0.6013660630634962,0.7009669590344015,0.7862593455079115,0.8718242536060669,0.9366702281375147,0.9260930730515592,0.892116709228924,0.83946842353824,0.804977085171862,0.8319245272427979,0.8508484968473086,0.8515609490880042,0.832587360028019,0.8518530570433357,0.8965625875775732,0.8747717200961381,0.7824696675268988,0.6839725775548006,0.5827407774645302,0.48297732737599397,0.37849518994868825,0.27887786264941383,0.17574157371057975,0.07271174903980326,0.028654163242947228,0.10194960524821917,0.20421133914236056,0.3076586958123184,0.40707442024476226,0.5118471456973129,0.6162849322929455,0.7154900547614612,0.8183560633645802,0.9071588040889856,0.9308453254960806,0.9078011365640469,0.8706276346446092,0.8510537413006235,0.8768874282442681,0.8918133231165576,0.8931372746449745,0.8809493213899701,0.9032222175073786,0.9328770780356074,0.8720825829482611,0.7681525635279712,0.6671807296232583,0.5660848029589892,0.46632656366662883,0.36384587694412596,0.2637351400883947,0.1624036998045616,0.07849121284326088,0.0997460423019162,0.1972267240573572,0.29706086805295606,0.4018250901789431,0.5021922130823014,0.6043623335408309,0.709747434495101,0.815094741065589,0.9143141807116987,0.9615939105335477,0.9393201981832685,0.8992596376311838,0.8689102645721941,0.8784556490343897,0.9038899205787764,0.9116444853824207,0.8990669474045375,0.9066534557634708,0.9357719458262416,0.8836749522874993,0.7879581621729149,0.6862522285195704,0.5868245629693244,0.48419501661457176,0.38476329730232883,0.28387895684165665,0.18293780909623347,0.09118149254841879,0.10430526170387822,0.18997031493536698,0.28498187346473447,0.38904948840582076,0.491328698559094,0.5915785764702998,0.6944669906605333,0.7938799114663903,0.8918849667183658,0.9411392913959077,0.9178387867926029,0.8710606211851045,0.8282131266901797,0.8342986034157448,0.8696196858376363,0.9184464182602413,0.9569527974404314,0.9813662050155917,0.9422957759532463,0.8475662493166464,0.7484264951191221,0.6452881450354929,0.5457368556401355,0.5046325773824164,0.5837271846988042,0.6885609508977811,0.7930007758510426,0.8901732586039334,0.972348528249578,0.9790367229163698,0.9411109966092382,0.9357425215447258,0.9470813241682462,0.9363423296941634,0.9136663985803642,0.9053609721280284,0.9414641469334003,0.9765756230679793,0.9952598125547193,0.9479755821292303,0.8581990945236803,0.7711682858655743,0.6773664233607907,0.5835870715087293,0.48290805973801654,0.3875438565575329,0.40151978648465503,0.4995356493595472,0.5995026209044775,0.7009694876550941,0.80131530985526,0.9002519318334904,0.9776809624805499,0.9703825128159408,0.9291948807394771,0.9162313828014071,0.9312997638995252,0.931289021637045,0.9145184364111428,0.8928694860223415,0.9244370920080386,0.9566529868686781,0.9746520043772952,0.9424943219543959,0.8522947569176543,0.7516691119276894,0.6522811900773028,0.5597416200521633,0.4755872638459321,0.435606805313701,0.5168372739713191,0.6162576226168764,0.7194220683731191,0.8235830190560393,0.9166791640608222,0.9609272734344433,0.9211569404275023,0.8830290469655474,0.8844400642685258,0.8924922180055371,0.8733294934131742,0.8478049024893412,0.8903605557579931,0.9419645262681152,0.9740525617312575,0.9879665512171903,0.9275249096237469,0.8308439269953153,0.7320978858579629,0.6284492984898048,0.5261154139430936,0.43727324221842245,0.45640318399381596,0.5579265697049919,0.6631338151137823,0.7636090618335688,0.8631558635383269,0.9481848759367674,0.9565107754559617,0.9147793197888904,0.9053684728392529,0.926081651548227,0.942628678458178,0.902863293050968,0.8478178073010819,0.8716303290466326,0.9263589707262158,0.9684616686112447,0.9999999999999999,0.9665151174959327,0.8750000708888303,0.7711488114860064,0.6657500362046044,0.5694237865442558,0.5714517340064279,0.6661694331267062,0.7654603919887336,0.8642847775093857,0.9483156361599546,0.9562430249412216,0.9165899112201389,0.8890712179874255,0.9139224132178557,HB
0.0,0.04133725163368718,0.13100125910505733,0.21781196978151796,0.2625408235660305,0.2919142939480248,0.2847889724597561,0.2567121263251173,0.18117831954791042,0.14164398350264973,0.09556447145988622,0.10295883405396689,0.1579178076372303,0.24714776680057993,0.2897249852422208,0.29819490167021323,0.3200141649299977,0.31281416236114135,0.3288882748033384,0.38692640203173667,0.482432568926046,0.523971515288165,0.4432133055502776,0.3432852579415382,0.23824473954350767,0.14733403967601433,0.14136893567545838,0.20633718675261026,0.28652242160991204,0.3440861686413865,0.332078444409619,0.3319976699745628,0.31171829596849054,0.273168138882772,0.27388100880067556,0.3189948785686587,0.3794195383594863,0.44559163195233165,0.49807158271996643,0.5427130386734325,0.5694815990241393,0.5548949350550454,0.5580669428072667,0.5929926452082972,0.5905875970263654,0.6270598105782001,0.6267951789734449,0.6290694907545173,0.6996480813227248,0.7970688709620548,0.867591281146681,0.8058094212235121,0.7037537359565942,0.6008358285050264,0.4969949381068144,0.4156228986577388,0.417593616317824,0.4796060487146092,0.5531547570975732,0.5463130707890373,0.5133591926508747,0.46417950817247267,0.4189318583015238,0.3711542230664153,0.33313988837778696,0.3487657128832664,0.4079379335103894,0.43964957473869193,0.4551790374527531,0.49288694853958637,0.49625800346051907,0.4955767274091265,0.5104621733916863,0.49666544488420294,0.5305052579025022,0.5718874511849648,0.5756372463571324,0.5736243358960826,0.6396182382891995,0.7160116823243965,0.6663566919109298,0.5645895089091622,0.460229019970515,0.35563710980775776,0.2827241948791164,0.28760795037781506,0.3495487339949106,0.4447843366509887,0.46758933440246775,0.4392425939112421,0.4063407585025871,0.3591601625644194,0.3046838789248967,0.26245695472064146,0.23666790989647835,0.2576117322165188,0.28556721785629735,0.31245768285374265,0.3276835848177946,0.34575521947884,0.3740347878919974,0.3941886961677947,0.3874306914620389,0.40947685936429545,0.43338873087155916,0.4546027568313664,0.46432251414343106,0.5404240647885952,0.6438510582914141,0.6474078337190043,0.5525772829149971,0.454829370097098,0.3573530939094436,0.29505398488859,0.3303959350697525,0.4050253125792538,0.49769572885996816,0.5627112979064841,0.5612815242789986,0.5448143949454196,0.5111909388793281,0.47264738544935847,0.441013330329159,0.46454495220939807,0.4997083802824873,0.522372435906068,0.543087142123821,0.5466393711055719,0.5511321620800347,0.578183001413572,0.6213363959418037,0.6275949473176432,0.5976797061674692,0.6032908948268836,0.5897852902739968,0.5696510237868471,0.549421894467351,0.5185182687489438,0.5359096448671488,0.5763395634251478,0.6126771293581874,0.6332441174856656,0.6362051539563573,0.6501702697821683,0.5831109947703537,0.48730723103731677,0.4306306508537774,0.48951481717141876,0.5884926550131646,0.6854608927919106,0.7767081548034249,0.8128293513071583,0.7422307822919545,0.6497401213324308,0.5605866900578178,0.5235994824502819,0.510092689259336,0.4910356463228287,0.47180742458812297,0.4710036205766701,0.4389926017102157,0.41305298733722884,0.3866079386687886,0.37018189179899874,0.33636760620237194,0.3135666816979996,0.3215378173522958,0.3603817049469882,0.4145421178700248,0.45972092591776237,0.4967041685727178,0.5368560988744169,0.5599119235785226,0.5000901030983633,0.3958550243949035,0.34893657548867063,0.43017858062983505,0.5352098668752565,0.6378617094477121,0.7343325780258319,0.8234290417137089,0.8653181925747035,0.8051839751203045,0.7099379333723017,0.6373804948272279,0.6245173735204625,0.613440813516029,0.5721073915427608,0.5652183778487259,0.5572127444986679,0.5602629224902338,0.5577411216662678,0.5214687010076591,0.4921162863008606,0.46287449054739804,0.40960318650368244,0.411796761909641,0.45737590543462536,0.5043500895930242,0.5502756190569542,0.5896358554529049,0.6331655072456042,0.6707365463498061,0.6158121654615183,0.5234610904554744,0.4830165843216463,0.5609986800279314,0.6754856411492054,0.7864818358152075,0.8851650519323244,0.9697808082749253,1.0000000000000004,0.9326545701718341,0.828346066114606,0.7331572600923164,0.6794576829919499,0.6791749440299975,0.6758410049140298,0.6510156866629893,0.6516056768495533,0.6220727578797751,0.6302875425682939,0.6340044332388945,0.5969005275769756,0.5526558431375337,0.4976206628406774,0.43797272108129714,0.37632543399165375,0.3364931588886355,0.37109799164609836,0.40655153876205796,0.41706622695131434,0.4272823619791546,0.4640789323705472,0.42386512900279216,0.34358645376515895,0.2688148184630399,0.2989738201633436,0.3990831222953237,0.4977846926862841,0.587616232879955,0.6606351373054338,0.635983473277014,0.545250282559294,0.4469692874359117,0.38948533048379197,0.39775133708755206,0.389770384263167,0.3552030948156921,0.3578713227337196,0.348548246889155,0.3653288690172576,0.36156866868377335,0.37098572757679893,0.3889156754580787,HB
0.24485129788074267,0.30944017861560424,0.4058226926634301,0.4705504787766428,0.5470408111950189,0.5989646435548501,0.6083308116920134,0.6021318991869051,0.5788349986945407,0.5962111774415708,0.6605483645652528,0.6904885588911276,0.6146887173751316,0.49813320657543847,0.3730862087058131,0.25272361695125967,0.1273957241497583,0.029169627622896988,0.05916459325202128,0.17263019861067597,0.30070908944032504,0.42167090147806197,0.5498333223672696,0.6807629903844841,0.765759015259664,0.7394501319423303,0.7065762447566148,0.6641965478461127,0.5955920980761962,0.5360883451074197,0.4899662099051161,0.5145046558875721,0.5827388785635581,0.62566187027405,0.6413455569806177,0.6207358893655452,0.6074791817181857,0.6543771781996985,0.7170311375342335,0.6982654062905504,0.5947138141607307,0.47472799052291426,0.3511694735891153,0.23001235385722274,0.11458258024160894,0.10255189638497608,0.21038211740361112,0.3304434446513296,0.4588229443626355,0.5792306604181758,0.7061844488858735,0.7825628831957239,0.7556192289979917,0.726365591676829,0.6764506227319316,0.6095228548096798,0.5359484669417915,0.4851401648572684,0.5066177346721135,0.5730614742883524,0.6203990840881934,0.633698699436237,0.6078329168638745,0.5928571366399595,0.6331879863965126,0.7036836075453896,0.7364726358372373,0.6596160786506309,0.5319283909174912,0.40681250431714067,0.2835531419722688,0.15898700275771716,0.0429115005212557,0.013559408011696972,0.11240755093581734,0.2373484136320052,0.3593385056907301,0.4887093723743192,0.6083636144491351,0.7193084150934024,0.7975913778636838,0.7843697768624851,0.7531989111249267,0.7081984617743176,0.6374172445356263,0.571832699199651,0.5326691206521839,0.5653618753563354,0.6303155504357838,0.6699233280941927,0.6807327789055118,0.6567873138974372,0.6463462381192187,0.6932737949279903,0.7602406659876924,0.7693659936628945,0.6768450435906244,0.5584029032841824,0.43528370066362876,0.33406397289399936,0.21444231001951208,0.09239438615785223,0.0,0.04833964198962537,0.16612861058606998,0.29344023042246126,0.413896180917962,0.5313537325717961,0.6393484566485526,0.7621652083797439,0.8672486561798627,0.8561956391653964,0.8220402642190503,0.7787462465607937,0.7183364241368253,0.652125177186065,0.607041707228759,0.6277606008942127,0.6985702374113962,0.7449446490978657,0.7520616624520737,0.7295293547778889,0.7036926690925733,0.730175221361707,0.7871824967542012,0.791184790216277,0.7001651140654934,0.5839152036446336,0.45417860167451596,0.32246974422361263,0.19422861777141676,0.09319855821507161,0.11612647488325689,0.22849010172371353,0.35406137703116003,0.47473427779772215,0.6047313076597749,0.7266777606235293,0.8319710423462598,0.9027821172456896,0.9674180300941171,0.9019283037959303,0.7836310450450987,0.6572515004015542,0.5369459305395801,0.5494577969676369,0.6480515801544791,0.7589461747525748,0.8465182699437037,0.8478814430985435,0.8028454493595605,0.7605838504665547,0.7785530446344946,0.7965909644334241,0.7919127814099343,0.7718399873054544,0.7101243482357165,0.6534398214856456,0.6849972402774356,0.7534631850737863,0.8136321910270274,0.857690862034701,0.8928184890028568,0.9580013772034295,0.9999999999999998,0.9174571461637762,0.7886561107140022,0.6569303896813141,0.5255149074513026,0.4304868044485868,0.49755103696121794,0.6213234652666568,0.7372635386307922,0.824756980226043,0.8308531970773763,0.7841919707002301,0.7154718543295353,0.7044360694245875,0.7329933289550559,0.7286533411252141,0.7057530510297856,0.6537650076443928,0.5964318304086798,0.6157380623277275,0.6852918390537182,0.7496621885517192,0.7962869293516548,0.8265829336046429,0.8817358027584918,0.9376471335831618,0.8704155940438765,0.7484545714885724,0.6225008538780707,0.5001212510645641,0.3841573438667061,0.411796328459036,0.5298348348484361,0.652073661790338,0.7544324122075425,0.7893948772541786,0.7546522976996008,0.6870467729963996,0.6496813098174437,0.6712821576777832,0.6838111800099369,0.665410329116735,0.6262286840020284,0.561839809715903,0.5388899163002618,0.5991034507228779,0.6718073504098496,0.7339694971826962,0.772928567444058,0.8102827441042091,0.8821521003149118,0.9199372723642221,0.8360824375299074,0.7146093561131048,0.5934379971725596,0.591004683217567,0.6979242017339786,0.7735054740752163,0.7712811215607347,0.7174694862765694,0.6587332872243408,0.6665236438872981,0.6879208141955073,0.6748486152304827,0.6485387457444587,0.5931136360962441,0.5466604340803392,0.5865163223963876,0.6509985951893447,0.7148773422033303,0.7494950990310374,0.7878474603830752,0.8564794436250815,0.8850643533436895,0.7871439372879572,0.6653162045089116,0.5396305955025789,0.4280049584332357,0.455124755769974,0.5741732180029169,0.6825575138127189,0.7450279933076913,0.7295021081329816,0.6724908344380871,0.6324292842188093,0.6494880051582095,0.6617667268952998,0.650120826408392,0.6117456664281853,0.5554747862754572,0.5621348459653206,HB
0.33353645507475066,0.37915893700937237,0.388159517477666,0.41201209844128467,0.43142497215807246,0.44931159064290277,0.46917265528876767,0.4739467519212274,0.4950954409159179,0.4980053172949573,0.4367734191899492,0.357080443956237,0.27481038924428597,0.1929906461503656,0.11042341391645588,0.03128779369641027,0.0,0.06196094853729467,0.14395346190032282,0.22092190026450426,0.30037797300059405,0.3841717578386357,0.46590319854325984,0.5511624555541346,0.6344988604006174,0.7166417242622183,0.7849777423018798,0.7532195891234825,0.6812676116160457,0.6065390849652676,0.5331494054839814,0.47863033826958606,0.4460946999741879,0.42610401518588975,0.43571594843520495,0.45447629818587737,0.47576250011971805,0.483958807732863,0.4980788354222038,0.5191260025182594,0.4934975272086601,0.4183039248384433,0.3369829206813412,0.25574125710376056,0.17278644978105667,0.0919055513917299,0.01943206563451022,0.018237665606678888,0.09264570360873131,0.17512020312518267,0.26043433391508103,0.34251603205809616,0.4260725144503619,0.5111287602410164,0.5926115228889044,0.6770048248402349,0.7482551374037738,0.7230610509115987,0.6523869219345415,0.5877180253991099,0.5203712027435095,0.47513642155974684,0.4470762822414885,0.4317545019523917,0.4491213517263805,0.45354956575590283,0.47258890135120685,0.47917121500193965,0.4965550474573793,0.5145522556164428,0.49489281416424263,0.4293762027618248,0.35015343299878227,0.26677463889218284,0.18542757358585787,0.10435778854748395,0.03573967862784583,0.05155518980733159,0.12721133528259226,0.2018297340380995,0.27336407652124245,0.34246133626359904,0.41419963971061186,0.4960579775659814,0.5815959747226216,0.6652129081898528,0.7456626224044143,0.7791151499168087,0.7109849285346177,0.6292514933651223,0.5550708692720476,0.49473581385559057,0.4558486767992153,0.43261125208272494,0.42125747071705427,0.4396645592636243,0.4518020453856291,0.47090327085827316,0.4741664894994136,0.4925363865128883,0.494965495160462,0.43494740160832673,0.35466603801795255,0.2724135582119233,0.19905426651332198,0.12032257875670865,0.03902791207349826,0.004854005089864832,0.0645289761000199,0.144812157463506,0.22918494047147114,0.3134606614119338,0.39503474206711847,0.4802336523573751,0.5657175900907097,0.647973304275758,0.7312860371736987,0.8066909072012778,0.7893428541912628,0.7108614362913217,0.6321472144600608,0.5557053802608691,0.49306245110951213,0.45564573147176984,0.46212461972991775,0.49991536887923244,0.5630056636023522,0.6392464689864865,0.7187977725145964,0.799063450372673,0.8788756778142643,0.9550412200692797,0.9989578800599048,0.9504509151356071,0.8744584571690754,0.8145068062274219,0.7566530050750073,0.6885290965481461,0.6063832615960323,0.5208881582122467,0.4381188505255968,0.35531571990448724,0.2697667370458519,0.18582404051912077,0.11013779992478306,0.11143496246041434,0.18567791756968904,0.2607631725764132,0.34057790848029496,0.4252954809501645,0.4998289005116244,0.5243442948036545,0.5093185031009071,0.49807883150866034,0.4964739291953289,0.47413993589926057,0.46084932268325757,0.44821619628859616,0.46729060514562953,0.5013459584707936,0.5590825309515255,0.632613576625888,0.7101685461001763,0.782002713993531,0.8599248394914305,0.9381616876139107,0.9658471082895104,0.9001724537853626,0.8182017834619424,0.7349519383135501,0.6527645170957439,0.5675799628267939,0.4856989187316096,0.40188658322699206,0.31632702888922865,0.23339316735489485,0.1584883384580495,0.16608478197229243,0.24702807578354863,0.33257940249157775,0.414236373310452,0.485089269604329,0.5351399804700026,0.5348368620419024,0.5127429712308307,0.4995621596516428,0.48709651662407855,0.47821076626712616,0.46030341758862187,0.45951263863209296,0.4792361898615202,0.5199192087671061,0.581621469148752,0.6572770509478767,0.7381656576106523,0.8208024888840784,0.9002846212132398,0.9539120365137346,0.9102258133505796,0.8297858495754111,0.7459408373405025,0.6608635833616407,0.579384513761255,0.4969000199971227,0.4242473088542314,0.3508663351863242,0.2676168425325148,0.18276405381451938,0.13679870360799712,0.19532122831659032,0.2768945091962291,0.35807110004161474,0.4395384080178017,0.5142306399326382,0.5453873726023739,0.5258448206000446,0.5066583288189663,0.5022186754047631,0.48296116586697974,0.469088644449203,0.4478187103419768,0.4648982645710001,0.4981532455585916,0.5502061791771702,0.6228138667731407,0.7057861456721761,0.7867916753332891,0.8672786813549946,0.9462579736803904,1.0,0.9570991315249291,0.8771418916390101,0.7924941619995913,0.7088638344089169,0.6268465200419571,0.541420557417297,0.45575751730061037,0.3700942989933966,0.28452026774102596,0.20168054191037516,0.12290673044307104,0.11150783688073557,0.184673224522601,0.2671020644307794,0.34904643447654954,0.4303749266370828,0.5041647533500653,0.5388152587266701,0.5220271524618729,0.4985756941676662,0.4913347429004245,0.47261646414290154,0.45954443426275143,0.4355805318142965,0.4433684166778155,HB
0.7327799328755142,0.7583056623961804,0.7952217623856261,0.8158130353771642,0.7887910171121428,0.7631611326900851,0.7602216649258728,0.7928306597156267,0.7561040443859948,0.662467473098979,0.5552691661204701,0.45103193602370983,0.348812498760112,0.25144328618319123,0.15888530757768815,0.07789268223462198,0.004476671495128537,0.01619357798396237,0.050438957818550234,0.14077117396369787,0.24183847476515385,0.34963606493810184,0.45854243643713577,0.5602574936631883,0.6668174003681808,0.7697639439297501,0.8668339733982426,0.8971072806875209,0.8685882133211564,0.8542697621917965,0.8787182913819032,0.9253276743034529,0.9410841029249384,0.8805978508035772,0.7985309030867687,0.7338676322458642,0.707829415338298,0.7316078678971314,0.7738676444410806,0.8035065364381515,0.791851218272515,0.7662625357535613,0.7734629824756096,0.7870706890739436,0.7185412895545549,0.6187296024455002,0.5182670164385135,0.4180995177244169,0.31809253385731173,0.2196715487701526,0.12341727964092297,0.035492674822860115,0.0,0.015826082104732464,0.08663088468456048,0.19150392369874636,0.3009920314334933,0.40586149417367023,0.5091340724488347,0.6185302373269814,0.7268240812398596,0.8201723294924215,0.9024792687274004,0.9076605662976034,0.8853748456289381,0.8861440366265922,0.9186424328100102,0.9591932444646738,0.9285907144530445,0.8516583408471872,0.7863434559089963,0.7557085864033857,0.7727056217336319,0.8161240434839554,0.8608671609875436,0.8818229156374304,0.8493216738401976,0.8146011041801511,0.8005412997198467,0.8028349182129142,0.7499337912159358,0.6570102050660371,0.5572936447764258,0.4566584691348292,0.35124962143558536,0.24667318266763583,0.15524357962660273,0.07268193881507368,0.0549535370245573,0.0836546695220568,0.1670328291435561,0.27474686058280207,0.37647777827448015,0.4832885795661479,0.5914586266748545,0.6926507133633606,0.7956552451463184,0.846737032471448,0.7984340936994401,0.7585362152778798,0.7294191735013671,0.7436212061876522,0.8017555945167878,0.8057897134901291,0.7426802735908944,0.6606872015176237,0.5744546663033403,0.49273837366108775,0.42764339905226323,0.3832014665124741,0.38235398386352726,0.4424214514189466,0.5147917375148932,0.5900432359189387,0.6530899011609306,0.6908156598423365,0.709305170206896,0.7457392550680084,0.8006512159183772,0.7924043411103456,0.7038205780492293,0.6050258773319368,0.5049078170653762,0.40281815305225344,0.30609865655378976,0.21273919842263855,0.1452638972399778,0.1456439716616882,0.17981029788265213,0.2804095564239788,0.35737182504849163,0.3193013960256528,0.2544812759670194,0.2624755377403647,0.34257210975784247,0.4457254984798851,0.5512249806302902,0.6518361614754862,0.7508492085147231,0.8343871520099322,0.852785550851977,0.813404051034514,0.7593583357690863,0.7404878749533619,0.7184481907148585,0.673037022255736,0.610729377481416,0.536877291454994,0.46284131467807277,0.41754869317039,0.45048465191791864,0.5166376031341913,0.59405867882218,0.6795932343818796,0.7663142131040042,0.8314862892613795,0.8589388259272734,0.8269686059197057,0.7763169095830602,0.7908131948650325,0.8322199754919681,0.8903979392327406,0.9020401210028353,0.8233657503562803,0.7193247123950826,0.6172993937811511,0.5083153743099242,0.40356344368253394,0.30127238348302376,0.21518180368429052,0.16156925066704697,0.20394089394914383,0.297271530452641,0.3968845921617865,0.49767326773315346,0.5984376718289135,0.6999047515013599,0.7941860889814774,0.8426814579315911,0.8415619064408164,0.8567317617124617,0.8905241947057903,0.9185389209383987,0.8997500677950119,0.8562757968635253,0.8101375912003508,0.80095002766231,0.852930809472271,0.923942394507582,0.9906020770795174,1.0,0.9550005847858922,0.9219216299913242,0.9254203535718784,0.9550081331317708,0.9578016332830162,0.8826597936312388,0.7823925301719545,0.679144119805873,0.5728128347489554,0.47091942794193353,0.3619010463987633,0.2527052345741836,0.16346036996922964,0.12091926508552042,0.18339049637982607,0.2794314568452396,0.3771943422644388,0.47719001008431383,0.5631514552020391,0.6603259763828473,0.7570506168698572,0.8238548247879376,0.832932838906359,0.8065106230060375,0.8227697679063943,0.8439415121627842,0.8294243197211175,0.790975948937441,0.7537092574342925,0.765460885472167,0.8286760202263825,0.9087188572977296,0.9770916397628806,0.9873365299931471,0.9402797502291715,0.9029195143083935,0.8983219791313064,0.9232032810340889,0.9559702011799547,0.9201064407863373,0.8250096411417178,0.7225509993291326,0.6150047085999684,0.5137477129432364,0.40546131424992327,0.2974067479679432,0.20127966986341006,0.13257477314595456,0.1644824926228341,0.25869036030642034,0.3574095400986528,0.4591259895752955,0.5429360670684478,0.6206519858474011,0.7172159567229719,0.8046666108598526,0.8380224058032912,0.8082869876745664,0.8056357112873918,0.8342946341793827,0.8579909908742509,0.835939290354003,0.800666735775794,0.7754342432982899,HB
0.9343427872695818,0.9152414243926572,0.8729410012074073,0.8413421885158145,0.8171127781025429,0.7979297166478543,0.8197203820490679,0.8508187531692792,0.8171260914604219,0.7270643981656129,0.6261511963642046,0.5308444576994951,0.431413953176375,0.3338027531783372,0.2370367706498081,0.1388571967642006,0.05212961124181581,0.048357425313801605,0.13361651829056942,0.23346168887024965,0.3284444946248568,0.4288576655197873,0.5300396063903852,0.6254947600262857,0.7240421678077935,0.8132444765787163,0.8966339832401806,0.942102396588675,0.931645610166963,0.9083364101208391,0.862444655213872,0.8223387346285886,0.7943818260815507,0.7702871143589554,0.774733868003868,0.8214288423079836,0.8282499794501144,0.7702682132442484,0.6785206912191184,0.5813323130365098,0.48553954306201597,0.38591292779167174,0.290847526354281,0.19001331371494523,0.08903735049699446,0.02258370086818151,0.07233415769690676,0.16907681385327022,0.26412559188832097,0.36495767519630684,0.46611349868707763,0.561489744862254,0.6581552840844012,0.7489347118154868,0.8350289266374213,0.9031353910754145,0.9062421693069043,0.8990964648612252,0.8652597770363994,0.8175759383827759,0.7945505509657411,0.7824942879045145,0.7766405842594026,0.8201387467054093,0.8408978898655741,0.8096581557754685,0.7308213048268251,0.6335991957029434,0.5384011741166381,0.4394253651647073,0.34415370117648947,0.24485949166696352,0.14872935334347093,0.06496032278304453,0.08100497473711155,0.1724014142616972,0.2720085931200068,0.36708221081746006,0.4678818969184739,0.5661910203701668,0.6622428786633798,0.7587274272133624,0.8473241098782842,0.9263433524315434,0.9670648096096217,0.9656206689352105,0.9634537101432725,0.9281490674001209,0.8833971232547471,0.830152290079718,0.7781520343188291,0.7415639777969649,0.7503454308251247,0.7988491923582652,0.8039784718774445,0.7311724955547882,0.6342050754752218,0.5390996023865249,0.43998721872099167,0.34488229476608856,0.24528580184909143,0.15034102030661622,0.054577388777566904,0.018861409621026892,0.09822473604133786,0.1947927954154166,0.2924668121512263,0.39384470261149795,0.49012409498394005,0.5882918508434474,0.6865832774806864,0.7812560106369955,0.8660174335589808,0.936406530717635,0.9422089173838093,0.9277484334620394,0.8998209773652743,0.8525085505920889,0.8158667270496258,0.7897798392592201,0.772135337886553,0.7971394437769945,0.8292591000905805,0.8012782572628312,0.7146743225180403,0.6138314708362318,0.5186240800930046,0.419610077347196,0.3243764278138723,0.22491957248826777,0.12813346503680811,0.03482009533017094,0.0,0.07271975041909717,0.1716842575438552,0.26669985238096716,0.36682082722863263,0.46728553383231586,0.5622620437754096,0.6626990251944107,0.7602556816816248,0.8419623247339763,0.9115594866075303,0.9190422607982669,0.9330175073210862,0.9482102219903012,0.954135811350872,0.8988052589143452,0.8132238434066621,0.7259191985040689,0.6288029350073878,0.5327413307827282,0.44709823420990635,0.4710431647160469,0.5682027629807784,0.6630777542873996,0.7588287141600276,0.8355348040875181,0.8610849436277366,0.8459744266750366,0.8107128352674133,0.8253607936371372,0.8452129469196139,0.8833570275494176,0.9296527991891694,0.957047878706875,0.9774474059971436,0.9868111359265903,0.9325120546286279,0.8542803229381519,0.7617659077731571,0.6602544980255929,0.5602196148297394,0.4863357607518446,0.5308036595064607,0.6287800518199502,0.7231863351445982,0.8109315022100994,0.8451296107840862,0.8240530768636007,0.7820882993934208,0.7856716158009673,0.830571047697348,0.8866922336454541,0.931856427956613,0.9758775536812865,0.9966569311083415,1.0,0.9956225956631393,0.9321690805434415,0.8524746941045143,0.7636152351290748,0.6649744080276379,0.5699750468559026,0.4700339831631386,0.39615485924261096,0.45137478270912235,0.552082113546269,0.6485775168365218,0.7430484937383646,0.8225537485128447,0.8761307977726693,0.871371589725511,0.8457934098605331,0.8205268765789036,0.822366872676149,0.8309515112688535,0.8697167661767362,0.9158388323801834,0.9331861651978988,0.9429606206296897,0.9330204344863815,0.8611097381567285,0.7800422449361677,0.6924084216126034,0.5965806856684812,0.501376286927461,0.4013343018038864,0.3502570180228828,0.4164427014519234,0.5017769922421549,0.5989770361952214,0.6952380022227944,0.7931942467248685,0.8539111916701048,0.8576292220397954,0.8214246756880519,0.8123453132302623,0.8345095185875824,0.8697017365896,0.9171796352750632,0.9527972406145522,0.9691664205892059,0.9877452623303442,0.9540094284587213,0.8686015392028907,0.7820790017143993,0.6914535509951316,0.5973744870229765,0.4979272193592803,0.4209388630173214,0.4573144717817499,0.5512473191535061,0.6460487735522431,0.7417459842451397,0.8314999285251408,0.8772631863174083,0.8835467230561933,0.8459477892052736,0.8385944514681665,0.8548653903200951,0.874001293396385,0.9098474968581536,0.9517284474741852,0.9686533949003866,HB
0.027997096606700356,0.09626787549513705,0.161647556938053,0.2019963987258946,0.20696295631741957,0.26186961096722927,0.3305022389755615,0.3869896447206944,0.3903731393267418,0.3418764386058881,0.2962304584572961,0.2587267340764079,0.2787628004232191,0.35306040574885733,0.3975521941329503,0.3717421581255347,0.4129588046108599,0.45520299725572677,0.40365524601293656,0.33287835046387637,0.3329796604632237,0.4078021267364236,0.4889744176537194,0.5672388104928476,0.6270889032213534,0.5931396424524669,0.5196053248291495,0.45501418409450944,0.38892056955536347,0.34448645984688364,0.3060474064386518,0.24164944792942467,0.1732207753120213,0.10787531336445333,0.08466352067196281,0.13503451243616782,0.2020607141327545,0.2664606444935934,0.32607593680213276,0.3570053196193511,0.38266048917161255,0.38986360268200726,0.4066632866143638,0.42358862708105205,0.3638323019373654,0.28530135025700165,0.20996390508889307,0.18560983700177125,0.2513894395467716,0.3328887017888418,0.41516055106573924,0.5000352784012019,0.5795367280347201,0.5810132207110748,0.5061337501734879,0.44006841330480784,0.3788627109491045,0.3078723788535298,0.24227499061414282,0.1802290566564947,0.1407342890479102,0.10987231030261868,0.10999591407793774,0.16637809042081197,0.23485253540443451,0.29975167228019506,0.3489173837063756,0.37215335885666645,0.3981826054954556,0.3933071910554571,0.4084883594649229,0.41511286751184806,0.35210110584618226,0.269255582748981,0.1894581572923144,0.14015152907664508,0.18663682976796658,0.26813395562785136,0.3530273685308314,0.43778222962516766,0.5129315431448387,0.5107029747689309,0.4448647490679227,0.38433954561375927,0.31670943725305944,0.2551303345798267,0.2036968404013132,0.139302484795771,0.06902178918146895,0.008117360146196462,0.0,0.05637800887042688,0.12993079976169208,0.20630900419880172,0.28369743429907646,0.35055232738786535,0.394018529765761,0.4224336435017728,0.4545575762454044,0.4499509032681428,0.41835103357769676,0.4353359321299992,0.4100429583495866,0.3345794037236278,0.2560798377149819,0.1926806723519855,0.21639153764309382,0.29340940454423436,0.37751986519075054,0.4605333213708145,0.5273133814175646,0.5040334891702063,0.4443323759298077,0.39626752284586764,0.34465733195354453,0.27984568869383586,0.21200020889866267,0.15072693256312486,0.1421073531225273,0.19642750121888608,0.2591166941437114,0.24904552609646258,0.18844134200324503,0.1747001921963628,0.23386699912582354,0.30067355040018495,0.3624993281746325,0.4132312850964288,0.46305746379676527,0.5287007342073884,0.605764958066638,0.6857415052908786,0.7667850904927229,0.8471153930515198,0.9129932120297957,0.8844654859416172,0.8043488907927343,0.7194893084797169,0.634554918132332,0.5514904935599669,0.4702845638148958,0.3856685720073769,0.31394581368446617,0.3371059513998559,0.41341774694652034,0.45987228130079116,0.44756896373113464,0.45747074258735787,0.4800117052006907,0.45814940485640054,0.4253273831712199,0.3982588329871768,0.3416554852338842,0.27042973756395583,0.19608912916266608,0.120608778623992,0.04985585086700939,0.031672695432380715,0.08907566352807339,0.15766256422952163,0.2238507929581166,0.2801933524111071,0.34353817614604354,0.41248541441531295,0.47163600304024667,0.5405915650262672,0.6112028003635794,0.6929208757538514,0.7776432349052838,0.8474576979347566,0.8275856365190153,0.7480064798853991,0.6631350389290847,0.580133186181601,0.4988791476388865,0.4141750026952178,0.33097817550226505,0.2999096850570996,0.3643046672986302,0.43006704481900604,0.43848743238228427,0.415975794593211,0.41964864718611383,0.3976798489102462,0.3732588531104657,0.3391965529321175,0.27685854961512346,0.20993609368924115,0.1484692734818147,0.14242014132008196,0.18741116060144403,0.21664940838425317,0.274892774147521,0.340532310992549,0.41111041993192643,0.4729511075072321,0.5434200021480413,0.622072911408432,0.7023129419067651,0.7838892773735808,0.8590372718717136,0.8632798473189462,0.7969412987753961,0.7143569300823829,0.6294147804759855,0.5444648486818819,0.4608654067350362,0.3836788199286649,0.36946273379698646,0.43078975482932025,0.44650289083967776,0.41612679571313715,0.4120130675948237,0.39575371460207664,0.37285807479002964,0.34468407702579906,0.28726423948930013,0.22242891829929445,0.15451223901842814,0.1148865885481416,0.1607639777429568,0.23109541042205328,0.2973451452205771,0.3559339081414581,0.409664664692444,0.470941564755454,0.538410371303125,0.6144867559110037,0.6944837977534188,0.7752815476128345,0.8581737509885203,0.9387703369052354,1.0,0.9621323806326383,0.8787647117195834,0.7940900702206106,0.7129165359575578,0.6298093127936208,0.5450103521580081,0.4644842252277328,0.4282964716057758,0.47638614626638165,0.4736847866982883,0.4441213359855243,0.4110285235510889,0.33892414146928507,0.29277981008421927,0.3204503735547831,0.36930188036796086,0.41451424751155375,0.4153895094541735,0.36312390388740956,0.3053502387191036,0.281273845000219,0.2330410547755276,HB
0.1198720663685311,0.0453265958301059,0.0,0.06474861643662533,0.15741266348999639,0.22673489017830017,0.25146538425182663,0.3527842718286158,0.47158939150823875,0.5935043022830442,0.7130177278189334,0.8085024644461947,0.8096975820255701,0.8017944921674396,0.6998959873424353,0.5851963495992769,0.4759927877011907,0.3667375451195294,0.27096488937740926,0.1900079056501689,0.10806203507799905,0.035302088233240325,0.07102824878020986,0.15957620924013738,0.24638458616661385,0.24784962267781752,0.2860945475933123,0.3996107553431334,0.5202864140032877,0.6400853908845534,0.7607329686717739,0.8422947386573352,0.814822513791857,0.7246688485332509,0.6110714814224283,0.4961126258447486,0.3875805762728117,0.2896154206041379,0.20334357419226912,0.13041184457865596,0.07135823977834432,0.12197491967742424,0.21641006424515252,0.2725034777231332,0.22938361540941976,0.267731107488832,0.38317378048081885,0.5079249126077263,0.6321662209799879,0.7513019329716528,0.8377578710602009,0.8224917250357764,0.7219825620002231,0.6077560170916045,0.497790056002658,0.39238584616117245,0.2940190993626941,0.20461031953349784,0.11961541931000408,0.05167809700771153,0.08798527925386646,0.18282668566788018,0.2667876452281628,0.24907605145887302,0.2273981024345475,0.3271809439199618,0.4487906071552028,0.569329526403008,0.6902909744742203,0.8083217138008867,0.8818744747782565,0.8659875283389018,0.7661522231743465,0.6514699684436922,0.538440682247604,0.4291355682747262,0.31948475676616317,0.22256593195276175,0.13541531681082608,0.05758916887248411,0.05393183053548445,0.13006448540349336,0.22083533987528003,0.274695241059949,0.29371055646415645,0.271261168995115,0.23779234782066094,0.32071490613786446,0.44424885697909944,0.5641143031894724,0.6832687449340582,0.8010015958349728,0.8606772954589943,0.7817539680833929,0.6752302262978092,0.5676938413351662,0.45625891805271235,0.3491045938699693,0.2499420303642521,0.16547199617459718,0.09162082586917342,0.06246929471092799,0.12274837710971997,0.2056734298538352,0.2165667262398947,0.2126841131120265,0.3150594669107769,0.43399336545268197,0.539827154583681,0.6395964377729799,0.7519732269113155,0.8160857072513714,0.7885195328883712,0.6855519508072347,0.5672965846182882,0.45179435743050833,0.34483501928627414,0.24786869891439367,0.17047011569297554,0.09276844850128585,0.02628725166985657,0.06399569117563841,0.15276641342574981,0.23474668150646916,0.28597713221447174,0.26161655499627123,0.1838253837491024,0.0957460895347193,0.06732345401835693,0.13852661573999758,0.21243423983335807,0.2994933750840425,0.40281696276591394,0.5125478729990802,0.6263953431575202,0.7417969429020639,0.8525471459677554,0.914606319924872,0.9851280093002499,0.9492202219344581,0.8340925980009692,0.7117887327751398,0.59154448483387,0.4697693930269944,0.35219764611912563,0.2822331715630786,0.23524971341414846,0.1518013980175612,0.09807019219937874,0.1436989438155991,0.2235118276668484,0.31509439437060016,0.4229326245512095,0.5332578021826244,0.6462978879756791,0.7585464788516538,0.8663261836487888,0.9469066813312479,0.9322141979869505,0.817429504559888,0.6958285344907171,0.5765945443305633,0.4571864971029149,0.350633945836337,0.32011164531725766,0.3258718960975062,0.2967202093879435,0.23784473893711233,0.14881400039111115,0.08809583561412537,0.13074342950931261,0.2175281563695357,0.31260748331016,0.4175264737700417,0.5291722319904069,0.6444721725936118,0.758724983980622,0.8723381407270474,0.9537016035969348,0.9900758412269757,0.9326489602014179,0.8151089741536097,0.6954830327047425,0.5749489730106152,0.45318467123528405,0.3450139088390949,0.3104678842110604,0.24024132705606815,0.14294544015478006,0.09201295028791268,0.1562857629310923,0.24247379875118158,0.33263827043978167,0.4368545532145327,0.5440747427701345,0.6558576615893019,0.7697729553332502,0.87783142385892,0.9349332251812941,1.0,0.9691528133084859,0.854013398637024,0.7330206724687394,0.6118730236892815,0.49179685877753343,0.3759565043746931,0.3234885394985938,0.2773805056423708,0.18597609181786812,0.11496034286288626,0.15850679717151417,0.23270580716054545,0.3212615619319872,0.4224189308327231,0.5293333552142669,0.6420554771128677,0.758670878148167,0.8667922928665674,0.9482001452946873,0.9788085337779655,0.8836659986920352,0.7645971848981177,0.6438884434729915,0.5223491240979903,0.40344650951742467,0.3203436889308573,0.25862950904754856,0.16298439216249982,0.0994696904626724,0.14428526935591157,0.21882380267937362,0.30438777483303747,0.39902694952366824,0.5071408812249261,0.6217724590663087,0.7385642832760513,0.845969002468338,0.9135539325625861,0.9795182550565738,0.9487711759785284,0.8357126545434295,0.7169188802628266,0.5963426542603063,0.47586575681479304,0.36060844531865754,0.29767832409750117,0.23465022836077232,0.19245855368084075,0.169990862416046,0.10646105115914883,0.0850120672831628,0.15713799231969428,0.23141169112063187,0.26228973117198673,0.2518714022214419,HB
0.7717436605083347,0.8462832781943442,0.899768950144732,0.9062820852828278,0.867910117093799,0.7739251025962967,0.6714819726332357,0.5674251191311313,0.46319466615214755,0.35986887425039804,0.25332491930457146,0.15036229191495395,0.04769389525912468,0.0,0.07958221140648478,0.18595633451894136,0.2888401828403919,0.393678255711127,0.5004980596272183,0.6040359832616053,0.7080711415244438,0.8125770951086152,0.9021908193801412,0.9037571593867358,0.8444899080199123,0.771084542095107,0.7306404300632691,0.7808541185637049,0.8570550140330183,0.9053741389602009,0.8919451686183849,0.8094981452141946,0.7077667191555821,0.6041824197774709,0.500652897127761,0.3941296709168134,0.29132917528253877,0.186466907417537,0.08600552159141414,0.06084080444800641,0.14944297386887492,0.2520311170695051,0.35834558827607255,0.46120971440167025,0.5660568949406988,0.6714155083344373,0.7736330744722314,0.8724571482655595,0.9085444050256929,0.8595943653323587,0.7929205313341811,0.7557983557212454,0.8068127403673307,0.8732061554664462,0.8973131644354263,0.8950894783015598,0.9081614695833918,0.9144107776969707,0.8423226777229927,0.7406896682758096,0.6380703052488328,0.5335084732035901,0.4304803575775742,0.32588616395327075,0.2205892175465001,0.11809128757606388,0.019077577743652513,0.0093862524709383,0.10098855895716727,0.20704764352410168,0.31070471188731763,0.4146485130223899,0.5204136040835218,0.6227190196659719,0.7277168599664604,0.8295494642785101,0.9094568966531457,0.8922949976642992,0.8290839109437039,0.7693254862950963,0.780985515452049,0.8534130684002942,0.9037377913644545,0.8695837950698987,0.7755390741700384,0.6738460558989133,0.5692678945719042,0.46699172760345764,0.36090260791108775,0.2540659843013475,0.1561446733304838,0.14233998506143206,0.23202436184120126,0.33621623494849806,0.4412008732194701,0.5439289580238833,0.6501483250500508,0.7526665887992166,0.8518333189701953,0.8930016130794721,0.8479604241129949,0.7942154398472893,0.7973372980146346,0.8567019036451998,0.836888959878859,0.7363433860208439,0.6312720351942045,0.5286002086281727,0.4239956071924317,0.32130130382620614,0.2229304106126518,0.20900449821891573,0.29999741730727414,0.402244865469071,0.5054950100361241,0.5990484049480963,0.700723556281934,0.8026689507731587,0.8841186473094681,0.8664606988118765,0.8111622795690298,0.7948005189857438,0.8485953993554504,0.8937236906065603,0.910227221980685,0.9156507118302658,0.8673560659664986,0.7689614855738655,0.6668784594833604,0.5617048300303225,0.45934366708364016,0.35385557521233824,0.250578739014769,0.1462331815986254,0.043875924758739054,0.021900212086055665,0.11228903113618635,0.21697020122860686,0.30987054170996964,0.39881879799323505,0.48439226772378374,0.5717928077613336,0.6744948178264041,0.7773411511726646,0.8781174149432734,0.9244031868502508,0.8831469025893909,0.820975603378261,0.8117972373066463,0.8744808709912512,0.9309970580740267,0.9837288898182749,0.9689456371525224,0.8748853152947028,0.7729032254957561,0.668092435112934,0.5955794404894826,0.6547658949953435,0.760699387504861,0.8637248968927168,0.9295383828482816,0.9348633000230772,0.9215711679887088,0.8921361935208899,0.8347883901953687,0.8286985720628738,0.8816559056042489,0.9172596344687974,0.8701827227472357,0.7726957428912912,0.6698284359963573,0.6054568381112612,0.6689650130700348,0.7723000840110591,0.8713596812889358,0.9137333159558582,0.8654860443838154,0.810180909212307,0.836897756087179,0.8921703147266266,0.9349572858692098,0.9026022787117444,0.8060381881918622,0.704153651370247,0.5995458921737841,0.49798153642874443,0.43525996804685985,0.5056843081388477,0.6074932000189659,0.7111155877528258,0.805801407683946,0.8949892930559448,0.9273530961235502,0.8860446264887226,0.8150691869082797,0.7998457573028267,0.8601225217134102,0.9198793104724553,0.9661563901973204,0.9361027075143057,0.846872612670022,0.748661861330697,0.643594593941261,0.5411570044112378,0.4404953831074683,0.43194320948961595,0.5296736501253867,0.6362803088506169,0.7389595694345504,0.8413290959188103,0.9262806357205166,0.9409112354267289,0.9190947821019076,0.9167260026598348,0.907299504909895,0.856456833929326,0.7931409853200387,0.8110122137088277,0.8754601494518713,0.9328965988765624,0.9684265368686445,0.9034469991117896,0.8019041123224248,0.695279854177573,0.5889754494414958,0.48988369097127804,0.4637290246137926,0.5556523451555013,0.6588360947620688,0.7617913046145585,0.8617421434331641,0.9263558009567158,0.9267085906212417,0.8845289768138641,0.8112468657621771,0.7673791200458783,0.8189619306985502,0.8888149136097953,0.9481311805193452,1.0,0.9473832937151766,0.8446679097746023,0.7382067928052136,0.6356661847633626,0.5303717651868474,0.43487949017330474,0.451462058597879,0.5497794816121703,0.6537553093687584,0.7558089805536968,0.8558423812636554,0.9183541321185332,0.9270957320884129,0.9006355428519893,0.8371651633371308,HB
