0,1,2,3,4,5,6,7,8,9,10,11,12,13,14,15,16,17,18,19,20,21,22,23,24,25,26,27,28,29,30,31,32,33,34,35,36,37,38,39,40,41,42,43,44,45,46,47,48,49,50,51,52,53,54,55,56,57,58,59,60,61,62,63,64,65,66,67,68,69,70,71,72,73,74,75,76,77,78,79,80,81,82,83,84,85,86,87,88,89,90,91,92,93,94,95,96,97,98,99,100,101,102,103,104,105,106,107,108,109,110,111,112,113,114,115,116,117,118,119,120,121,122,123,124,125,126,127,128,129,130,131,132,133,134,135,136,137,138,139,140,141,142,143,144,145,146,147,148,149,150,151,152,153,154,155,156,157,158,159,160,161,162,163,164,165,166,167,168,169,170,171,172,173,174,175,176,177,178,179,180,181,182,183,184,185,186,187,188,189,190,191,192,193,194,195,196,197,198,199,200,201,202,203,204,205,206,207,208,209,210,211,212,213,214,215,216,217,218,219,220,221,222,223,224,225,226,227,228,229,230,231,232,233,234,235,236,237,238,239,240,241,242,243,244,245,246,247,248,249,250,251,252,253,254,Target
0.7691477071173184,0.7282366563481327,0.6707592104002112,0.6261149716932507,0.5963568458180856,0.6070442767593743,0.5876999831099831,0.581986406585611,0.5861763242738708,0.5937527679140758,0.5804036437430214,0.5751485835799378,0.5587531769508066,0.4868212105290234,0.40400166182579633,0.31945260447710366,0.236033016010895,0.15364150505549035,0.07201640067398818,0.0,0.007562292727798181,0.08426665929291521,0.17113198799460572,0.25575669747290664,0.34104180019246844,0.4291870517361285,0.5169279852215162,0.6005422246936835,0.6869821251331735,0.7565435681598883,0.723078655211599,0.6437776441691531,0.5686868209237109,0.5164187619534365,0.4982490126306317,0.4936104314052646,0.4962824165964418,0.5156376941129827,0.5100350522618177,0.5273926239365331,0.5380634994683228,0.5610557368567103,0.6039136161810511,0.6160181273794069,0.553519761165901,0.4670205021242658,0.38228389304742083,0.29869515461546925,0.21624852744761192,0.13646805354789393,0.08079259287787977,0.12034067939097504,0.20318484948666937,0.291203140209769,0.3794224397808831,0.4676417628129508,0.555835976053127,0.642033264662145,0.7258770272681537,0.8060170104744263,0.7992356355741755,0.7228609738830895,0.6461884488360902,0.5788003745631692,0.5292663748007708,0.5024582888353594,0.49593575332449225,0.523237391328269,0.537921825766945,0.5382838539578766,0.5440720207173265,0.5464205760454336,0.5726630595763785,0.5983399085444604,0.5801739086222114,0.5053769327897976,0.42183397744326,0.3387345530739141,0.25494229579233163,0.17121029973257818,0.09489123616484751,0.05329927139880297,0.10510902021606705,0.18367553234882272,0.2589988847415653,0.3332011967032713,0.4191059808439599,0.5071747588757424,0.5918587281363804,0.6770557906157085,0.7559253401035949,0.7442310472198924,0.6652219210576472,0.5986472468037428,0.5611206228541067,0.5608149551185487,0.5620028409130468,0.5876524332105976,0.6034602565504542,0.5970779630315978,0.616092860410293,0.623765230976849,0.641386919052937,0.6639505149408161,0.6283671374129965,0.5487344076033188,0.46590570898263695,0.38213719642876687,0.2985474762656767,0.21527926205757508,0.14206008032507866,0.09060931019296947,0.13163953759961533,0.21374894840700154,0.3013211302830936,0.3884239549445587,0.47181706214111074,0.5592140460634695,0.6452159604258315,0.7291988434058637,0.8085002989804378,0.8001951587228479,0.7315728352779866,0.6668325725448913,0.6193415537921135,0.5971911853696469,0.5948933480645232,0.6226331615958006,0.6444442901842417,0.6940426098695384,0.7678738663017365,0.8479188363059814,0.928727308283752,1.0,0.987193428054067,0.9079255895094566,0.8226158573786889,0.7344668932299406,0.6462475701978724,0.5580798271923485,0.4724840204344749,0.39076715364145176,0.3132566394213039,0.26371781589334686,0.31891689417874436,0.40159552625419326,0.48517211172456454,0.5679990029781558,0.6485227946422797,0.6964616902688349,0.6875671743760056,0.6617474966433589,0.65141165075609,0.6501874437465821,0.6366365769190604,0.6241857753777652,0.5948319577974391,0.5886851919230581,0.5910864137040502,0.6253923912905334,0.6949196208492473,0.774138033169815,0.8545318934311582,0.9286774450986871,0.9207417620712016,0.8410695827156461,0.7570253908063921,0.6703745961405122,0.5869262092874922,0.49939963905627194,0.4136693568566919,0.3294353437685371,0.24197269767310303,0.1874813880840862,0.2428344001240491,0.3257337469405325,0.4131419489318767,0.500140015927003,0.5789845421749505,0.627316306277084,0.62854311112479,0.6021936597432883,0.5773114776853218,0.5830240976040316,0.5683520566002639,0.5635587113096941,0.5447182282894373,0.5290760877703237,0.5447509498285933,0.576182505327662,0.6416037524378065,0.7176998560491147,0.7986654782357575,0.880096734202736,0.9603860158859004,0.9989831778735182,0.9385173777397523,0.8661990109919339,0.7953520104741242,0.7184855579884523,0.6351594370956327,0.5473240538301286,0.46115725665012464,0.37727013235112705,0.28971336107107626,0.22869266157771717,0.27520661937700097,0.3573485661676655,0.44028228297065775,0.5240203058075,0.6037544765227288,0.6523573232333807,0.6355491079390333,0.593647793477109,0.5701364364633738,0.5480142966457037,0.5367985307903144,0.5518100374379754,0.5343078344390325,0.5326664982661246,0.5292821177012145,0.5462005554341244,0.5960014254868894,0.6701805134598723,0.7525838086638518,0.8358768842148289,0.9101588000547601,0.9029491747287116,0.8246042180955874,0.7391723874590913,0.6532663228380436,0.5692261490416405,0.4812834657532242,0.394080271907963,0.31070913268059075,0.2234739384140978,0.15286736542054025,0.1875224919064966,0.2694386359115344,0.3537623808290812,0.437836992315612,0.5197616805967255,0.5874767961643678,0.6095403532469942,0.6225368490649893,0.6225921198113512,0.6178657949063603,0.6126725855734562,0.6357657088558849,0.6359834326383121,0.6597215541744649,0.7093140997625126,0.7668190668338163,0.8133554202086967,0.8708424805889593,HB
0.6022176260702331,0.6553943253841771,0.6719503053111245,0.5963006001889138,0.5342880256264532,0.5560051381134067,0.5002685671634489,0.4224253364592758,0.3202553418905524,0.21418280681584678,0.10437549136686941,0.030604205631611925,0.0924495343253664,0.19920099659672763,0.30680461132912074,0.4178987103665275,0.528491681425015,0.6347575772642865,0.7439574091626912,0.8471619941480272,0.8784128893297268,0.7934375723829151,0.7092579142573509,0.6521529091525086,0.6007993041069358,0.5669875787256781,0.574424732033152,0.5807307848507829,0.6267353718423657,0.6676520045681867,0.6246559482032993,0.5209488717073277,0.41301090932683293,0.30187705204404036,0.19127803710048386,0.08534962844074556,0.0,0.03939831736899968,0.14274013880264935,0.25248606407803476,0.3636767449264522,0.47264858846879265,0.579379680042111,0.68970207687591,0.7958349952091436,0.8817299411772487,0.8392229301781963,0.7453149035780243,0.6795056384794335,0.6213158411355483,0.5800967758341232,0.5750249189548061,0.5915454292845143,0.6118159953363905,0.6605110132214648,0.6540779496441637,0.5570346792515474,0.44719664318618346,0.3410227315272366,0.23218639661356022,0.12642387532812538,0.046738265997936734,0.09471873948901288,0.20137360895977408,0.3122865579078733,0.4192697052290879,0.5279187156744353,0.6380004024522642,0.7441295793074821,0.8472474429583344,0.8527989945375106,0.7633214843132218,0.6912408787055063,0.6392687989017648,0.5857407715150346,0.5746160951277918,0.5893825665832347,0.6159034606543888,0.6667350337401886,0.6404907849748448,0.5414361832413249,0.43301754005017057,0.3261921362664,0.21745789608195631,0.1100129007102304,0.02867315921144309,0.056747048499255714,0.15846605418739013,0.26852606664211276,0.3790996638261567,0.4853571963292008,0.5951000489664692,0.7063104101390395,0.8147415359058671,0.8813535724442195,0.823406868931419,0.734714955002146,0.6740908322941189,0.6172238417691361,0.5861058739312511,0.5867838428895958,0.5920371917679247,0.6263558399904213,0.6719549267759021,0.6428099576618592,0.5580633791859205,0.47156173771013676,0.36800935866222173,0.2585166156810912,0.1524504790141077,0.04814909157077418,0.01394096858988958,0.10331020465184593,0.21433159992844886,0.32556768060225616,0.4368034086568735,0.5476957021745209,0.654413531497862,0.7630946799368047,0.8488052488290331,0.8087377127173104,0.7215397726355671,0.6605210877198063,0.6050001415337299,0.5682128589525804,0.5739457268472669,0.5834762344149599,0.622554264056456,0.6696162479584359,0.6554866572438697,0.5585616286433072,0.4519218306163878,0.34466956862890663,0.23845265397620619,0.13150071039950573,0.0771028341926494,0.15282294269261032,0.26304500721290947,0.37098874521829384,0.4786129047226745,0.5894682734112181,0.6965058326655148,0.8040550207829155,0.8667229964417599,0.7996525554004611,0.7328815810093859,0.7864806986142504,0.8863378935603031,0.9819070867211167,0.9999999999999999,0.9110389929244674,0.8016180760556385,0.6938444253218184,0.5928475166221477,0.5208647569292425,0.5874628711757958,0.6903799041546591,0.7396982954365326,0.6890750980140316,0.6376512389435146,0.613194473444821,0.5984888583745952,0.5973000932999736,0.6439935851136546,0.699543942907714,0.7749181185175634,0.8723951404214504,0.9599732008245377,0.9466957965250978,0.8472473044730132,0.7388519528263303,0.6327076354063824,0.5229449545024213,0.4525430353982661,0.5188591892043556,0.6242338700398699,0.7131709987058151,0.7102099706494164,0.6613224575865678,0.6231496111491491,0.621551451566258,0.6047056214817311,0.6365329077166336,0.6943226056863937,0.7583520809407506,0.8515310168413454,0.9470781383370733,0.9814776672376723,0.8986646080420345,0.793021092730016,0.6839250374779459,0.5755176862250558,0.47762591139195865,0.4854851863109996,0.5868509084080454,0.6898694914330662,0.7390771794536596,0.69743410450946,0.6448501533584009,0.617775915529429,0.6004583891361926,0.6178356648893254,0.6742787389777446,0.7293240589367714,0.8143912951666191,0.9134043077207007,0.9951476703198453,0.9628403184536513,0.8597149320513219,0.7526403119998325,0.6443352902139176,0.5344676235322946,0.4795583442164809,0.560952499880964,0.6647178763456439,0.7257669791307536,0.6895489048902382,0.6394846718657333,0.6203408778608054,0.6021125296933639,0.6074714763663488,0.6580937199118907,0.715730153367612,0.7936368537866806,0.8910260334428443,0.9736232212342771,0.9438039586762782,0.8403224292260681,0.7340048952869181,0.623584923195064,0.516775409923779,0.4290495477247527,0.47062670367296133,0.5766376412886541,0.6806631024644948,0.73106549367321,0.6854826053638231,0.6320041840729239,0.6037884833339909,0.5900712668178597,0.6070600894442707,0.6539898283363216,0.7091998819918816,0.7841611867769894,0.881325077209938,0.9666439495106053,0.9404786118296625,0.8389467493211328,0.7309006955783747,0.6282674358004124,0.6121474296002815,0.7030444422399326,0.7267826626154551,0.6790268526666629,0.6255397546322389,HB
0.7753917733235487,0.7699892848941687,0.7928844112814748,0.8124735140298078,0.7664520008690092,0.6883241795849337,0.609162827820259,0.5259457690354339,0.4462339220831035,0.3644835314429446,0.2806508963613625,0.20038684934110856,0.11932190597046727,0.03905930389021739,0.0,0.0594734109240333,0.14179333122862742,0.22094144757706796,0.3043385189751426,0.3883360704596755,0.47031256086465406,0.5498571597284794,0.6335350916148474,0.7170925814452871,0.7963929914726247,0.8766199749199501,0.9168830058892969,0.8707846409161264,0.8275507162242126,0.7994182500284166,0.7586571481683397,0.7213397398882673,0.7224359006581544,0.759122675591118,0.7833653719724374,0.7832053666468375,0.7900605529223954,0.8174979207173181,0.827303884591545,0.7757839115274894,0.6966133415257549,0.6167547467010517,0.535352879487649,0.45190794920707306,0.3726745090181293,0.2902234466736246,0.20767940510600708,0.12849916612516016,0.04716066146964665,0.00519801138675785,0.0578197450906584,0.14034322517801684,0.22305372496977577,0.3021739441333244,0.3855232353055465,0.46954461610599624,0.5535676362521831,0.6375906424612601,0.7214240263532128,0.8015109871400539,0.8813004953336927,0.9172895514022248,0.8669834683447017,0.8237892447099753,0.7913246495265782,0.7496569184920343,0.7103797718991622,0.7089948492911644,0.7408892137962542,0.7699712243015258,0.7724040918025854,0.7669415915592643,0.7849305056342868,0.8142511025536545,0.8061282615793368,0.7395369444228914,0.6607549952275851,0.5795617768278869,0.4976177236234924,0.4248479971610423,0.3564170577802937,0.2778795909269855,0.1939555982906413,0.10999070088837748,0.03064430348932473,0.0002042213184453856,0.062135438537657905,0.14418373494192455,0.22338460505664154,0.30685243811543866,0.3907445418345104,0.4678012471206146,0.5392097844484636,0.6222633954124093,0.7061126698058722,0.7862890254371802,0.866768437103902,0.9279336153821496,0.8960223353025947,0.8426005199304962,0.8100484798106424,0.7732985608896648,0.7334666963333254,0.7233098138425595,0.7516662000691556,0.7795354784839725,0.7827036329532835,0.7820916757310301,0.7915224310200881,0.8187803020024962,0.7983150685325373,0.725872144019917,0.6446965726815077,0.5649439571635406,0.4833141954758086,0.4011637081438489,0.32176452421837837,0.23832390231274175,0.15811945602804406,0.07731278217411974,0.02002443342097987,0.06402837741507217,0.14309500785104884,0.2268643640273676,0.3090164377108006,0.38843457893195094,0.4720547006517319,0.5550398258557667,0.6340922083337432,0.7172023126673444,0.7988786805620711,0.8775132500196603,0.9173706852816577,0.8674678342640747,0.8256714382970958,0.797260772743082,0.7570173582467177,0.7256587719967318,0.7346039449157451,0.7693480176030232,0.7910921888734712,0.7956841331323381,0.8079943609076583,0.8155225641772312,0.80976529815129,0.7802960608935061,0.7509026736220938,0.7657668583946877,0.8067782416068909,0.8384550766840353,0.8726048753398563,0.9332621745449567,0.9907195868479739,0.9648189228634165,0.8885156239210066,0.8089702053112957,0.725322593336619,0.644125663570303,0.5639404241645107,0.4801534981268329,0.4092507821839387,0.4325637015141532,0.511939351618669,0.5959035595305535,0.6798627673881059,0.7608188570711809,0.8315886968324964,0.8534221709944776,0.8383918629870883,0.8096553168421383,0.8032476040114405,0.8058743074965651,0.7980490567399909,0.7658794956024999,0.7441011632382364,0.7682184963812371,0.8088795401838718,0.8419706520881209,0.8847852335559476,0.9496472305472685,0.9986263390722943,0.9614864214735184,0.8841989393680507,0.8038462209278112,0.7232826535259838,0.6397684232570444,0.560451513823464,0.49613479469287464,0.5298810611043199,0.6090143179214036,0.6897040626500319,0.769973970530988,0.8378215605257768,0.8430535312086183,0.8172726767784733,0.7924888488544795,0.7940706393197157,0.793380819419887,0.7628629177208319,0.7318249889477861,0.744564144911811,0.7881641873173235,0.8259994517695339,0.8596455047405045,0.9176223357341633,0.9848039069124499,1.0,0.9338559665517774,0.8530466311464464,0.773386891853733,0.6896984218196134,0.6081293863885626,0.5282667841925648,0.44486567338517286,0.3904435670031932,0.44212127270727336,0.5207486948224931,0.6037798396152319,0.6840414694832984,0.7634104315039052,0.8358278495069595,0.8592552828116427,0.841326395015153,0.8130089893201897,0.8043965192878351,0.8068257791934685,0.79455792828215,0.7584239547104725,0.7429171949807079,0.777066276749564,0.818218633680198,0.8464714911549207,0.8923088013165881,0.9594753098656583,0.9997046477364111,0.9539255950897843,0.8761058361237983,0.7924974833525757,0.70847508647286,0.6247411158867893,0.5450476748707405,0.46326917622278535,0.3795628997130806,0.3217759031779374,0.3706809722029533,0.45402198236608476,0.5346126318501567,0.6151794608463763,0.6950665357047927,0.7738533736884115,0.8372167846536858,0.8413918730243513,0.8195294740703227,0.793139131386015,0.7952929492914802,HB
0.666650581474418,0.6613610487791032,0.6551349837269617,0.6991208432237034,0.7377702117526858,0.7164054162985781,0.6378842273941504,0.5483080621027762,0.45801196586823334,0.37120406919328286,0.2839913749584415,0.19411426772463025,0.10866876131331926,0.0373705508619927,0.0566041896599504,0.13634727055637685,0.22467482006308537,0.31019812738272023,0.40006605461923894,0.4900488896172117,0.5757207193139907,0.6643167200850225,0.754482330955835,0.8271430361841278,0.8047670624307156,0.7491485230598712,0.7047339635984787,0.6485609451835063,0.5814684192739731,0.5423559985609473,0.5747880747631525,0.6312915949113534,0.6935699939498724,0.734514697907623,0.7374329428718563,0.7275750741381165,0.7104812768972925,0.7436905131542476,0.7575375521072046,0.714742378838162,0.6341866808630362,0.546199419578009,0.4608389449725233,0.37121135360231894,0.2807832200136726,0.19074409755428912,0.10623838369920557,0.06208905056474323,0.11481067118969701,0.19668397657576508,0.28603985636549645,0.3751335885453013,0.46054545239623934,0.5502605422679544,0.638855546508928,0.724505285725502,0.8077630088739253,0.811230217919282,0.749515959634837,0.7030852076198558,0.6521692280877786,0.588962017704782,0.5375626998009452,0.5534357351710791,0.6090482957452658,0.6646568444662863,0.6887712994223109,0.6785703792852876,0.653701165268303,0.6703216605033494,0.7142082000412834,0.7093965570480915,0.6398806386635384,0.5532030503314046,0.46827565066407384,0.3941376599659976,0.32156839354295175,0.24410981547685295,0.1574367841185388,0.07023342216859463,0.0,0.027046505837804657,0.10962149699989976,0.1988794832076084,0.28697847425104017,0.3730031982733426,0.46312546086582085,0.5518513745265735,0.6374410748330029,0.727175177325942,0.7996221003930327,0.7744664183077249,0.7121724548251162,0.6662611672017028,0.6094267382635575,0.5470585997290408,0.49239797242824845,0.49668773478600525,0.5520585114453184,0.6115404784168771,0.6478778903857932,0.6551795138162592,0.6600502503565054,0.646539758095077,0.683291388385639,0.7276652496058716,0.7173209694962742,0.6437352293863302,0.5579878063218388,0.4693119442777606,0.3838370160422333,0.2942993814614432,0.21257350980860823,0.133964278507557,0.056506870882654936,0.06329425713969117,0.14641539234524692,0.23181390127600998,0.3208839586573724,0.41089321636424225,0.4966172786730515,0.5851278671367669,0.6748827142733042,0.7603259737189204,0.8459834092836042,0.8655628360131703,0.7982590363215775,0.7383625560363706,0.6912966026811355,0.6343253390186742,0.5693166163631299,0.5223714338853528,0.5469126224407749,0.6036213452112903,0.6626313098801823,0.7053612449423242,0.7121641893149379,0.7271333948579773,0.7367053610408226,0.7136231777534484,0.6608374011897161,0.6011780915937371,0.5546131391613237,0.582159297140819,0.6487307616870296,0.7042383599425689,0.751580420644464,0.8094671214917132,0.887402552300102,0.9614133133573982,0.9999999999999999,0.9450207053044756,0.8580037020693724,0.7702675905227597,0.6839845231681406,0.5942037958900178,0.510755813337869,0.4861166265032427,0.5631220052194791,0.6500137860676533,0.729750241952437,0.7675134582428452,0.7523499947405045,0.7129818299452307,0.675447529718156,0.6865950285916226,0.6779248725607055,0.6732950045775071,0.649607412653557,0.5954742336116653,0.5347491062011381,0.5197355048604456,0.5763229392005099,0.638629450998336,0.690642395010132,0.7380733441421966,0.8083483134175283,0.8890627394371583,0.94389756996466,0.9009582364212009,0.8172341163825622,0.7279167252478641,0.6394772753236405,0.5537051711101123,0.4637834215772676,0.3912116169505646,0.4277449269991055,0.5144707817743887,0.6000939797137116,0.6842303273900215,0.7456564878566304,0.7522541240040516,0.7246215246236681,0.6814521406845343,0.6877761594184445,0.7058103542811213,0.7109306829223817,0.6789104784325862,0.624024268852892,0.5710988464952181,0.5842132939611674,0.6475912857622611,0.7031995646445267,0.7488577957532737,0.8102430902307846,0.8831600756834296,0.951274587570227,0.962234528467747,0.8882771713561418,0.8011399244598837,0.7130302927983744,0.6270728699015339,0.5370534019120389,0.4521946598986194,0.4296748309282685,0.5066217326386581,0.5922165138243211,0.6783849548887059,0.7558217788163385,0.7844746876913761,0.7768151539437712,0.741869667490287,0.7527901627472312,0.7622624324761303,0.7612295120533358,0.7394902981227017,0.6841456572532846,0.6241062135019225,0.5757887907612532,0.6014046214240306,0.6661187631839379,0.7219188717762034,0.7662479962774275,0.8278345992873187,0.8985017805293037,0.9689839452024306,0.992884264164721,0.9245269403763469,0.8481198713043713,0.7641357597586046,0.6753709243748552,0.5898536646444829,0.4999946323996409,0.4120967694463795,0.38768921967953485,0.46100254993588685,0.548858655816406,0.6339164989578275,0.7174224612463133,0.7717260842984278,0.7642940250614224,0.7301099465195279,0.6845936205846813,0.688828580683636,0.6917827104812418,HB
0.5203704829369435,0.5217135172540539,0.5231400980629166,0.5121209173506611,0.5015992207632012,0.49404371411433523,0.42469565156209654,0.3173469521816603,0.2309595595108247,0.12476661237127473,0.04382246814400048,0.08533849167589569,0.19648456604436726,0.3061534040707743,0.4095137069042032,0.5107037086894946,0.6206480469810702,0.7287229398996025,0.7059781416962876,0.6122541563190427,0.5477067480138103,0.5111958021704459,0.5040556113842873,0.49381013257132356,0.49959147831278816,0.5410974728773121,0.5751792650489458,0.5750495395657054,0.5802482398154409,0.6002637623289817,0.5198674511490591,0.4111787145960073,0.29430407362495137,0.18566389665571004,0.1108160161279117,0.16706226170019622,0.2778239732750536,0.38660876281456114,0.5027834417163324,0.6072424023724774,0.6463746955550578,0.619741820141186,0.6252125060120233,0.6528277071418218,0.6419944418105823,0.6155797028136005,0.6084122051938645,0.6197104060311576,0.6428006392994727,0.6229698538131561,0.5146010485893426,0.4034803247516914,0.2883303428911379,0.16809312060681325,0.08847194333709929,0.13204815929292524,0.21924185171459865,0.3253004893223066,0.44383580242730725,0.5538226510417501,0.6307763009904943,0.6432227200336662,0.6383561213675608,0.6236268045646232,0.6381632548878629,0.658778271863282,0.6409778023853079,0.6143379609664121,0.6012517034679923,0.6098671397598747,0.5994907021501064,0.5563374164310484,0.4611420283555687,0.34360437392408416,0.231411571473366,0.12101392257359622,0.06114721198007844,0.1324472960290075,0.24098318516705497,0.3563837263978513,0.46931017960103194,0.5823882306340158,0.6812492906149008,0.6571182268358569,0.6194273785366216,0.6022943705195076,0.5931048479063206,0.5646995940599537,0.5432092371203106,0.5631483928323102,0.5925712152380473,0.5999559983375211,0.6035644530818787,0.6148038894981713,0.5595931422031519,0.4416543171263707,0.32052262435751855,0.19985936014350036,0.08928941101026888,0.0,0.024072224640431017,0.12684873828717702,0.23738784717307748,0.35249801396240255,0.46950725681082606,0.5741414056466168,0.6180720533268129,0.6200245831983366,0.620178733233459,0.6122678427911001,0.6184751869576437,0.6423561501592028,0.6442475198471551,0.6259733198686894,0.6174531377607604,0.6323101732949881,0.6428670673565038,0.6256638194205566,0.5926305390535096,0.486593088185133,0.3737848360677485,0.2582965750827322,0.15329740677449388,0.11118989288750392,0.1857902918210126,0.3035035616542534,0.4245917900626224,0.5410115861596889,0.649028008831273,0.7012989395309086,0.6692781872682412,0.6488915570055771,0.6392209833050546,0.611639979657443,0.5625653347158273,0.5425666229831796,0.5802924712906736,0.6348329314564425,0.6200222405713438,0.6051994465844537,0.6466277862519627,0.6830439084520719,0.69653991893155,0.7132450021891126,0.7514163012567217,0.8193314388760675,0.8477322925774158,0.7673691741678454,0.6560122686063399,0.5579701923630833,0.5773057629368812,0.6839321074247642,0.7661415132837459,0.7431676798878799,0.6922330193581492,0.6811442811662487,0.6617229974655725,0.6733300058543272,0.6883385698580495,0.6871229712523332,0.6683706514946528,0.6610263312738804,0.6717010705745867,0.6693454406856345,0.6775686237881939,0.7353373441401514,0.6932603391690924,0.589256077325194,0.49994916121756106,0.5387243113883438,0.652034173708449,0.7485897677453095,0.7539517235231501,0.6768373999652533,0.6516439835790067,0.6552648425601086,0.6508366849188945,0.6218629140853382,0.5965244421791809,0.6192684027774238,0.6415654806252529,0.6550155790517653,0.6743530067653785,0.7435097983502676,0.8309102897835654,0.8445463846034724,0.7560435632830673,0.6459366870731498,0.5400953051490864,0.5655207078549731,0.6668885730553282,0.7212761666860463,0.6727482993909204,0.6598721951169142,0.6527844952192239,0.6461639544243734,0.6665470079927056,0.6940871150998253,0.7030029332329342,0.684104509448809,0.6778181243117332,0.6883566430768777,0.6983609269585664,0.7051631900265249,0.6262784173061537,0.5562630048608908,0.6253965407528139,0.7354374746620538,0.8186942765540586,0.792115603786451,0.7146261400551079,0.6696492450669926,0.6564241006240779,0.665733938782413,0.69237069408873,0.6993234257057321,0.670623345233488,0.667150715086875,0.7152909824823319,0.7579970327471357,0.7011060716701971,0.5978498165443011,0.5716953198534438,0.6766767857077229,0.7800344027667361,0.8160993411741124,0.7414962838566925,0.6497180899153125,0.6319516153507174,0.6258835352014951,0.6024060935013775,0.5648398308979159,0.5523701640839498,0.5633761757169569,0.5655540258664744,0.6113693913316576,0.699672332737511,0.8049595666114868,0.9088703951537105,1.0000000000000004,0.9893636979449214,0.8841404899292349,0.7753551094288129,0.6565855633644504,0.5466586220075071,0.4523281843093563,0.49558126384633105,0.5949327917867016,0.6136679238338254,0.5635040979024795,0.5560052716097346,0.5710417096693887,0.5834806139012993,0.5898740379469345,0.5998474236416245,HB
0.6673022097675041,0.6772619948299976,0.6435824389110274,0.5547067277194397,0.4504957049940228,0.3571612322884743,0.25461652814729385,0.15494537325893742,0.11880136679574838,0.195143710919772,0.28980164114019935,0.35816340721372475,0.4440665979706715,0.5297437019599807,0.6193660318369916,0.7256155522922687,0.776710662193751,0.7198300254036076,0.6869557255032515,0.6934269809103024,0.7024432395899978,0.7058665462586333,0.6804903859263156,0.6752729561895929,0.7101360019852367,0.7240231646630999,0.6947390937974633,0.6973914362839064,0.7321409225766242,0.7473325114766087,0.7278915593042434,0.6641054041920467,0.5633850388975743,0.46394598990781244,0.35819634528432354,0.2587911957305433,0.1523273596169219,0.07959652234442038,0.12436079162267544,0.22600492588592913,0.3260926762981702,0.4347603030190266,0.5378880618098538,0.6401105467905222,0.7447539270273116,0.7895247533910208,0.7407314846534439,0.7088001781419413,0.6995530776787557,0.698450705254479,0.6972802525979414,0.661787402942716,0.646360431910662,0.6710172683455569,0.683490693410076,0.6511200520569846,0.6525713548973928,0.6863464676152007,0.7048221454701822,0.6912873438176317,0.642972803977651,0.5699878896566837,0.47814712988680963,0.37462407408475973,0.2652889056974379,0.1558975423230824,0.05278596427062299,0.006655839610274494,0.0737144059013457,0.17270152637292346,0.2775344048492634,0.38687881908824373,0.49211303308180643,0.5925105182377246,0.6999247346993358,0.7644775455660495,0.7220341929076679,0.6982282478091433,0.6897819462708785,0.6900603819948072,0.6765932064933469,0.637753058522645,0.6363530196363087,0.6650029610010919,0.6639310205926998,0.6332579318558311,0.6484220858824856,0.6804274045459224,0.6928784709182021,0.6720488154591009,0.5920466483865559,0.4900830942168586,0.3902415695521102,0.2847812316498868,0.18442952221171094,0.11740238268461822,0.16564405069335542,0.26050896355238295,0.34870006202258086,0.4419470678792261,0.5474405936180822,0.6568435540371942,0.764610139997393,0.8097930679691419,0.7481571596042587,0.7006795494803972,0.6999976949661528,0.7053726237295432,0.7054632779203653,0.6849342376877776,0.670274984690316,0.6853658728114742,0.6796535481995356,0.6604071059828507,0.6885131511525371,0.7257030699915581,0.7374436884520161,0.7157621127218152,0.647035370630884,0.5484229984510489,0.4412558439530625,0.3420608464397723,0.2346059488377068,0.12993806649942585,0.03326486570257492,0.0,0.07987645897649531,0.1848715197440609,0.2846316767462236,0.36646498383680437,0.4717941279046687,0.5781037070680379,0.6776780013119081,0.7705142308733581,0.7609108635036823,0.7258384611844746,0.7171974751341468,0.7208702789013954,0.7279152444296924,0.7070015013865905,0.6754235510948661,0.6871889680042349,0.7194443016010128,0.7242916301937501,0.7595127619417106,0.7778497501882575,0.770624750153543,0.7722539919228013,0.7724739894801429,0.814007147842235,0.8841861278504317,0.8989717629474696,0.8183683767006973,0.716807900031573,0.6160807483124251,0.5121421779425126,0.505055287634737,0.6052884978652902,0.6986200873849144,0.7577488405317774,0.7768865163584584,0.7748839869662465,0.757266585031962,0.7208584340430764,0.7195365915762646,0.7365266016656018,0.7220188345767595,0.7162407279966869,0.7455496140558537,0.7581910440085164,0.7529516287261431,0.7512954854565232,0.7793384193052164,0.8532890676694769,0.9443580375358365,1.0,0.9407574170006612,0.8439846243551621,0.7404827076838187,0.6318482679779733,0.5641058711566838,0.6257845202904089,0.7021820810734347,0.7375666324762613,0.7363197014996863,0.7153450848114082,0.686031894714521,0.696671661434956,0.7182749330557883,0.6999460572888792,0.6808648856625035,0.7103078229731574,0.7308517462230149,0.7346859798316312,0.7387176029887796,0.7536555566405472,0.8155473669107174,0.8919671344354483,0.8851768596734919,0.7967560031217937,0.6962626044658498,0.5933732021988702,0.4912631496460622,0.38722546692911175,0.3811114411701817,0.482635722006004,0.5828628509438092,0.678907135601913,0.7363206541088094,0.7584211632667248,0.7505718257272553,0.7223644705640306,0.6959155442554645,0.718139703552775,0.7318003282476067,0.7059221100523558,0.7040151540673523,0.7427525461900726,0.7471125160829892,0.7472131785266067,0.7578348842578313,0.8010721459635364,0.8785789649220326,0.9352051569740181,0.8898417213327949,0.793347428277587,0.6849999497018855,0.6066381242394581,0.663015871790122,0.7396973694164113,0.7788108198584247,0.7939223605797472,0.7804862320593577,0.7482512239219252,0.748578173490531,0.7671602032338094,0.7518931213314191,0.7164234199374624,0.7299068778816888,0.7637291772060513,0.7585071275713751,0.7489353284632538,0.7361957827247845,0.7482983502339504,0.8154824659628415,0.9035385372685738,0.9698798601440672,0.9263101615353762,0.8310900097004015,0.7246977748488206,0.6276764779558492,0.6374659788935233,0.6998666030260812,0.7209168589996087,0.7134596678387117,HB
0.12435873392264352,0.22230954014992443,0.31369985662243005,0.4062284299018861,0.5069912149245761,0.4978482005105507,0.3707258989813371,0.23925083584774676,0.13113229158368833,0.11529759366989722,0.20469111912534643,0.32315610186807,0.4607476571236617,0.618685750796101,0.7482880487763897,0.7063937193484415,0.6198275599394858,0.567785809554354,0.5198667438973068,0.4400589242098305,0.3705912410252399,0.39534717328656166,0.45008114320436476,0.38783806759333617,0.2797443829118098,0.27689628514311515,0.39211148309547283,0.5217006869448886,0.6344302070863304,0.6333181401221517,0.5015468721973404,0.34991059179291684,0.19909647253923168,0.08067567285404831,0.13564014233185695,0.28136494718249416,0.4392058816307638,0.5882910972780819,0.7402506578663854,0.7993712858500372,0.6975420019377285,0.6015307287716829,0.5655910004519065,0.5399399350026006,0.43930252305939543,0.3302097673011475,0.27241321932109175,0.3140827085432787,0.38378871466978826,0.38977557797778095,0.31033120383309676,0.22820215114686437,0.29211562060200924,0.40444054817889263,0.48196728206967965,0.42245778033971115,0.2781006134307127,0.125201089902502,0.0,0.0363635647491396,0.17801560894996138,0.33397033787177577,0.4822449972994365,0.6367792853700558,0.7124759838978552,0.6200641667934383,0.5236969554729867,0.4737245576877922,0.4351892331303171,0.3722128043875439,0.2722320125665276,0.2187036891216012,0.27972716568475864,0.3385021706279616,0.38327367501600174,0.3340948963324899,0.29427098735891644,0.27353593017180744,0.3658204428226304,0.47429602728554476,0.5029552200883041,0.38177279724078117,0.22959456726694905,0.10425292519903406,0.1361140042875033,0.28266028753918704,0.4312548929293474,0.5837486515256951,0.6967742841747246,0.6539859492919899,0.5802751668883523,0.5388664047728353,0.4726215654962487,0.35896671199069274,0.23140587184172645,0.15730954084410742,0.21840762849005957,0.3158260853254382,0.41610252954791926,0.4628960616777409,0.4110917244284029,0.3578284619889569,0.40846865603303684,0.49911038398328733,0.5017942184511837,0.37760831957107,0.23214938007498187,0.17030921649328157,0.2907926613856424,0.4492919957006114,0.5974224403015667,0.7285825892038882,0.8021239699474747,0.707868482425106,0.60510875629384,0.5469961695235419,0.5092007599383193,0.4281515585558582,0.3454996083497841,0.333175264185849,0.4023408612141308,0.4030297960288505,0.3144999041392298,0.2909043379273082,0.383598128234937,0.49012736449655314,0.5331179466707265,0.4458504653706674,0.29922959123896486,0.17452029810958702,0.21553475390296084,0.3579651315976564,0.5150117890828074,0.6665421763502701,0.7350689802562913,0.6462529591627244,0.5865993756633112,0.5496021092264214,0.4758659954881854,0.41798598168126766,0.457305952945263,0.5369203720836659,0.6050723873440012,0.6410035719427603,0.7151135901842522,0.8394682867975356,0.9614696929591289,0.9392170974637368,0.8002081208067531,0.7025200373705731,0.6423897166004795,0.5682514417323485,0.46256927709012796,0.38143350152823796,0.4353404808872976,0.4829334863666497,0.44577935582208417,0.396642928055404,0.4585543912500176,0.5453723061877023,0.6035077402031006,0.657110177639987,0.7648445063345766,0.8953309853713627,0.9944038985276573,0.9261568337688724,0.7794025091765628,0.6416063262173011,0.6422812916387137,0.6520651508413855,0.5730044307236595,0.48262213437796886,0.4613463033587566,0.5379641396829817,0.5458229027301629,0.5022485989137833,0.41003651620774484,0.3190215381264174,0.26208816601490303,0.3522473638689152,0.4783416607125246,0.5830022797920358,0.6374145269495948,0.7100010467258819,0.8219401108544742,0.9375441336101882,0.9432978577955518,0.8091432408813022,0.6678035648463241,0.619370468280406,0.6652130219140968,0.6103345247333678,0.5203628035484518,0.46276436331092885,0.5151473583715136,0.5521873971807221,0.5356588900421411,0.5187643859703512,0.41190782740511045,0.35800643667762344,0.41777159996619817,0.5145136948411517,0.601994445700289,0.6704123290662629,0.709705582961468,0.8274112139111511,0.9057209289838819,0.8280234592637847,0.6899858413395767,0.5406835079941854,0.5145902184553113,0.6056953069378204,0.5968669598496708,0.5067779275890039,0.43946957453793667,0.4430683454352571,0.4895345644567053,0.46904312795971137,0.4060154867020711,0.4231696423334479,0.5350693334716605,0.6367827080600308,0.6926209268269901,0.712396775653497,0.7856725960889381,0.9080185742823814,1.0,0.9183116259924904,0.7686739245068188,0.6476072418842342,0.701497744785593,0.7372015200824791,0.6666237233197183,0.5458155821335007,0.4285375497498989,0.40879539326861725,0.49918654383621375,0.5113900131556535,0.4467020448119503,0.4437369362665535,0.5276566066560231,0.5953547839674447,0.6329983523884586,0.7072092375477936,0.8252045826208176,0.9522910104322233,0.977515231408761,0.8514454885640674,0.7003045264201209,0.5918446392008381,0.6408123891507662,0.6172319115798599,0.5405569462065078,0.43425528512270173,0.3723871802128351,HB
0.6601504594806066,0.6590917053835678,0.6617557222041724,0.6710955969788043,0.6577759609173789,0.6285298424039095,0.644907840730565,0.6769926633928939,0.6769562249440589,0.6378669546911074,0.5613766114265107,0.48904510027234294,0.4118913163460397,0.334614963850823,0.26234467752935176,0.1842271672633763,0.11056339873910448,0.04244745285753171,0.037516158928570076,0.0948145682725694,0.16517082583724763,0.23780118610145318,0.3163322461348915,0.3909599881883873,0.4652402336220468,0.5399202286534771,0.6048604383506259,0.6204344351026115,0.6060447086872821,0.6012666990761745,0.6096503806525057,0.5979975767407358,0.5874422987231517,0.5923297370584372,0.5954456753644922,0.5991322053961993,0.581972283597563,0.5915271500067828,0.6311149090469882,0.6728994590836103,0.7113561551050634,0.7270913113184118,0.6663663449072922,0.5882427320252218,0.5159730044673335,0.4386861270143937,0.35958637474087307,0.28065443902312703,0.20681199426594576,0.1383513170926689,0.13160793809916482,0.20015018485708136,0.2775119245934624,0.3497122848232018,0.42790259653562124,0.5036646625183671,0.5766969095089717,0.6492982147832552,0.7131878513594264,0.7518532008608682,0.7821168403557223,0.820324957871302,0.854544650219362,0.8789187684593777,0.8901414310629353,0.876898696675427,0.8734109256097166,0.8948200593701027,0.8834689774468046,0.863703883609409,0.8567964479678053,0.8747410569643385,0.9083556875493292,0.9275436079173919,0.8971262108736723,0.8255178032434262,0.7466362815871951,0.670611834162102,0.5975041197894567,0.5188081195220159,0.44381633654315766,0.36980347342524256,0.29230692940310765,0.22108927877423967,0.180810816793321,0.23396971245999698,0.3125745412999822,0.3900798936586082,0.4622586104700065,0.5404524901384046,0.6184674165642575,0.6905853974225779,0.766795829130274,0.836022041274025,0.8838998033349034,0.8783966765477572,0.8547388120503435,0.8444218684773929,0.8607620770693823,0.8674154701035767,0.8301261538639081,0.8114270092034771,0.8155663829651011,0.7959051214738345,0.7568416653483511,0.7175409362890804,0.6816635837127841,0.6944364650728566,0.7268652159356953,0.7281599408026939,0.6772431391067374,0.6051984604227133,0.5266704138778849,0.45301196841955693,0.3985522316624236,0.338359432984933,0.2742076141164963,0.2020924081502774,0.12750226387262154,0.05063770270725543,0.0,0.03588937837157791,0.10758898884258938,0.18627102364981052,0.2633319787374725,0.3357161784279551,0.4141549524710645,0.493261762104536,0.5716707561079516,0.6407074174509916,0.6912636362095618,0.6930325661251454,0.674909355513479,0.6779025019229786,0.681888876286948,0.6587953568884163,0.6495533345621501,0.6538465818521723,0.6518357108948637,0.637122509877308,0.6132230596030767,0.5975991787649498,0.6309381836614386,0.6687957837875874,0.683397141062133,0.7226492118875593,0.7568418308114971,0.7194160913769972,0.6998611023293834,0.6763853487307953,0.6402497014966023,0.6514045827024498,0.6724091626059473,0.6843695306244323,0.6867638779875366,0.6843029187359148,0.7092705042552699,0.7194132985048735,0.7114607152611837,0.7170803919626157,0.7351335266899425,0.725721295768969,0.6772147429995522,0.6118275377388379,0.5394192462414639,0.4942928024747312,0.5445296397436147,0.6229820761972934,0.6966577822166878,0.7708144500043851,0.8241534660937339,0.7985198950174607,0.7655560105751721,0.7452666982621917,0.7183831547651668,0.7483919337395778,0.7875926251708952,0.8225812060203138,0.8502514267579099,0.8456859122771839,0.859263659595363,0.8970967062380893,0.9069732197825014,0.8799091719336037,0.8846378314536972,0.9090447050575498,0.9204891832286318,0.9037575084684056,0.8472782899647712,0.7770162646010091,0.7166285920665013,0.7506350966281404,0.8174470256912058,0.8837218785532109,0.9541746846873175,1.0,0.9776857790554206,0.9487795755693901,0.9180671305333264,0.897335882754068,0.8992867982554659,0.9169606761885526,0.9293195309533423,0.9181297073132614,0.908800202070016,0.9302087599964536,0.9190970957897585,0.8934535336891901,0.8637589178502733,0.8232353602282801,0.7904754136666833,0.7603301686678948,0.7114224833321908,0.6434306299566316,0.5697825461855285,0.516558976990055,0.5580422668734583,0.6310194842538318,0.7060941510211493,0.7773427693252569,0.8083492007931011,0.7698073002850513,0.7301941001021123,0.6920661989838944,0.6483674187450815,0.6163084096621619,0.6311267928197847,0.6321786731767195,0.6274753102623783,0.6208349516066459,0.62307427820744,0.6372052560132738,0.6352631805392565,0.6397659877725729,0.6522343096530806,0.6491419959861994,0.6076567585025979,0.5417151806587884,0.46866051254965757,0.4136417631409791,0.4528964279957147,0.5300525862052864,0.6004814453391211,0.6602905409793806,0.7176022863405079,0.7673484974723387,0.7422666489803792,0.7149149333935713,0.6947136046786718,0.6658594246772421,0.6876272689670951,0.7054407534787973,0.6941876934747343,0.6893110824428393,0.6951770822809423,HB
0.22537187392715774,0.10683750067665398,0.023298233987746997,0.08610010223106812,0.19578180937105616,0.34041067254934454,0.44941145819105843,0.47749940843538763,0.5914259806035944,0.734923173365055,0.8545112426750059,0.8945693576156399,0.8485941270854656,0.7782816826516581,0.7070969676676406,0.6338334659861493,0.6176308719660639,0.6829106431372844,0.7469303869692054,0.7924701779437662,0.8248856754982419,0.8463801699774178,0.7876421612043703,0.7236876564363945,0.7552982397894699,0.8343541813854647,0.873625481966477,0.7860838701186839,0.6613468897602308,0.52883782242507,0.3922351352139648,0.2547841303543672,0.13164012781142986,0.04877836803532132,0.11050050853137883,0.24630547417903426,0.391039583834214,0.5423993741372586,0.6931857242484409,0.8302956900058378,0.9272746887329677,0.9011747053558716,0.8428674787278596,0.786771270219468,0.7166041507386849,0.6557902988139341,0.6357268718587328,0.6703081090640128,0.7108407760171005,0.7304913977258374,0.7401563264765985,0.7186132466270374,0.6651741712632897,0.6805912208011531,0.7432193143531731,0.7560831932206362,0.6557355056071357,0.5491665156463359,0.4206701846504526,0.27338146650144823,0.13079564246618203,0.016085333949004355,0.0,0.11805242730903487,0.2654397893626683,0.39950745389323217,0.512118962841356,0.6167938897040113,0.7396757822017745,0.7850447798921105,0.7437696415550126,0.6997658164697769,0.6313676125900516,0.5784013728681399,0.5913387956640959,0.6504520973645649,0.7058434409845371,0.74990199899392,0.7969755289521041,0.8301102543866521,0.7998867701090675,0.7457718500626527,0.7862206200724797,0.8626566232449515,0.8802234425066877,0.7762837664301014,0.6562970461487123,0.5348394170030928,0.3949640703626165,0.25475107130371066,0.13964363121921242,0.13782268097499806,0.25758109906427196,0.4022515840736709,0.5415057066470128,0.6860224729079882,0.8165673287888269,0.8820374097276593,0.8587737050273208,0.8285830825544163,0.7715935795883375,0.7037224228282102,0.6835173448895135,0.7196120105959474,0.7543402789979012,0.7847780774940816,0.8159434123531817,0.7963028165552255,0.7304155798092027,0.710344289060088,0.7796606331365594,0.8389235394156276,0.7825443274724884,0.6630756300918841,0.5421972404929454,0.4060306022984972,0.26667902757452255,0.14623391912812034,0.051902082519939,0.11124586323837793,0.24684449903378214,0.39593491973770023,0.5339695581346477,0.6761505592792698,0.8056986904543804,0.8730940270715073,0.8316230281710073,0.7844404328826342,0.7249551388123567,0.6584994269942572,0.6118915101807416,0.6152591332816431,0.6710496287119692,0.708220326107023,0.7736729897754557,0.7857838119750253,0.7371713991555415,0.6843797976377362,0.6955786190026854,0.7637643593450716,0.8229736268231602,0.868863089433153,0.9208567423749066,0.93036648868395,0.8400797851296087,0.6962256881621052,0.5517228576262694,0.4118435625962693,0.30090209395464473,0.37268838330856635,0.5154162362669958,0.6418561151616409,0.7519227935567407,0.8674592689213112,0.9130661065993495,0.8661655117671638,0.7904886945854352,0.7964050935802183,0.8638848466645381,0.8782303494211616,0.8538661038234934,0.818261483479664,0.8048185623891975,0.766631792852301,0.7544303073425489,0.8209260687081548,0.8809527621160984,0.9165559786799409,0.9497634694118755,0.9535297038956925,0.8564477608869545,0.7252746032673723,0.578563849174579,0.4398315318491046,0.30036179890896,0.28924987691047876,0.42978317603001503,0.5726043382705166,0.6899904096271814,0.8125913037040124,0.9320521110678546,0.9649391254281361,0.9202679742721442,0.8546262640410083,0.8598493051512284,0.9017710784821458,0.8837288622463682,0.8358211912546909,0.7906918940083427,0.7424491568654803,0.6893274385592592,0.6415791735260372,0.6827356939595002,0.7525558111538713,0.7901487748452398,0.8355977209227685,0.8836167209246719,0.8509734434403784,0.7463179743435036,0.6208023574755486,0.4773135523886807,0.3434948625033476,0.3104496839045616,0.43536150981579036,0.568320687617808,0.686690609973823,0.7940552397047353,0.8249797711877949,0.7814933688668977,0.7417377847400344,0.784181339315186,0.813393352494888,0.7853886752051848,0.7752713329242376,0.7570664872828718,0.7126726099654923,0.7065039306108369,0.7643168880818023,0.8343814194560664,0.8909234447692165,0.9464434299110964,1.0000000000000004,0.9734261586734667,0.8581125828588316,0.7192561577612655,0.5813903982853326,0.4351567202762645,0.34950134334335115,0.4561123406353409,0.5906005157624752,0.7082041014807712,0.8287449915571203,0.9349850099894499,0.9357992551271028,0.8738586148400147,0.8062474035692442,0.8310182861262452,0.8966602198804825,0.8926190904516931,0.8579107217349318,0.8233377151845849,0.7705111168158649,0.7046003623366479,0.7013924683506998,0.7729342976632139,0.8423287777278188,0.9113490957091233,0.9515126833778922,0.9684430714677936,0.9007331658831061,0.7805653482367338,0.645209605548597,0.5434357096130036,0.5909244938532412,0.7022187659715584,HB
0.9290568598257227,0.9341281204286516,0.92480700623112,0.9159759358868109,0.9450665495124231,0.9619331128765929,0.9090085018776655,0.8284852507860831,0.7417574506238396,0.6579125114082309,0.5727427394148215,0.484092904830272,0.39841476311782753,0.31500807121471075,0.226993255694518,0.14411028870208087,0.06403532780884047,0.056670949110664726,0.1308995148284462,0.21893175874537696,0.3069597701047181,0.3894630764825402,0.47645881450445815,0.5646382475187466,0.6472334307877612,0.7262649911616192,0.7898655110482642,0.8672119820760671,0.9392108906642922,0.9478631320668116,0.919452005798703,0.8777352502888347,0.8380602268636859,0.8285677431779566,0.8593097303231978,0.8907994175477685,0.9019020067478905,0.904324664244583,0.8973988704455194,0.8884679833999487,0.9161910470124401,0.9439741975202187,0.9011087553227559,0.8193813882410643,0.7371477001840039,0.6501341335104518,0.5675320833788933,0.480734728464532,0.3920180688040551,0.3060079445590086,0.22286227886162657,0.13460060827770481,0.0508278619979603,0.0,0.05435948557865089,0.1362463849279385,0.22330868337995924,0.31167019841730703,0.3943709947415053,0.47093830399471037,0.5474112063868404,0.6116888108692116,0.675994184912001,0.7571060241980991,0.8418921306625613,0.91527670789803,0.9314689287915054,0.900094095309991,0.8623772618815264,0.8244739182794307,0.8096154231409227,0.8362499689159428,0.8708784417832811,0.8806342215654324,0.8801013012792072,0.8808372691246813,0.8736247131176118,0.8827332719967209,0.9239227097750886,0.9392362117082094,0.8842129551569211,0.8028243964891537,0.7195429119024419,0.6351686895581286,0.5473982306633021,0.46496762866084995,0.37777595669918873,0.28968672206809176,0.20714841815447382,0.12861555200203367,0.12204022488676369,0.19115090000895896,0.278547356154655,0.3611245082562542,0.4479822656562271,0.5356088381592461,0.6179673769359775,0.7053622541795579,0.7897312732975597,0.8728828458307387,0.9401977080663007,0.9437437071956656,0.9176416510727903,0.8792356990283439,0.8445817769872144,0.8415588235318723,0.879621869832597,0.9139821515550779,0.9265381357538367,0.9207721177853774,0.9115211857620482,0.9070452674951741,0.9372912500575086,0.9522209074933927,0.8944772091748245,0.811451977180367,0.7257761699039751,0.6425576858399817,0.5541602105787031,0.46782614895903074,0.38492656373485,0.2967951719537051,0.21276820153894904,0.12799868920625246,0.05023796227414967,0.05012885369309483,0.13132737354498492,0.21933033647223554,0.3018316952145589,0.38883200215114866,0.47744997801159594,0.5618206073734235,0.6464230650001968,0.7325781841235492,0.8153582077064594,0.8981682952940622,0.9501348885242862,0.9356917130675397,0.9017191869525238,0.8592122994777587,0.8281987559442667,0.8362009763594733,0.8733086767934493,0.8997706602954931,0.9129737412459116,0.9220126013662318,0.9041207279302914,0.8650310087184407,0.8547391267592226,0.892329402762472,0.9331685635363938,0.9650635478430385,0.9886963815967331,0.9722945031792565,0.8998291598737909,0.8131914014802086,0.733655756493621,0.6531070072750862,0.5747905633853125,0.5690744845822551,0.6499034076083234,0.7376601442112263,0.8199439565446869,0.9030504471869354,0.9751656085053582,0.9902248056810257,0.9634783773133075,0.932247614410155,0.9406346392515574,0.9494877559617301,0.9494493217403726,0.9401724869746533,0.9082777620452718,0.8683461232359582,0.8758928030505064,0.9149091739841861,0.9497109316705448,0.9765905792978926,1.0,0.96211215081819,0.898126809035555,0.8313689130442743,0.7488135241078628,0.6602330926492574,0.5714736675814152,0.4863391767944407,0.47486096669587985,0.5510734253261753,0.635938142021135,0.7218490076872743,0.8048786806144301,0.8887923811023015,0.9624548903827344,0.9791262106516065,0.9525586349966693,0.9135062660256552,0.9023409018746162,0.9176546017356972,0.9120204278179875,0.9129996535675067,0.9053847952227971,0.8763959531375274,0.8439468861184329,0.8583527413335124,0.8941135426053042,0.9309287817951237,0.960222241417793,0.9619869432716062,0.9043531456149316,0.8240929668232204,0.7366784098038435,0.6479212437691881,0.5593824405381511,0.4759448170754468,0.41888230830387596,0.4722353516016924,0.5602693735194437,0.6439392230347099,0.7291581364002542,0.813257280453225,0.8965311849584494,0.9679435775483214,0.978931824140135,0.9504661969462456,0.9164246006400374,0.9217497334125773,0.9276330516202751,0.9234578570644012,0.9181262665264638,0.8929321921651681,0.8562471595883043,0.8647559735751082,0.9067371105966906,0.9450218280661946,0.9732558347035289,0.9919073782567807,0.9553292694962201,0.8755482103910579,0.7933955752545208,0.7057628069281356,0.6170046061864667,0.5300491019684213,0.49878391499971353,0.5718479952580402,0.6603379280904598,0.7443944869192831,0.8285783536732421,0.910141775531573,0.9822669818926306,0.9982610094262088,0.976215616796424,0.9422666689785468,0.9497998902806928,0.9582711410572902,0.9578177963387933,HB
0.3025321344170102,0.3771455759845739,0.4259389127835429,0.33364805886684623,0.2155207334438749,0.10420080814550503,0.09669140416581978,0.1965188031795233,0.3034206058555555,0.41207435394122616,0.4624904400226626,0.3799924636731329,0.3131895805407776,0.2975507344873898,0.3471415110225924,0.4148914843743303,0.49695814840588337,0.5449135391741122,0.5725213494181767,0.636731808822927,0.6631639181070494,0.703106745920226,0.7716519988681738,0.854263975470126,0.8949386792696066,0.8284333223923803,0.7509272253645833,0.7027976835931984,0.6948720692649104,0.6679455486702852,0.6214673441123151,0.6404277672960896,0.6810721841592167,0.7130411502799046,0.6995305170069508,0.5831867290203339,0.4656415797624902,0.3427605196505983,0.2253516306535006,0.13145018223718097,0.17376273387609475,0.2840586353239756,0.3840690777720952,0.4822215941670285,0.5709520062886511,0.619513119885498,0.6398245198621364,0.685950441505832,0.7665588860453556,0.8486192957869769,0.8301192853209938,0.7465848859303863,0.6772517677354495,0.6450244399922642,0.6456145986749431,0.6083439898046956,0.5778221511228767,0.6109403221170266,0.662464502339009,0.6982673006538467,0.7047433542668018,0.6024642552621025,0.4758471066507588,0.34770826482165473,0.22587453638575528,0.11909965752197449,0.11108102413979215,0.2143391910091499,0.3296561431745273,0.44276955892938874,0.5443333273079549,0.6118391723651859,0.6363927949078123,0.6743245396564479,0.7410796277153464,0.8248476655769785,0.8691593765876253,0.7935701206726176,0.7120926685743614,0.669650107427282,0.6526349630251018,0.6256126590825475,0.5808474192052984,0.5800282485439587,0.63114441123269,0.6671187437975963,0.6781114403557598,0.5765110406703853,0.4549922880922903,0.3291455577456124,0.21155772232242254,0.09064037642249212,0.0,0.035100308709884454,0.14987140886036743,0.27700857084931707,0.3941266437243951,0.49625395390202875,0.5700868027554513,0.600969961437384,0.6337890362200786,0.6967401402225595,0.7785437288376649,0.8500762653977589,0.8142462652864637,0.7305875839869405,0.6722066154055564,0.6501115276832836,0.6400637180661821,0.6015527182849967,0.5929004151779496,0.6381166674615217,0.6828223046158168,0.7193918264814578,0.6628216997152419,0.5403826841465214,0.4226312952246638,0.296663200123787,0.17957932598766946,0.0990391572974334,0.1601947530376746,0.2724868167446921,0.3890177874629335,0.5014205330784747,0.593386838730956,0.6588791183807299,0.6868227951968309,0.7283525657945464,0.7987786524061185,0.8890478209683366,0.9256455232815037,0.853177859843941,0.7675803371206933,0.7118875931714381,0.696086826766567,0.6992961380969476,0.7286512150571549,0.7459411048494347,0.7971425683816618,0.883465242499478,0.9725180378170406,1.0,0.9323392477490131,0.8442532353227401,0.7709107339428476,0.7265817445922713,0.698661370403276,0.6408568333702496,0.5569417776993992,0.47224680953069953,0.5269218436408765,0.6235912464937572,0.7165882228744027,0.8282540551936064,0.9134769587482392,0.8685286719015743,0.768367160358534,0.7135645421372412,0.6657815526829287,0.6407395840936307,0.6759038666763084,0.6889994275155935,0.7127572456706517,0.7835299098254782,0.8709661187230191,0.9185427543234339,0.8701198495744507,0.7861287885155828,0.7055115687668092,0.6540938409668398,0.630909557321957,0.5840091915493804,0.4949238768234401,0.3959057501676435,0.406427872649858,0.5239816090601459,0.6450149495782389,0.765193001120474,0.8614372655457192,0.8332893407732755,0.7327512832703023,0.6831924733279866,0.6365089719746617,0.6223186118803308,0.6676420006249462,0.6899124986799223,0.70943881845061,0.760469943042581,0.8423986285545721,0.9255649654767262,0.9317879460835647,0.8576593347564505,0.768516012176351,0.703929956185116,0.6676737937267343,0.6416182243693926,0.5727709562828274,0.4788215674012073,0.3718173767498554,0.35738101624328156,0.47028450134944055,0.5888976906805845,0.7137540654840513,0.8285213083823071,0.9089064614831934,0.8565271247007304,0.7584439640985154,0.7055516593377096,0.6592327236300628,0.6342318035864993,0.6725663965018911,0.6860380240797981,0.6961372184153385,0.7465042684520018,0.8323662699492327,0.9122383255850037,0.9055058503160338,0.8236471742659561,0.7440225495038293,0.6845876131237918,0.6583082786071572,0.6238813676150268,0.5490513009860756,0.4488001064982323,0.42585014947886535,0.5369554115055442,0.6551700465763206,0.7792350109487107,0.8868747512850379,0.9059340416273729,0.8141422846883541,0.7400002260195411,0.7043659746595097,0.6832754000892471,0.7201849829766647,0.7311387488895269,0.7480416956656071,0.8152939671158328,0.9005746307405365,0.9714267126260117,0.9458272243986294,0.8654322175277893,0.7821241068080997,0.7195780588796827,0.6935799351798071,0.6545859310628215,0.5749125290533006,0.47797730881862677,0.4664832632841862,0.5752998608646087,0.6939433211604751,0.8140732985000425,0.8964531064345871,0.846518532120971,0.7551127451818198,HB
0.9139056135268953,0.9384768073414598,0.9484526541597702,0.8980674919657172,0.8487957268076827,0.8045799588279412,0.7571322406704974,0.7027011827228482,0.6747103552751066,0.6962118922692138,0.7299993949965291,0.69755215841271,0.6102211808629496,0.5229057164836439,0.43014170135864416,0.33971735019900473,0.2507541217275595,0.158806448697417,0.07259382663261882,0.025768495597063623,0.0880913273358267,0.17710314878604105,0.2710662195750868,0.3599606085005451,0.4504849855601234,0.5444881722370818,0.6330415110716496,0.7225192149855051,0.8043901011752055,0.8194515572293315,0.7878267651729032,0.7640382926890621,0.7310895335431371,0.6760928722389452,0.6286744296644036,0.6315027288090027,0.6804756601615352,0.7173148417048707,0.74051167059326,0.7547531644404306,0.7586149441101755,0.7435577091536683,0.717230475839344,0.7277974563717793,0.7678281847828896,0.7648631559422314,0.6879712662415705,0.6006164193867893,0.5102401216413939,0.4218330953907157,0.3286168948496557,0.2411080189247896,0.1489569533234214,0.06540493043614326,0.05899113836529013,0.13899371978609576,0.23151599217614094,0.31886131190355016,0.411889835643394,0.5018137557657811,0.5912593533834087,0.6840547750067163,0.7712332210238428,0.849419717377748,0.8503192549786545,0.8237181484812819,0.7958064116042567,0.7455560331900091,0.6891396990178469,0.6430736852474457,0.658936784859862,0.7103665514072974,0.7589943178472629,0.7816718736815704,0.7893900946132952,0.7861312585252296,0.768054204493998,0.736663830112454,0.7460623792540395,0.7788387903777112,0.7417613059271508,0.6578884471817046,0.5678724259229899,0.4794655634127529,0.38543762801275605,0.2910763756833019,0.19672024458505044,0.10377464500191635,0.020475394844596595,0.0,0.07739322212929,0.1647750383442852,0.2583026046932706,0.3515582726723241,0.4389002306080958,0.531787849599463,0.6255448102567196,0.7132875821553206,0.8028223642813639,0.8682780785749316,0.8489670099582058,0.8327295034026823,0.8057797260355057,0.7588869683504302,0.6980168740823063,0.6403469784039013,0.6187255348175802,0.6619718512490247,0.7204099995281537,0.7508837778605728,0.7645123322923946,0.754055780122822,0.7383139457891148,0.7167474641330722,0.7252586982490967,0.7663133043218038,0.7668455319090521,0.690722444182472,0.5967619759013802,0.5024280545858373,0.4108195294216479,0.32282054125444004,0.22929453315093729,0.1410590466874918,0.05577974386256046,0.04093106546032299,0.10791793855999321,0.18980319480023478,0.28303767816907355,0.37065550935344715,0.4628625491000584,0.5570039390214474,0.6460651176804217,0.7356792023805292,0.8215055454730391,0.8628927627652945,0.8437265443906725,0.8269200978565698,0.7907312905104411,0.7399893510985502,0.6839604704642117,0.6583658437104565,0.6968713000999411,0.7286026347752133,0.6975737565760016,0.724655443320767,0.7822993282039479,0.8273323807097128,0.8601283939683164,0.8814883406723169,0.9278143741514504,0.9321142763608297,0.8569398702180466,0.7701921288290343,0.6800762955248272,0.5918665598081652,0.5026542178219227,0.48791530905155533,0.5603964027931294,0.6509557807403186,0.7374441179385196,0.813316566291107,0.8219729828502347,0.7847013054281631,0.7493769675503954,0.7602830177452857,0.7800118318635807,0.7937692422801224,0.7892013091828707,0.7749617275179614,0.7493968895502594,0.6932853459259105,0.6577980056625388,0.7019306211463745,0.7641541095610116,0.8142584633485115,0.8511478318653727,0.8713953469292095,0.9047972344868884,0.9428708112502713,0.892918439376148,0.8081628187048471,0.7196481857103159,0.6299779972037303,0.5373343077814352,0.46150782442001037,0.485770476912496,0.5753438418439898,0.6625387187286602,0.7495090210997168,0.8178381408974671,0.8121506337876525,0.7797804862751265,0.7793840438930577,0.8082178913153168,0.8197222477643589,0.821849189779144,0.8068389157280287,0.7802549989931229,0.731119092566823,0.6850188963760622,0.7035509676658611,0.7568054476651205,0.8109881601294484,0.8420267075774461,0.8628954525350812,0.8987565033000213,0.9261267829651421,0.8695859935720731,0.7839197842473395,0.6948870854697811,0.6025099192872152,0.5330540324694804,0.5732155287396568,0.6645200863402985,0.7505056303579853,0.8172296869253763,0.8141874074570281,0.7867779152622754,0.7527174661992271,0.7680263993210548,0.7898519330518534,0.7905080236628781,0.7807203917603045,0.7674325368696853,0.7377420884921364,0.69626571566337,0.661634549647244,0.6976380085867291,0.7502493997007678,0.7874060572922397,0.8110677398776662,0.8461814964735237,0.889056049321554,0.8553774078201866,0.7731904770416558,0.6814939871208276,0.5871571789137031,0.4938463447641752,0.44189661016021486,0.5071934269311373,0.598003476579068,0.6849821507410794,0.7597683753660154,0.7720024982418232,0.7386040625240713,0.7137842705458921,0.7508991668389231,0.8055147632098805,0.8474239027777939,0.8965075344210571,0.9509555463573314,1.0,0.9848849445816303,0.9534273636381096,HB
0.1859012916862598,0.26011841264129376,0.26942312554929926,0.20373176979267493,0.16474740993141535,0.10911218067564288,0.043852908170255334,0.029961309501212452,0.07347128815770165,0.12384782466205746,0.09821674965830096,0.09581430117818102,0.14792468136371684,0.18985744317559694,0.20969142491214232,0.2515955309451593,0.33249181495785296,0.40979054266328363,0.5026331556386326,0.5983136603237537,0.6939495163021149,0.7790022887370746,0.7598259819933771,0.6702217315040929,0.5762438388089351,0.4821501962300706,0.38427607233499994,0.2908144695546505,0.20440236292816627,0.15435717011274253,0.1468861832685574,0.1277974487916288,0.14841516394370047,0.18953542388382727,0.17682205848499788,0.1724680250072571,0.17700834554106726,0.1653060447973359,0.21634940077508247,0.30705673522645693,0.4019199061125597,0.500800701017858,0.5979042831262452,0.6888864028733946,0.7093772899752496,0.6274177877800503,0.5347570065914228,0.44024756714497804,0.34661670306431225,0.2547775567864722,0.16937340074319807,0.11854921142204244,0.09184485066651071,0.055394044806738596,0.06564445020011711,0.10499068768853059,0.09547604598033,0.09572323142601646,0.11124371123196275,0.09951158302936502,0.14714850304157434,0.23771418997253135,0.33183034659345945,0.4276687841533521,0.5237855039963303,0.6190153052984725,0.7072566529072494,0.7040871239508121,0.6161200251140077,0.5186472997040831,0.42271269806900447,0.3292489765573593,0.23566953791884881,0.1440309187994263,0.06325584827038899,0.01725799448297527,0.0,0.039980105027340285,0.13074231330186226,0.22396185456537043,0.2959634546936748,0.35091871296183663,0.42006194596658564,0.49540061473549823,0.5724599001352807,0.5708051560246522,0.5033543736624416,0.4494395686371383,0.4728745721549462,0.43371081939359557,0.3423465343125697,0.25205334000795265,0.17536457461753863,0.12477934343389918,0.1463552683439383,0.23665593849956756,0.3309668686489887,0.4180058319446903,0.499073451116968,0.5890981653861643,0.6842960499470222,0.7215813068962725,0.6469654978664953,0.5536588063935596,0.4591744390486098,0.36554856895821286,0.2727610280789895,0.1803313072454743,0.09464839331941033,0.050056794974694396,0.03493368038388178,0.024084031669187267,0.06225359430433752,0.1151446786036342,0.11628779908715636,0.10905190380548302,0.13078271615748627,0.12856563988850567,0.1788832474788743,0.2694829653846066,0.3643718203160883,0.4592365628790628,0.5542824453027416,0.6506716205059605,0.7489352346779127,0.8385465396891504,0.853720171766483,0.770967959993993,0.6772750825247987,0.5817821216184696,0.48697439211305305,0.39230252683150624,0.29809408214055055,0.20723827646011272,0.15985962837650336,0.14300817234020913,0.13883732313690078,0.14949404970411473,0.10671105772244227,0.05702574992786802,0.0549785985096195,0.07456445833536873,0.1271123480446551,0.21244894552475746,0.30399706481039324,0.398073980525551,0.4966249540897131,0.592092859837369,0.6844149504396985,0.7781652597173571,0.8712194122862956,0.931982225762534,0.8804823423045308,0.7885558553870574,0.6935692749570496,0.5946268163086773,0.49563514279583,0.40029580399510845,0.3054376832884219,0.21408224412698862,0.17349543543003898,0.2325111400583345,0.32085427680208467,0.4135989645368522,0.4947448188889495,0.5100740384125427,0.4954721843924882,0.5581247654530669,0.6246107515463547,0.6235148794781319,0.54920673310647,0.4701790364441375,0.3973910948253855,0.33699056038750597,0.27464777087676395,0.18944218247709943,0.09883876691164761,0.03290190694052764,0.04247801348162694,0.10079205947096848,0.18818867645006476,0.2805704170576916,0.3737860713376847,0.46744800101673867,0.5619978748522442,0.6550914158486058,0.7480590944801878,0.8412923242708404,0.9034032123724541,0.8489146320905664,0.7565715276498636,0.662647752986716,0.5683493154758511,0.47165710654106097,0.37680948325050967,0.28077284015573933,0.18963857987069155,0.13924479814729784,0.1234881711479382,0.11241543967191359,0.1310223310105959,0.10556068957336395,0.07721656529531551,0.10816068187598515,0.1355371161101181,0.17540168824812985,0.2631594396231204,0.35736248677878,0.45152073822392425,0.5445763122614681,0.6372217220744413,0.7308977834234981,0.8243505470078737,0.9070775695588355,0.894120839371361,0.8039164467047041,0.7109548246454894,0.6264508128222598,0.5318905206991952,0.43784961560315117,0.34341257446615103,0.2519655686930776,0.20208283076284317,0.2026969622202458,0.19473115247525874,0.21649000473353286,0.1986045020972692,0.15701154397672,0.16161350076194736,0.1753422763050344,0.2207829609410431,0.30756952180213115,0.3998679277553959,0.49312000192815153,0.5870963743571885,0.6809441603986633,0.7760558137316526,0.8728084473442951,0.9638529327623017,0.9999999999999999,0.9373260281370678,0.8460380864275091,0.7512829878383648,0.6561866198755709,0.5600259661314736,0.46463086582927005,0.3684985917146265,0.27757031841257584,0.23236899848697734,0.19883523733014508,0.1696251676603372,0.19329213929118694,0.24242049752793815,0.3112578637143303,0.31412344337016707,HB
0.888495492270555,0.8935220637248629,0.8503372284881252,0.7965020588463043,0.7757015345057845,0.79123527132276,0.8014667229102506,0.7992174531764207,0.7776204039516956,0.7613643023289824,0.7770433216417441,0.8182237623169726,0.8166449213313001,0.7376662335552089,0.6523378563646653,0.5677754997415716,0.4776020428899741,0.38202885001196907,0.2881248465568709,0.1911348372219812,0.1037033412837689,0.031162056318718045,0.0,0.0720747037467353,0.16861334766003688,0.2703726402952611,0.3672376904322081,0.45563006255010907,0.5388902800106232,0.6292782624552378,0.7187171444094642,0.8006382160467507,0.8681700431594874,0.9022409278689583,0.9088871659691351,0.9226175587689684,0.9349091864114982,0.9064273822129396,0.8548412968679389,0.8305583331819328,0.8377374546824721,0.8458397738248771,0.8241651809217079,0.7940228572925048,0.7611484603516849,0.7612795955469565,0.7999256347071875,0.8385916830136659,0.8072310335061947,0.7199666769702919,0.6347809828358308,0.5478599452965247,0.4550863968426986,0.37453707775976497,0.29122757884610495,0.19716201356260865,0.11742793314672473,0.12399398124014538,0.2008055369096382,0.28278062194639375,0.3682940367145653,0.4628715933079912,0.5614899966027251,0.6542043998187792,0.7455382460329474,0.8238356416938128,0.8742941613536763,0.8641357219576811,0.8569683513993025,0.8649629444905329,0.878602631074098,0.8470775755106621,0.7944063527380865,0.7686049632081515,0.7712678597403972,0.7846157218176508,0.7911838280512071,0.7692246934710629,0.7340659656247075,0.7268818859765946,0.7539572875517815,0.7978175559138176,0.8059427138783455,0.7307700319372834,0.6429308161879008,0.5579394418006114,0.4651154158826829,0.3720084861566013,0.27684214640404803,0.18213866847551907,0.09033274274394487,0.015220974560631317,0.03805802591458418,0.13453274649597047,0.23363044435751035,0.3267092435890342,0.4273405857791188,0.5211547585520837,0.616766499148218,0.7078568426913876,0.7943594365644058,0.8677065180372192,0.9208587358955842,0.9401804073694311,0.9525788962054837,0.9598746362952111,0.9325902008885978,0.8783809056378471,0.8475650138146362,0.8547103462465657,0.8643222106961332,0.8629128671973436,0.8380447765028831,0.7964901416866483,0.7813044716161077,0.8136518463629507,0.8546274658569504,0.8260476247146749,0.7409296215481114,0.6544416935620718,0.5668897408831091,0.47318565599987594,0.3807064231486057,0.2822293122020334,0.1908336340190151,0.10849291374461467,0.10796260674708802,0.19799398486638586,0.29983391728241293,0.4013133674951126,0.4952227678693799,0.592613268826214,0.6851909027050815,0.7715646851124769,0.8488400311613751,0.893270479988076,0.8889463832117561,0.8878957512550285,0.9086353787322741,0.9359648097318958,0.9286530872986212,0.9274487178506952,0.9368849741331509,0.910880284223506,0.8504057087957027,0.7638978033600303,0.670541553182104,0.5784494785972598,0.48510010423047767,0.44280264768322586,0.5168451321132697,0.6077689670782338,0.6933240659743616,0.7764965220015767,0.8553559296203479,0.8977699958003369,0.8842676354762029,0.8402695419454072,0.8351510557904571,0.8702651681480067,0.8973731219908643,0.9065009960571044,0.8976765593473901,0.8884309766217255,0.9223126296981323,0.9724895579254793,0.9999999999999998,0.9965289239478141,0.9818597219165499,0.9682279312767104,0.9392701145517297,0.8777542188733223,0.8021672647876763,0.7119481046618283,0.6135967417476744,0.5364246904439591,0.4441706683190152,0.3503542083352016,0.3600247348822616,0.45531165000982776,0.5465357238297259,0.6328210473362028,0.716073049192659,0.7995120922471612,0.8545205409036083,0.8451722788303206,0.8064571316442029,0.7739749069104225,0.7888814253725036,0.8188322412284676,0.8302727756268073,0.8210400757546987,0.8127666837039504,0.8248684934020891,0.8710837955050474,0.9110022097564674,0.9126615953812347,0.8972178567984381,0.9081157280475838,0.9161343935841242,0.8747705461238493,0.8024229091028727,0.709137901218863,0.6160772955935128,0.5174154158879081,0.42359078643816894,0.37981121563144415,0.45518630637330815,0.5483612601180325,0.6366722213908351,0.7165732183976157,0.8011089016761777,0.8707311104455184,0.8817965819658007,0.8480051787441225,0.804558551027392,0.8200970340739031,0.852799613237331,0.8793471996505791,0.8886925070116345,0.8735462062835879,0.8799248932118429,0.925857563308836,0.9711993968113088,0.9761449891947216,0.9569709394018082,0.9455135231648748,0.9340209528142591,0.8912548663625823,0.8247014862099762,0.7437358793641871,0.6532722663162833,0.5533434022538595,0.4701822514297822,0.38563506382188395,0.30543957239613784,0.3510573543376736,0.4427167575062785,0.5368447559469101,0.6237394603580295,0.7061023350121731,0.7892671279761425,0.8566920278175585,0.868854480506897,0.8348328901273983,0.8003856788384536,0.8145577198723817,0.8392072944355975,0.8426476820359581,0.8314848023244001,0.8224139118354084,0.8480207996322096,0.9029385349909964,0.9377910268184733,0.9333367397219334,HB
0.7973171423172434,0.8182200786962741,0.8324812430834707,0.8193578509419224,0.7907996274739384,0.7501193555812504,0.7338556256847681,0.7556362431363834,0.8049627586140753,0.8434075854486487,0.8351090493911699,0.7349313925290661,0.6179951155035357,0.5019271943597925,0.37612939525839995,0.2577990063065658,0.22644783144676994,0.31603006469334316,0.4277234349124899,0.5356863600978499,0.6427388056242509,0.7519806709862311,0.8507453234229518,0.8773256464925545,0.8531863804001598,0.824348276585213,0.7779032340316809,0.7256396895289345,0.6913171550626585,0.700837606908737,0.7512486872839492,0.8006830486168321,0.8197378323596611,0.8264674727542687,0.8149629546696495,0.7922601177701063,0.7492602334023717,0.7254102970289646,0.7503742049100985,0.8040824546292038,0.8355561653643329,0.7745937086570414,0.6559782748546055,0.5410971218051834,0.4221630905321261,0.3107991663481964,0.21644256573061726,0.1286360957361663,0.16410074518375328,0.27067453756515913,0.38297502997005184,0.49606355473201047,0.6099591916963334,0.733544342249365,0.8322451008317895,0.85391680705815,0.8301921610583647,0.8103855232245145,0.8051306266309677,0.7741973557207058,0.7440474247667668,0.7598244096832638,0.8146825133114333,0.8557896239472642,0.8708595089290454,0.8668086065806397,0.8471621893999939,0.8188390773565777,0.7764333653604631,0.7510248789040843,0.7801647271657264,0.8302178738301609,0.8835061511697622,0.8919858239320035,0.7911834843132328,0.6760047586151505,0.551110124517276,0.44790715369023015,0.3521495265222039,0.22956617129455736,0.1283914309972074,0.13202299816718055,0.2409104524608665,0.3541478450723856,0.46587263104648935,0.5702394484633535,0.6619575850788038,0.7728913376956545,0.8690206698849074,0.8860780911520472,0.8772184199219435,0.8564836695828952,0.8247338907969972,0.7686058179414044,0.7136790670382798,0.6913512168200553,0.7318246770117423,0.7916033258307804,0.834700708014898,0.8526881258801131,0.8588897745837185,0.8497720476956196,0.8257662558292056,0.7929573501702811,0.7362881775798944,0.7326724060803183,0.7866090158898,0.8363209631323647,0.8414500846396962,0.738851547549694,0.6251048120807319,0.5047724056291694,0.38556510543435873,0.27070504883994806,0.14738330918146403,0.04077978420848716,0.0,0.08888478593151117,0.2025710524274804,0.31949224685434974,0.43126377592054554,0.5452308304554574,0.6633896629504408,0.78698798610468,0.863531753928942,0.8662904189236409,0.8412558992179879,0.8105672439566853,0.763484066017341,0.7086205081988624,0.6737835866901296,0.7070614305986456,0.7677427330249325,0.8125112752257446,0.842089360150279,0.8528169956823191,0.8443072134778906,0.8400178390083046,0.880724805531834,0.9073462377184653,0.9142168665064343,0.9003755453567308,0.8891628866594434,0.8498973037249544,0.7994546765093715,0.747132315136763,0.768705715121317,0.8236754722331083,0.8621208592562049,0.895628345744298,0.9243122832264552,0.9337008699623026,0.9011362136383059,0.8078805088621461,0.6955920776239877,0.581760284417538,0.471009534906337,0.4751995869191372,0.5932973971934992,0.7149653414661064,0.8276325942078322,0.9393104234259257,0.9885925381623504,0.9340865778740715,0.882957116939949,0.8324603287801984,0.7850768162645605,0.8192161005614533,0.8697896605250479,0.8885112641320929,0.9105241910230397,0.9102862917766905,0.8972519003198371,0.8809056914850584,0.8444739286415976,0.7798829852396998,0.74946039164977,0.7968379869140065,0.8568009229507023,0.8959738300725641,0.9175306278091138,0.9370491711940816,0.9609130502654484,0.9275104952481952,0.8340706591320717,0.7257948705821851,0.6278233621089302,0.6657043610281081,0.7866303679607891,0.8975976695650765,0.9957829210819527,1.0,0.9408218862654252,0.8884981844484923,0.8399070322281137,0.8191830669370419,0.8528354535923737,0.8893542385327278,0.9082621599622196,0.9163118465168467,0.9152958317987423,0.8998340886330514,0.8620830373198394,0.8065796832994057,0.8099827783223068,0.8560521558930194,0.8710231777918933,0.877901333011804,0.8939505297401871,0.9224186398656999,0.9004520038256829,0.8060774969800883,0.6982349665845411,0.6128196562872636,0.6714787131169162,0.7880087192107492,0.8958783382410971,0.9553921090435042,0.9137606709518171,0.8670091000059377,0.8132092800144632,0.7787784913829738,0.811374981822822,0.8501448117133772,0.8719638992396437,0.8791726058987126,0.8784753422491973,0.8587331830721423,0.8174364170069106,0.7668945652866843,0.7487520462588413,0.7953339335419751,0.8443662204581437,0.884140289853284,0.9098104605146209,0.9323705226397445,0.9394637398774259,0.878020738115461,0.7748642456164463,0.6745633036245562,0.6142587744895684,0.6789753570195503,0.7948932108010425,0.9068637846714207,0.9760155858227506,0.9313946741740344,0.88674829057498,0.8397618733663119,0.8001438715013225,0.8116233510975248,0.8443330122070924,0.8693121680001688,0.8789892663657053,0.8723713585461348,0.8589324842933435,HB
0.5572727132520467,0.6173710220921202,0.6820101723864762,0.7063773201609291,0.6574455006077802,0.5863212399427102,0.5573543090873054,0.5908321878020579,0.6477332611434954,0.7180962014793586,0.7738308289936047,0.7533654015943607,0.7037233543978496,0.6464717370342747,0.6556525187200974,0.6403646937259801,0.543920401375884,0.4404449449741914,0.3387159731518665,0.23362163695784743,0.13320251168120278,0.0331503571364431,0.0,0.08485754928448053,0.18493243315329577,0.2915497730975234,0.3960956906203199,0.49715695455124576,0.6027013456805592,0.7024876553153443,0.7964997365713387,0.8228715197820102,0.8030395662340062,0.7624097297168952,0.7194863826048317,0.7330840518380584,0.7984205433037721,0.8623688510721632,0.8847252073478269,0.8740852829435839,0.8471901995644571,0.8659177764417314,0.9074312534024542,0.8938960836723162,0.8028804839594272,0.7034560954411249,0.6025126042329938,0.5000282982943711,0.39890467261107765,0.2949514717227495,0.1986896362443049,0.1841699410043447,0.2746617844541337,0.3758059337217019,0.48061278587107825,0.5812305718082529,0.6879248312410606,0.7884912830048476,0.8791121943478348,0.9457316606102117,0.939046037334665,0.9095248520765187,0.859061641664451,0.8033432677309373,0.7994890193867317,0.8341752721735283,0.8354421592181036,0.8184246222153595,0.8103947987418656,0.8350734135397426,0.8556469819644561,0.7831037182406504,0.6850336247994362,0.5838100536242721,0.481991355946209,0.37770921572179716,0.2766268106373917,0.16989294088316131,0.09708047021799637,0.1497114102476791,0.24858556504371543,0.35438274158221006,0.45458505981989683,0.5606536896592298,0.6636240684900769,0.7655395253364627,0.8555214416227974,0.8705697883413188,0.8457876828109365,0.8067238281147242,0.7701805011792595,0.7754863477198242,0.815871573614547,0.8280895986783319,0.8251040749203988,0.8151789084289356,0.8194810018406715,0.8544169910736605,0.8525439279901381,0.7628966068900753,0.6592870352994058,0.5580976844255396,0.4573752319271882,0.35342087460938854,0.25284539087679514,0.1513420968595447,0.097302058466599,0.1629392850015785,0.2642230972053232,0.36698815045773303,0.47040077741668607,0.572314843152884,0.6798131747385101,0.7866592718561665,0.8707853061728372,0.8725617947873341,0.8445007060091712,0.7982208417005183,0.770223491867672,0.7916228217653671,0.8382823659312093,0.8578724032418061,0.8654785225375796,0.8512091121890735,0.8576316131782358,0.8790622804811106,0.8198137926516214,0.7207841474008823,0.6203322936250788,0.516246769875504,0.4157868733366532,0.3130299621892012,0.21242299691774935,0.1152027930174837,0.11729754607650889,0.21363501841880828,0.31385142141636724,0.41955740083855875,0.5222099080295257,0.6247383023808488,0.7266346711331724,0.8264900723263351,0.8846985344411715,0.8679478532761657,0.8268708282333095,0.7772593593197852,0.7651352714983601,0.7922621094567559,0.8111844127938033,0.8635399175985661,0.8966914172471274,0.9230787196517329,0.9352101559706427,0.8695936546977445,0.7707904089289734,0.6678414716613137,0.5637941711461845,0.46410453796380824,0.4220585289938623,0.5030688356874644,0.5898781173909216,0.6943912758184851,0.7991930403492675,0.8922867322540933,0.9439536620989668,0.9204320530053391,0.8895667002002592,0.8891043124499503,0.902192878715639,0.8923657262958118,0.8776411796379511,0.8371720848484618,0.8124920252070957,0.8460486066419717,0.8892429074877082,0.907979168911148,0.9185399666602987,0.869781104996374,0.778593835765115,0.6948006146410004,0.6061958841924964,0.5377154839704312,0.5949962969384162,0.6961901585216606,0.7972002541859089,0.8875275882120803,0.9139326081181998,0.8789670171514863,0.8545328343767038,0.8629289600309475,0.868071371863139,0.8683084167798627,0.844316856469876,0.8150576938120702,0.8427020981686906,0.8831387992752189,0.9082723722268284,0.9157098401983259,0.8487443140008879,0.7491806835310761,0.6486634594522551,0.5512062450499375,0.47576833354929415,0.5066439318268423,0.6059421206137434,0.7092827369388086,0.8148074246845767,0.8978065892396538,0.9113086647729471,0.8706394123252299,0.8499423656255412,0.8629810705639529,0.8756367145351123,0.8733449897511891,0.8429028267854584,0.8619882382557342,0.917345172136022,0.9590850014975143,0.9852261287769501,1.0,0.936133727333132,0.8364910485127801,0.7346546440984643,0.6297435809670415,0.5470998608138304,0.586000103552279,0.6915332306888466,0.7935093699992022,0.8931672365798597,0.9636998527565557,0.950892971654558,0.9103877029971343,0.9023956015124368,0.9171948099260947,0.9208312327128718,0.8872993689634543,0.8196912882746517,0.7667909658468883,0.7887813193616982,0.8327091690386168,0.8563562219786978,0.8766159295902436,0.8289872404358225,0.7312395121361195,0.6238556828467587,0.5187476635353017,0.46858891620525167,0.5418983777231094,0.6428118296247565,0.7415110118662909,0.822948373039172,0.8241699060938463,0.7822658034376335,0.7588558198760884,0.7573326958412026,HB
0.6043948570322053,0.6086843856896307,0.598313447308831,0.5980735003489759,0.6050573028850224,0.5836923977059558,0.5997985254061997,0.6259676647865628,0.620373375146289,0.6201722145072259,0.6377133533357453,0.7137325809835802,0.6999861085942931,0.596652258006241,0.4816456471135129,0.35536116155789843,0.2538937720502532,0.14892828524170953,0.0732453273612017,0.12267917035806786,0.23025077310495057,0.3285420422799139,0.4366777565761182,0.5220566274969074,0.5221695445053744,0.4886037414992668,0.4671361730861028,0.4391158801065669,0.42117084081310807,0.4260003818950606,0.4296912754088411,0.39930802413931676,0.38456975872591714,0.39901842379829766,0.3992348321290149,0.36303531419155144,0.3534290654487693,0.3901636925202463,0.40517065253786955,0.43807612627062875,0.4704857466162671,0.5002684579886587,0.5757864720256354,0.6301482426920977,0.5469461819059953,0.44529602607380836,0.3439580926135468,0.217412449611333,0.09478753804430928,0.0,0.016985579552415864,0.09950182425689791,0.20120984695324262,0.3067818911548241,0.4215629311390141,0.5022353469037344,0.5020107984363023,0.46952763349978666,0.4453278361705322,0.4198545414844941,0.4294420089529738,0.4886955768892167,0.5440690694371986,0.5542414147678403,0.5748419898539496,0.5808014252271376,0.5730272680982709,0.5730639106891844,0.5876176780367897,0.630071725535255,0.6532566176813122,0.6852310258626719,0.7426617983585055,0.8357301666446513,0.8211900468530837,0.7060289277599971,0.5860077563410995,0.4618282124755435,0.34633072280810984,0.294043053149295,0.34539164647329557,0.44626801054296017,0.5519316212463901,0.6535949553269047,0.6423664562134817,0.604326979770593,0.5751709845517028,0.5332376611672518,0.5070996475106035,0.5086762852053321,0.5123205459043727,0.4961636446119604,0.5352209874269729,0.5343417668058783,0.5361648017019149,0.5286835467453965,0.5216990626311846,0.533854376929277,0.5503761814014956,0.5581327718931073,0.5576967361853624,0.6112518634430497,0.6944689174924017,0.6401974255226248,0.5257085816885554,0.40012562703744914,0.27729513223963664,0.1558809347546508,0.059093957997036206,0.08010326762829312,0.1751009563170456,0.28922411501647494,0.3847550248999352,0.4981702508039465,0.5763224222407928,0.567602013197781,0.542101538179248,0.5285990765358703,0.5286986987466586,0.5480621286894558,0.5505745958109975,0.5096958243389351,0.4914104707687992,0.48364347970473087,0.48367335362380626,0.4948535290064373,0.5439303645292473,0.5428983698841265,0.5412306705023626,0.5579807849748368,0.5717131818657495,0.606325686811215,0.6373046129861222,0.6189882203245785,0.6050686014450601,0.6180876772185155,0.6273096688355535,0.6434214535632639,0.6749200087196288,0.7218250250321172,0.6578175324664444,0.5445628067048571,0.43170742662820505,0.3363439494543101,0.231599654993353,0.2692038151098344,0.3938155936078571,0.5157237621355386,0.6334783081064059,0.741055298202633,0.8294116829667364,0.8445167662592996,0.744593107993575,0.652644800923198,0.6446686102214141,0.6481754662834032,0.6273821713957806,0.5983382075320178,0.6039476226523091,0.6062236527133478,0.6279011717052727,0.6529718880372597,0.6057205146768019,0.5924283714427867,0.5916517848261846,0.5716129376714636,0.5926654458458769,0.6313396068641666,0.6653415872703321,0.7036511686283529,0.7660789450970946,0.75701015203706,0.6722037506817289,0.5430099684582474,0.4443797921578132,0.4627811267422728,0.5811209458646314,0.7008254271876289,0.8101237449671763,0.9146949775405964,1.0000000000000004,0.9801149438972092,0.8812939167374272,0.7867400836539287,0.7305700641096466,0.6990863812995882,0.6712980243065303,0.6331377415865376,0.6266011224446162,0.6376667826840814,0.6574767625579527,0.6346425201558961,0.6264081557701848,0.61172245403217,0.5507901028224587,0.4885714009116726,0.49231458384313154,0.5437007906371418,0.5486641670865562,0.5611674455589366,0.5872392520618335,0.5587833210539834,0.45850570863735207,0.34252207794085754,0.23496505889009756,0.1403141816947171,0.16138410496041722,0.29581660214926453,0.43052725392974134,0.5505225565811771,0.6556962532057882,0.7478840477467079,0.7656798802060489,0.6716984403625803,0.5727702068297429,0.5354750100878798,0.5147538791824373,0.48277707068021813,0.4669765467346845,0.44413479772834874,0.46737686691676394,0.4833347005476627,0.48440402571857977,0.5139706644530477,0.5311674690719688,0.5195762991325985,0.5054306055954019,0.5377706747848259,0.5624171521379822,0.5963199023857171,0.6036683410785453,0.6542303279438695,0.621585914981027,0.5403622138262332,0.43489162651074187,0.3236887867825118,0.2571111022023165,0.35174877627380496,0.47379754576517286,0.595234878833629,0.7012425442171231,0.8103245799320735,0.8956976371776402,0.8640613686065994,0.7633489683310923,0.7091946966516605,0.7084184014858721,0.7260386069538418,0.6964474361408439,0.6587324415182927,0.6652496432285777,0.6759324965819125,0.685567541910379,0.6739104617445961,0.6898662574067145,HB
0.542820908797983,0.5352614574280601,0.5893131668039153,0.6404143752853084,0.6504578136308927,0.6235889320596377,0.582255191000534,0.5862931176839132,0.6446722759180661,0.7094172288949463,0.7051844874680735,0.5979701467299017,0.45718860414220597,0.3188348012872724,0.17708961470547324,0.0680941563689994,0.02072788109171686,0.10879572448616903,0.250953247141267,0.38817171451769417,0.5390610180326862,0.6890563977156572,0.7598464764783102,0.7336446721076375,0.7136187904745595,0.6663378800802398,0.6008040970894752,0.5424990234563971,0.49822513702054483,0.5262392830295157,0.5879283082882751,0.6293754368826026,0.6503683912061526,0.6372781911518297,0.5891838488946077,0.5911491942756926,0.6497835666727796,0.7193771027916731,0.7376761195825967,0.6450662378442926,0.5110585433258827,0.36994331284800186,0.23067681593250056,0.1145371461964384,0.14427453472628304,0.2741811145270039,0.41735281715888384,0.5568757640898427,0.6928098785235126,0.792107415839737,0.8051190096776026,0.7767862826911331,0.7403817635275223,0.6844288019976474,0.6126435397148482,0.5411296152875096,0.5103898926722117,0.5486658370923534,0.608959927198689,0.6478561272525569,0.6497221652073044,0.6097416918626006,0.5775589393494971,0.6046306717992902,0.6751826136581518,0.7562253835445043,0.7588714708615565,0.6452579861046321,0.5059002948988236,0.36075944263707393,0.2193462145578029,0.08219698531107333,0.015813843980732933,0.10500768858291298,0.24048075514517553,0.3854544838580587,0.5227941112486936,0.6699404722268532,0.7976880363026511,0.8301286769320275,0.8122087622278351,0.7740548274597239,0.7197339206562394,0.6494673222384142,0.579519806740481,0.5542053942917469,0.5975374599139966,0.6459348844317634,0.6779919687695184,0.6843948591497631,0.6416300308475265,0.5978076862850195,0.6249565617601798,0.6945594863150428,0.7640033110771425,0.7472966730510748,0.632262607790052,0.49324661147567594,0.35429733437505817,0.20702343209527507,0.0720715992432539,0.0,0.09316348367520488,0.23422556298699426,0.37271966797245737,0.5182887712568456,0.6575683307480666,0.804328538570565,0.8703268559053075,0.8491342801998951,0.8208684391282342,0.7696439695205308,0.7106592978430459,0.6584427813317499,0.6393874456177904,0.6851361144262769,0.7505799267265156,0.7804873845001024,0.7894099143307165,0.7544716437952457,0.7232059680606735,0.7546833967473088,0.8169954908486528,0.8694394427059744,0.8343665838141194,0.712454655016237,0.5664593672176306,0.4134663682865676,0.268364533368195,0.14608896141859917,0.14165152705396,0.24086847457697713,0.3667740251100078,0.5052987617127118,0.6504680436210841,0.7892914428061846,0.908684421617485,0.9941550441956304,0.9728615638717177,0.8477861453320421,0.7111865080825144,0.5887318346458028,0.6402433789842883,0.7770370822400561,0.8945960085768276,0.9510638347646365,0.9272460118636774,0.868184134456226,0.8048942255033626,0.802575856621965,0.845897407359629,0.8583641019332435,0.8454099759611093,0.812024914733454,0.7492245198282972,0.7005083676007469,0.7386526511135103,0.8010815693245559,0.850601844439387,0.8899660196923844,0.916813690549322,0.9645142861088396,1.0,0.9176730966055091,0.7745240871099903,0.621465325939619,0.46958829294709803,0.39531428981672434,0.5066588675382713,0.6449156766244655,0.7708715066140397,0.8539074626178715,0.8425879450662932,0.8021429623043232,0.7255732867841784,0.6780862505507668,0.7118364680135558,0.7435010859788451,0.7440256514072168,0.716184224983829,0.6697051453968381,0.6316550699806487,0.6746138691961598,0.7415617721058121,0.8029147792981477,0.8485732665614711,0.8784672684792163,0.9212304079807794,0.9624663270596283,0.8731443952751712,0.7381050683064241,0.5910745155500723,0.48111908631851374,0.5394372849098459,0.6755344171153199,0.7957183048193448,0.8477316145717069,0.8216836109179311,0.7517242489093126,0.6783371508627827,0.6605153776189776,0.7028193818977249,0.7182748230865057,0.7030560412160773,0.672884865605857,0.6180115169863067,0.5909204447847984,0.6433805369091847,0.7171261456042664,0.7794916875088096,0.8235377088807287,0.8518550282141031,0.9044619084390519,0.912415407661392,0.8025847675487694,0.6666596599496177,0.5453974613479309,0.6084542189168642,0.7304859912730661,0.807642072655911,0.8101967716668765,0.7685255528989368,0.6906289074722287,0.6617630776816452,0.6961782106977363,0.7174841969416166,0.7032407652802086,0.6783078150475954,0.6291663122738971,0.5762304651667574,0.6017630088169064,0.6625749582092242,0.7261535396027425,0.7664883636225777,0.7873435281213537,0.8385897020155944,0.8964409044487671,0.8294510865813955,0.6926566436319126,0.5557287699167568,0.4372583211234886,0.4977706561818618,0.6374671624680803,0.750179033677032,0.7957015149265421,0.7707801383753221,0.7076706533463315,0.6497637878253841,0.6648912709394836,0.7064906346230964,0.7199141938546125,0.6992312938181504,0.6566117286973743,0.6020148140743333,0.6219869473274455,HB
0.5903998682185848,0.6533168080044772,0.7001909553216715,0.7010906508298772,0.6323263932385282,0.5875914038411009,0.604072570208985,0.656805350148027,0.7215011098404599,0.7525856911542715,0.7347123199735571,0.7472703722301949,0.7555814108205009,0.774174063545347,0.8099930984642917,0.8392018115388323,0.832574459630501,0.7547481550067866,0.6611108852941189,0.5661694634971189,0.4682562905878159,0.3723163153505805,0.27654650399524305,0.18354617717910626,0.08992659202713016,0.005813010287819109,0.019934097270466355,0.1150679609144798,0.21316621390594004,0.310369043628958,0.4120946529592352,0.5092656219520971,0.6074250434324188,0.7086330985668615,0.802580728376561,0.8466920516351734,0.8108297357134399,0.8054843438139226,0.8150278441393576,0.8396760335797847,0.8613884687793704,0.9053055977121701,0.9007032452472353,0.8817345831054545,0.8930508801232605,0.8871948304390053,0.9024819940803329,0.9318015826505684,0.9337894699904447,0.8626192878531284,0.7694322286457708,0.6748278196215597,0.5789155125166615,0.48324276878832884,0.3881619198897207,0.2931677353542482,0.19696190461501806,0.10130964510258944,0.03294143914681702,0.08157334701127661,0.17975025227487695,0.2755414596336425,0.3767020541367817,0.4732116437756376,0.5721163330482445,0.6729884387198758,0.7684566938860261,0.8665923157117471,0.9081692018336301,0.8810743943783014,0.8625174811751654,0.8477864504349243,0.8401004341423891,0.8661087148207961,0.8856807271090102,0.8481716050814562,0.8479186209936779,0.8379652671028749,0.8335591989246044,0.8591293590298007,0.8857490400160767,0.9001555883272699,0.8595175063946979,0.7689438230802031,0.6729402055307024,0.5763649558027627,0.4812930772690406,0.3865116077770626,0.29662251227329284,0.20750365009374183,0.11154109960016956,0.046734430456515264,0.08479483727273629,0.15420073867001838,0.22650392242309647,0.31659334353061486,0.4178726379976182,0.5183097412600056,0.6138492094113629,0.7147282832223881,0.8088140673361118,0.84167111530967,0.8020646355776576,0.7815317863712278,0.757306578277206,0.7435240274457814,0.7611828222013978,0.7903391240872085,0.7619978473167498,0.7502199101246182,0.7457335437228682,0.7495682757987009,0.7646902417189642,0.8068636002240505,0.826752272720778,0.7791066659177351,0.6875384467332303,0.5906063781535597,0.4957738650191229,0.4007779955754548,0.3000254773206953,0.20162039086817407,0.10668850903448646,0.0179331341793717,0.0,0.08539739727722684,0.18224988296487132,0.28059096255580074,0.382580200080031,0.4818474856538967,0.578071273505614,0.6794384126986893,0.7755702183297285,0.8457083628773295,0.8200599267377274,0.8068576577340952,0.8230383224973529,0.8417650775535018,0.8514743113439612,0.9131607219009966,0.9850252393456264,0.9845253263542458,0.8984675199324624,0.8050041065519878,0.7348249280567657,0.6642350514912964,0.5765627923478437,0.4796118102925394,0.37785069212124733,0.29157670215962384,0.3157918300459296,0.4074892163360223,0.501402599801917,0.5876145621402055,0.6778039480640242,0.7772232711504915,0.8546820947013695,0.8618620198388102,0.8387462972528953,0.8032921708842303,0.7910195521193458,0.7981648303140197,0.796202347019762,0.8017169990136134,0.8280229880112898,0.7996005709381998,0.7953177562662054,0.8108780529007525,0.8342849155606528,0.8516862551248904,0.9130941085665613,0.9686236948870043,0.916557393687048,0.8216294504883915,0.7236603904960709,0.6253856650696238,0.5284057947866737,0.42692766535822935,0.3355212097227841,0.3276853547090205,0.4143276786168645,0.5091845191898466,0.6084487307853951,0.7102991302592566,0.8052064240304785,0.8834986938648665,0.9336611255702799,0.9371774158284468,0.9207408827493037,0.8855959866624864,0.8715484662512761,0.8781821880825079,0.8837735388493636,0.9223974641332827,0.9239129066919333,0.8838150379562765,0.8816796424523549,0.8924738890181786,0.911824749567583,0.9376965613528784,0.9919857703144678,0.9753453441207224,0.8839407459722844,0.7878968452343459,0.6886685923358283,0.5870823164482714,0.4935937120149828,0.4663657845362573,0.5473329522246962,0.6420370647272512,0.7364319731185939,0.831952440957291,0.9221777555491658,0.9839244036784173,0.9892918341937592,0.9609158738837268,0.9296963722503905,0.9251674355209326,0.9343374497040681,0.9226683884613723,0.9441535263101634,0.9432977756705409,0.8957293181668319,0.8685351892537722,0.8540130120718054,0.8502932193032989,0.8717805419941657,0.942978559941621,1.0,0.9514236479936068,0.8554105786073612,0.7585308459743098,0.6568160650568414,0.5593126208207472,0.46149550050468824,0.35958449496795997,0.27347121531914387,0.304973304688151,0.3984615588363202,0.49498761908875355,0.5916970095723298,0.6863714342910555,0.7730136342965118,0.8499056584721146,0.9011989793198912,0.8896247085384631,0.8536670178816651,0.8118149788817909,0.7898531244818486,0.7844666227602234,0.7883198243338735,0.8063440347213234,0.7741594377283684,0.7673314503463701,0.75834042781974,HB
0.7373574808585893,0.7588016965139784,0.7839669017691443,0.782482620863448,0.7552961897107925,0.7461061955788529,0.7758944308746051,0.7635091145818095,0.6842044780214073,0.5905364103883256,0.5008485003044797,0.41005857556191694,0.32041426478766366,0.23137981122264784,0.14267411223036752,0.05529192673131589,0.0,0.04603800307442785,0.13845257520281395,0.2278516132689382,0.3162863565616846,0.38757488485501834,0.47315852260060864,0.5640013684843256,0.6583838847403579,0.7476655666530957,0.8354588583680408,0.886669857765494,0.8846479782601274,0.8824998127207581,0.9025976879182437,0.9407006208586622,0.9584148440067989,0.9065625690281783,0.8346061289943733,0.7749344997565163,0.7488884597032223,0.7598746199523209,0.7849359402908272,0.7934488813827117,0.7702288289541012,0.7558312185046313,0.7755550149343141,0.7604189795880115,0.6813774830709257,0.5934611659540957,0.503368115661797,0.4140880955604255,0.32268350752105,0.2322667626188003,0.14373868338364104,0.059883265219076276,0.011906786389326407,0.06878148790511684,0.15610204966173524,0.24492000819103377,0.32680991550136473,0.3985123253460817,0.48661202619967436,0.5813571330110704,0.6708473761680348,0.7663619985124935,0.8580461127572115,0.9074086438430574,0.8970569099504239,0.8965307513826487,0.9181951675428545,0.9540870848142696,0.9513523065919188,0.8868834634791548,0.8226841121214598,0.7823289400238408,0.7801576996673419,0.805633467321662,0.83650904994858,0.849148889214299,0.820824963098184,0.7915504171898463,0.7935675184529235,0.7900848267839701,0.7255315801290162,0.6403002390896858,0.5511006684968341,0.45517070459026987,0.36267813182335484,0.27388525045674494,0.18662400358057118,0.10429719699130147,0.0684407657013486,0.13229219325465325,0.22012531515014377,0.31372811813059276,0.39865872186092177,0.47209985325105375,0.5623495134422641,0.6520130176959725,0.7445402253122476,0.8272157172657638,0.8411760101724223,0.810011392098169,0.7926515569830118,0.8018922066016948,0.851639648384534,0.8524307440505471,0.7973243512759461,0.7265930984946133,0.6513179982476117,0.5787609681050109,0.5206268390833669,0.4838759507036844,0.4847381451928109,0.534760953509159,0.5988065788070457,0.663497561473957,0.7104191169019992,0.7367462956369589,0.7575938152800988,0.798986384571499,0.8343322831125036,0.7902981070662934,0.7078080512182628,0.6183738520340131,0.5294265432114237,0.4402140895396799,0.3513412766317784,0.2609799349320526,0.18128326415647888,0.1809581286912917,0.2584422318600198,0.3468343912578632,0.4336440661410731,0.5109632711412196,0.5969850344663413,0.6247532144708895,0.5538365717338422,0.4837279677348597,0.3970345458638286,0.3230531771950259,0.3598428104872887,0.4468942955572651,0.5359092675605949,0.6313700665947818,0.7238470775427862,0.8066953363325594,0.8685539238178609,0.8645531014289501,0.8209304956711881,0.7838872728356167,0.7703396790904479,0.7412600691149446,0.6946070750528165,0.6358178037076244,0.5706458437850878,0.5157910030672518,0.5163491000185539,0.5565579762649416,0.6173987557881514,0.688300571959546,0.767878259311061,0.8378987461734287,0.886566656272768,0.9002169096153189,0.856052222524143,0.8271994394453933,0.8385526952209291,0.8763701624076276,0.8883897954805419,0.825017005453547,0.7370018853244767,0.6442845849868387,0.5542640622208205,0.4691619417522387,0.39266268275185523,0.3184183195154934,0.23802544065938103,0.2434671255836759,0.3272787907245608,0.4163324781793155,0.5075374261554261,0.5962300848340562,0.6832511669417073,0.7687994798517889,0.8263879218239328,0.8330532459119496,0.8304726335584126,0.8593779489371255,0.8836500121089722,0.8764300242912498,0.8477568096406681,0.8152902409627744,0.8117593098260344,0.84968216308313,0.9134280196622885,0.9767486514141622,0.9930749772061863,0.9600928875413498,0.9327260307068365,0.9297740851662121,0.936401576666897,0.8892860753764243,0.8061136560781809,0.7157590464006015,0.6255730165082655,0.5299871738489893,0.44185342323587007,0.3677198176853683,0.2871687302621492,0.23278563024230425,0.29507565985789863,0.3842193677010234,0.47466762845229094,0.5644217608504035,0.6532815432460405,0.7403470736874213,0.8050228352146614,0.8156716541691936,0.7900864361513723,0.8033619484094171,0.8282508746066585,0.8206587660714234,0.7976286493721837,0.7839720860337808,0.8154330153981181,0.8801588405014228,0.9515019082201123,1.0,0.9852007887928586,0.9421449875451563,0.9183945799157059,0.9182254112639611,0.9247369161975548,0.8801856576296673,0.8009161588245125,0.7109767830580468,0.6188959406393267,0.5271598180344873,0.4393791210423065,0.36136811550127745,0.2737658787044811,0.2114199363255621,0.26271933933971015,0.351448177891705,0.443382582696639,0.5331549903177625,0.623108102028698,0.6992413283280458,0.7732098928960646,0.820631073196269,0.8097158684312006,0.7774863029766811,0.7921459199718531,0.8198387972910867,0.8189970025783934,0.7943207445424311,0.7729824965946098,HB
0.9498835170720057,0.9408959106548715,0.9034320701154022,0.8607583207966318,0.8321089097433267,0.8075248765375542,0.8214538483868847,0.8555618020325713,0.8293700148465613,0.7409957516252756,0.6388388923710289,0.5417360324310572,0.4392894121973623,0.34165521745012595,0.24059664677678894,0.14244904500714428,0.051037001320046294,0.03684812702696738,0.12191334493513228,0.2189380004434014,0.3207843765939995,0.4234904592972466,0.5205584500472382,0.6231500998221482,0.7222257494893836,0.8115016868822078,0.899739817667645,0.94640178477939,0.9359825593380817,0.9245485828111433,0.8833009154023908,0.8350226000923553,0.8006633460497847,0.7748414739279772,0.7725413512452719,0.8173123919631882,0.8362360227321506,0.7925838871292088,0.7013749222508463,0.6028599457297199,0.5040423719071303,0.40351837815151304,0.30538639285328495,0.2017276748082384,0.09869994177052788,0.026102414006101693,0.06878690925925524,0.16428292667900346,0.2649421652064323,0.3675597311971255,0.46458731915943696,0.5644564452047867,0.6604430664388063,0.7522724946708332,0.8463269405172926,0.9125955232852068,0.9112068549257675,0.9114572864066992,0.8837426471805285,0.8325349885846902,0.802933578920977,0.7907216022437438,0.7778371624693452,0.8176670792132803,0.8434858446885483,0.8065083906793822,0.7271925939809951,0.6281302809924549,0.5307937972150496,0.4301741427707919,0.33248943292750055,0.23047921301555596,0.13364177905264685,0.04793656675957436,0.06617842687978848,0.1608572465817264,0.25786349776958306,0.36044088771101457,0.4586958653354689,0.5589793462032333,0.657252032169533,0.7537492077494254,0.8436192077739175,0.9277507831682665,0.9630543645563323,0.9641813636101841,0.9567363169344212,0.9125772711170086,0.8590786070854142,0.80240964212309,0.7557745335113988,0.7382151486783388,0.7762748215482282,0.8035543735302304,0.7588764895029643,0.6634521327618823,0.5664642382091516,0.4654311685932413,0.36838487103148654,0.2668967898719399,0.16983487923217377,0.0695937561263894,0.0,0.04946597911102435,0.14509106036499508,0.24740858919238295,0.3461989386633295,0.4461361938683124,0.5476960769455701,0.6449790402072915,0.742443398271649,0.8307164057469718,0.9147779808817809,0.9408857991609783,0.9272923693797974,0.9150850904159542,0.8717569814183692,0.8316595531135893,0.8029677185517954,0.7829030012206513,0.8136774198509442,0.8424764106033436,0.8221195374426251,0.7374340881978578,0.6354414965114805,0.5382876509809198,0.4374141217070857,0.34005203147118146,0.2378750325865545,0.1408486870654445,0.04397924547521315,0.010420492471148735,0.08755127652837269,0.18415646551955478,0.2861629319631056,0.3869972378515263,0.4850208676287806,0.5886474516142177,0.6906970511997472,0.7811133646655126,0.868826472617958,0.9356790580778249,0.9312667521735818,0.9434768316033122,0.9599955202107153,0.9739183951856729,0.9288167951635047,0.8382463018467043,0.7469258783874657,0.6526743548189058,0.5538889260447641,0.46644234945230667,0.4928081846913257,0.5915241236628934,0.6888023432103654,0.7855292075080773,0.8566232921869923,0.8782955992502084,0.8552276253899758,0.8199857524396017,0.8348024882853045,0.8579163608822689,0.8954631225010132,0.940809105302584,0.9568753335765812,0.9695849030644135,0.9765167652012652,0.9177086815254774,0.8303371323049773,0.7414297496735176,0.64020794197279,0.5362287127289347,0.4343312616523085,0.38783118041886633,0.46257748063984594,0.5613038646531243,0.6609734006020127,0.7573343976555751,0.8302054148161584,0.8324027458525425,0.8028435148819864,0.7732061743567971,0.8057104690034207,0.8621170317616715,0.917581519200505,0.9655798202956456,1.0,0.995636387341891,0.999630627657704,0.9846728084029355,0.9092247711587571,0.8219839926124946,0.7299474776466846,0.6332138048620428,0.531417324970157,0.43782735779281645,0.4185483265110088,0.511220228371476,0.6140810654431412,0.7108394937512403,0.8059033435809408,0.8744101613966995,0.8766474792547254,0.8583406626027859,0.8199323580202234,0.8241186067419244,0.8353772710768743,0.8697146900806674,0.9213748326247788,0.9415810893823267,0.9473976752069302,0.9487250613103462,0.883457807057004,0.7960017356108078,0.707630706817151,0.6129463903314503,0.5138026429122857,0.42701219661026,0.44356603802943395,0.5341476578377267,0.6211196492193722,0.7172196423644523,0.8151165929548385,0.8645847446102433,0.8659716680524823,0.824846953811416,0.8105143570539759,0.8317313687806858,0.8695573963267831,0.9214991227750853,0.9590452037498893,0.9695098127710298,0.986324497006771,0.9710693247562465,0.8903063779429321,0.7952274636574839,0.7043616466684706,0.608793388343327,0.5102837484085643,0.4141783351184729,0.38703977937558,0.47104711493745843,0.5636827026278908,0.6517859659932477,0.7489088626736748,0.8395555248444166,0.8841846506883275,0.8894434732856547,0.8537645568619581,0.8466636701951749,0.8665778156982533,0.9001637132715259,0.9468723158302839,0.9813298452093353,0.9815140548872556,HB
0.645354188542343,0.7001949667382941,0.7514656417085352,0.7953906580334003,0.8331328649586323,0.8543088167630926,0.8740771632380375,0.8602995900669741,0.8616471740217493,0.9027384473610598,0.9128525731289983,0.8508274104976719,0.7633410537640173,0.6785667680325862,0.5936086185772032,0.50514666992023,0.4202927195694227,0.3354140234042329,0.24701619402253405,0.16262218961583708,0.07784380982534977,0.017806979115656596,0.062200763907576895,0.14514807568147148,0.23356200841853814,0.3221639718983963,0.40742826883938565,0.491909288574675,0.5804286985368865,0.6681010681802242,0.7509868769751114,0.8332898139864857,0.8979658176808678,0.9099842192356493,0.8730560847717115,0.8283472065090638,0.7746793744056721,0.7267790867961545,0.7319812893538045,0.770246342728478,0.8023072220162013,0.8213212465946043,0.8472170221683035,0.8420845348726356,0.8443060269586649,0.8882015578241893,0.8986785618828659,0.8334517967451716,0.7479494597095186,0.6640144899394946,0.5755949447171822,0.48739815143820053,0.40405218752224603,0.3173878827386084,0.22903284276285607,0.1452640530260545,0.060326939369882426,0.0011585647347682748,0.038502022450682793,0.12372854029647995,0.21231211950556683,0.2975655156954874,0.38205662073657753,0.47058117677066,0.5592631188342412,0.6479445611937551,0.7361864067279908,0.8171783199036224,0.8822841615424306,0.9095736038972346,0.8855353485236599,0.8366287817218319,0.7822152822434454,0.7515706723145883,0.7784939860428248,0.816356434682221,0.83488424325627,0.8531198870284873,0.8622281249233861,0.8386596756528264,0.8558374762110297,0.888223077993284,0.8600037919352841,0.7763632868785899,0.6877553530478095,0.6022075544517635,0.5179857754539952,0.4295380963839678,0.34336853483726615,0.2596674946350199,0.17140505542463724,0.08631590236245479,0.011551750238360303,0.018172894969204767,0.09910437851952081,0.18207126597785972,0.26980191884304583,0.35841673167930577,0.44389831389812295,0.5281796445785506,0.6165683666465926,0.7015691066847296,0.7853206045289185,0.8569991196337798,0.900800002064468,0.9187230950637355,0.9108440699390368,0.8625696990168272,0.8248705678896862,0.8371163953458278,0.8710691439268721,0.893636510438444,0.9167744148832648,0.9416619785591558,0.9282069956292229,0.8787797573531204,0.8693551660041081,0.9051559262576896,0.8834186164827929,0.8051355158904205,0.7183578617659041,0.6352269597320588,0.547213608327108,0.4586439991465644,0.3737514654568749,0.29082216355588286,0.21357682769736597,0.12900579632742448,0.047351504621914176,0.0,0.052287754520242036,0.13648657079887094,0.22505730103664046,0.31372931317169794,0.4001223428117615,0.4774842409016903,0.5640655793774942,0.6509977123025805,0.7341246978300326,0.817429566720866,0.8811526712903135,0.9055389813110337,0.8781540642266648,0.8298580891007798,0.7775247428594567,0.7418978378890411,0.7624282725889229,0.7706639335358338,0.8088935375858513,0.861526079332066,0.9052553736473765,0.9294288958231913,0.9126332027148263,0.8541542595507352,0.7756423368191976,0.6925532689676763,0.604325583783274,0.5219167623804758,0.5245889142131808,0.6079324483120123,0.6942993643108495,0.7778401194076081,0.8652229802933349,0.9467787501988341,0.9944018146325109,0.9564096472998873,0.9233984265958033,0.8993021797051435,0.9389288524392654,0.9683624804766884,0.9552674991673953,0.9266159800610438,0.9065655661149672,0.88035343133296,0.8525094025290387,0.8807448317646229,0.9308521233173028,0.9543308692338337,0.9337453754913234,0.9018753007338787,0.843762807424314,0.7692353959102989,0.6867737788602819,0.5987491668185487,0.5307427244224066,0.5651343247061162,0.6421951846010465,0.7261455939128008,0.8142632121779838,0.8975608525578813,0.9619242935124162,0.9387379419910393,0.9043702912700446,0.8686202115832902,0.8760300253725706,0.8881163183354215,0.8664004196478772,0.850042586684544,0.827003375894285,0.788487209203236,0.7970887586870088,0.8508832156668422,0.8989634933222141,0.9317310939644186,0.9325350748144279,0.8889714602104888,0.816130116230747,0.7343452132301451,0.6547588872546668,0.5831095847138663,0.545700665011047,0.6074799703490836,0.6956875404165503,0.7814353345577247,0.8651933936210874,0.9463151407425414,0.9776611126564243,0.9355739439492594,0.9010615235925119,0.8636820007982211,0.8765640723091226,0.8681308971076753,0.8431142065983066,0.823558338966824,0.7891404575746022,0.7537926204564498,0.7738344037252713,0.8288782920677906,0.8763293884784051,0.9189061286795912,0.9483635831944546,0.920570599219511,0.8592556809955445,0.7782533528206137,0.6952853407438986,0.6073332082015059,0.5215438812884988,0.5028267723717302,0.5813908579713423,0.6699628180781254,0.7543808518600534,0.8282649952365666,0.9080390196195991,0.9760046448358943,1.0,0.9537579800045355,0.9187492863983386,0.8842199625043419,0.9000426051616479,0.8932357581828314,0.8743795018244938,0.8532225693289615,0.8154715328783628,0.7892753795077754,0.8203285162716942,HB
0.10253212992519178,0.1813866140400784,0.1778513815828051,0.09227529416497893,0.03627581616345488,0.019907618505159874,0.08625012374131957,0.18400820963221265,0.23292248340747546,0.2588961159178378,0.37700817804359255,0.43654657458444013,0.3764273397852185,0.4460720634160993,0.5788891711863184,0.6844849405086249,0.6336747492943353,0.5446906091293864,0.45645532426519275,0.4137360367383274,0.3733412223186561,0.26424853309930696,0.18696645879736917,0.21450783684926544,0.3166726613024504,0.413002337187687,0.41303873585988904,0.35660111184100995,0.4380458141227368,0.5532419850818855,0.5498859332978652,0.6114076683867353,0.7430240787734845,0.8394532476126912,0.7813609293996728,0.6947942676278818,0.5974416562122118,0.5051786840456589,0.45493573991256286,0.3812419996000289,0.2759252384189008,0.21564067232795447,0.271495703729822,0.3697729834685546,0.4359837092054335,0.3879472693048227,0.2959175533983587,0.344325623575241,0.4807624709278333,0.6051259881306532,0.6022208255229289,0.5876619599094302,0.6985306566963734,0.7731479735734437,0.7080410981310521,0.607162955773547,0.5036363350460424,0.415225434973747,0.33418873539802063,0.23518625263429516,0.1432417954008387,0.12715626413955938,0.21242743672394337,0.3131694391135673,0.33478645777526483,0.24337941310392686,0.2286902369094237,0.34672898302419175,0.4790611432782719,0.578395710640802,0.5847848615745794,0.6878773475889164,0.8155412395115247,0.8381169169694667,0.741562067858992,0.6295253661804072,0.5120220918005296,0.4223282726983142,0.3510044897224265,0.2764240202832704,0.20411912505425778,0.19746994308959676,0.29106496855383734,0.3863319674913346,0.45859596281019743,0.5059029936663093,0.5164276693284988,0.515877482982867,0.4656677719203526,0.43760275372573765,0.5421792692130467,0.6421128182081504,0.7135511138325696,0.8332840280253986,0.8824840053543885,0.78851328722809,0.6732364811237537,0.5688580710993867,0.492885726352432,0.43770503592636545,0.35363719260319715,0.2532491266421901,0.1984368303566535,0.26052413564334986,0.3468326956764638,0.37191972946268215,0.29220147642763794,0.2775599183182049,0.39310186412124826,0.5190617020697579,0.5584455190695292,0.6257509987246259,0.7247987336059956,0.6686442897798195,0.5605818255437034,0.458678775735869,0.3669404549276025,0.3006315331364624,0.22173624278826476,0.11804438039350562,0.01971892028050859,0.0,0.08322337943103308,0.18042086432278626,0.2670481983352444,0.3255097507032809,0.3388836793767498,0.2755975690081771,0.1857486107759223,0.09072448713590897,0.06725846292284232,0.1594393045045157,0.2592455963500744,0.3390383291657908,0.40151617148835705,0.4984378998395076,0.6002986230982674,0.7050038350828147,0.8266489396684695,0.8853476589597091,0.7976106441958539,0.7448320105819912,0.8032876275193963,0.7252900624205083,0.590887388309681,0.4631160371592704,0.43873243093623393,0.44333423375341074,0.38617671754935023,0.2962957604918881,0.2841803342225042,0.37693535238643805,0.4660361962450865,0.5239582529819515,0.5935288633243327,0.6974728763509612,0.8181779274016094,0.9241584556765294,0.9841591447765781,0.9218974408274303,0.8065807870687804,0.7876829218866039,0.7488360101630704,0.6171743565130468,0.5532800887325131,0.5735441286608831,0.5807071416035632,0.5639243267637195,0.5150518116688982,0.45434730958657865,0.36228784413422344,0.2696805807897189,0.27783744422586953,0.35357451365028036,0.4211556790335489,0.5018456482492224,0.6086645597380247,0.7129949889247722,0.8125195245762991,0.9271182917737761,1.0000000000000002,0.9232664363227869,0.7910876301975776,0.7314327789787705,0.6920797715717433,0.5659975533898141,0.43887846551481347,0.3989339605009834,0.38282683967468834,0.2962219755101747,0.20274445148110076,0.22091337258135613,0.31771157035238784,0.4055290940804157,0.4884454836441592,0.5816447201520833,0.6908668803911306,0.7869200042628284,0.8953157725957748,0.97019662363523,0.8928667337344722,0.7867403874480339,0.8187754269560072,0.7941803281978064,0.6662196463806855,0.5331207382944132,0.4707480161822233,0.4988544258636105,0.44483266767347396,0.3517453092640641,0.287628251715623,0.3591611176105236,0.4583386613024596,0.5214868337130938,0.6007776992152689,0.7025599643746638,0.7951964603808122,0.886447859893267,0.9805509694796986,0.9372056003752027,0.820730476698804,0.7906799425326134,0.7423024344645366,0.6157688406924324,0.5249271090554244,0.4969282185759527,0.4230188519987028,0.31329351796912186,0.2544210436238752,0.32508537639227275,0.4280262235142629,0.481548996112273,0.5501326762152521,0.6401619886378047,0.7470252990379975,0.845659917069425,0.8065030095873367,0.6876744356662854,0.657703951817292,0.6119941848381443,0.486151459745509,0.36293412376378176,0.3285569785051019,0.28515356082869725,0.2752640847317622,0.20341646067791186,0.14879950590197666,0.19949534922215473,0.2919925014557061,0.2995441678747113,0.20285434248304957,0.2124211123555797,0.2949261961537688,0.3285154951935725,0.3930743336757738,HB
0.8557780180722401,0.9116740331440725,0.9350533640345808,0.9304825905838134,0.8999489205963702,0.8045414937537794,0.6883908803797449,0.5708398218125532,0.4502447909560354,0.3308506262432187,0.21188997672922638,0.09515935960206834,0.038468297848492705,0.12276390727372266,0.23976720936566442,0.3586056682035723,0.47544922322987304,0.5929283576875499,0.7093776705933721,0.8208942636799892,0.9012383286433976,0.8889228468426731,0.8257947438874842,0.7757753973112176,0.8059127127236771,0.8735312919336029,0.9143514049759442,0.9103436107442708,0.8356870885646228,0.7207125339403231,0.6032948571855394,0.4809471739650035,0.36388726004995475,0.24194795721069573,0.12448891360840653,0.021023227883188222,0.03848104309412592,0.14849201074617158,0.2668646960710268,0.38545484979855993,0.5029846820049633,0.6212920516317739,0.7366519214887917,0.8462698829706286,0.9164958098716682,0.891394254205353,0.8333464113872351,0.8155726436458435,0.8687379301483915,0.9091710689384698,0.9156130671974432,0.9158025604836848,0.9346483749990921,0.9482132466671143,0.8832861212116383,0.7698326736547811,0.6517060130096017,0.5347521028233855,0.41313135144602686,0.2956294948199234,0.17431142657293452,0.05671704746287276,0.0,0.0840275115019069,0.19957894838274215,0.3171810322562101,0.43427936058373007,0.5540380299020979,0.670812403667115,0.7837945541236799,0.8899172894477516,0.9493463442194097,0.9143807313855485,0.8572268736677311,0.8441928097804818,0.9021925927013039,0.9406397031119709,0.8906551436183345,0.7819466751152451,0.665498197990769,0.5465586498324582,0.4227292095496311,0.30141141233898594,0.1849397127206851,0.09026421455487843,0.12147945972497587,0.23221017415701561,0.34855032565186383,0.4651293552509399,0.5820826461621889,0.7030958234729565,0.8207247620031679,0.9159572944203225,0.9289698843556868,0.8802721760720373,0.8479123073009591,0.8866470903682204,0.8787260233126182,0.7685521284846524,0.6509279214709003,0.5311813246142316,0.41417854934251563,0.29265346573805573,0.17751913931441932,0.11141111141617221,0.1839219172529868,0.29743830769147617,0.4164503409255216,0.5401121249375498,0.6586063034450584,0.7717509529382001,0.8789741643489066,0.9367081089025482,0.9061839986557727,0.866166889241182,0.8878972295102923,0.9326324047289749,0.9489339675741542,0.9621651684126913,0.9485471609896012,0.8562260568649485,0.7394325071459422,0.6221020526037124,0.5020178600936889,0.3849753818270132,0.2625873293674976,0.13964383730564056,0.06364421509934037,0.13075847108702854,0.23360728342470982,0.34526463309642574,0.46237046481755306,0.5805802390763986,0.6981914942016207,0.8121243251953807,0.9196577812812015,0.9678221969965572,0.9353234070967378,0.9082246093513058,0.9584780758085745,1.0,0.9787449095038299,0.8891457351455445,0.7803810338907569,0.6644911320430409,0.5471498228758838,0.4285131920077452,0.3226066990758727,0.3450669660492718,0.460411692004459,0.5790933758566004,0.6991078898283527,0.8175402745787821,0.9355460451711581,0.9957907765864029,0.9923195778519074,0.9778366613511913,0.9624737927474356,0.9257229194718228,0.8960652683346368,0.9347845273817268,0.9687312141690616,0.9445865419202781,0.8465795444695499,0.7316081505486618,0.617394708663868,0.5014251168498649,0.38410260279920516,0.3418838152022283,0.4417221938467326,0.5546117804530462,0.6624077234244077,0.7776772136354544,0.8935895329720209,0.9626829220512672,0.9262144067828781,0.8813470173783109,0.9134731678983992,0.9604461632583075,0.9651629837420865,0.8863164963253238,0.7777408982776655,0.6625940492315598,0.5461467543601644,0.42774629189200986,0.3263087685672641,0.3558369490902198,0.473391545842764,0.5902466267938269,0.7075819680624624,0.8228404382626633,0.9299869312536082,0.9757976623634328,0.9502853990527509,0.8897881275974899,0.8906144996342475,0.9455852793173556,0.9825859198804763,0.9396655293014875,0.843258506274474,0.7332786555323263,0.6182125383435784,0.49979217356538186,0.3839779609949785,0.3188448020460768,0.4023609162816044,0.523329609410109,0.6473311818513396,0.7692084634101886,0.8839874975018591,0.9741203671544505,0.9817723985604037,0.9559364914226454,0.9452433342270017,0.9433286112774684,0.9332959899643698,0.8934593868203011,0.8511128697183039,0.8879091783819353,0.9430322323218823,0.951195826833849,0.8779691342775078,0.7720727674662486,0.6575279668013969,0.5381976785751983,0.42057187257753803,0.3025474880127452,0.2865420601047204,0.39871203265683874,0.516868501916441,0.6231571670219942,0.7364763443960489,0.8504702034325422,0.9405897708942339,0.9485625897063137,0.9343056586830463,0.8806718207050017,0.8256885574432202,0.8512001893235603,0.9124168367756911,0.9430765863208985,0.8894462330341937,0.7894465787084008,0.6737972293651939,0.5567148675637306,0.4509959797629097,0.483209218191355,0.6022008724268679,0.7186167299524269,0.8336870881904375,0.933513145454768,0.9631926711669425,0.9678264662106777,0.9473546984306216,0.8970846312447287,HB
