0,1,2,3,4,5,6,7,8,9,10,11,12,13,14,15,16,17,18,19,20,21,22,23,24,25,26,27,28,29,30,31,32,33,34,35,36,37,38,39,40,41,42,43,44,45,46,47,48,49,50,51,52,53,54,55,56,57,58,59,60,61,62,63,64,65,66,67,68,69,70,71,72,73,74,75,76,77,78,79,80,81,82,83,84,85,86,87,88,89,90,91,92,93,94,95,96,97,98,99,100,101,102,103,104,105,106,107,108,109,110,111,112,113,114,115,116,117,118,119,120,121,122,123,124,125,126,127,128,129,130,131,132,133,134,135,136,137,138,139,140,141,142,143,144,145,146,147,148,149,150,151,152,153,154,155,156,157,158,159,160,161,162,163,164,165,166,167,168,169,170,171,172,173,174,175,176,177,178,179,180,181,182,183,184,185,186,187,188,189,190,191,192,193,194,195,196,197,198,199,200,201,202,203,204,205,206,207,208,209,210,211,212,213,214,215,216,217,218,219,220,221,222,223,224,225,226,227,228,229,230,231,232,233,234,235,236,237,238,239,240,241,242,243,244,245,246,247,248,249,250,251,252,253,254,Target
0.1031927099054899,0.12246823129723805,0.1472792786547097,0.16653260399071068,0.17843272779601826,0.16501426490134508,0.13254504063043182,0.10294834266799224,0.07668900287755598,0.04428992597372017,0.014671706708326848,0.007884331464699024,0.03492972358239643,0.04734880396384389,0.052199606074505356,0.025456497900113062,0.006698247735491769,0.01589862806949638,0.009861106058853819,0.006178987226879151,0.016603621640208344,0.042441252878697044,0.07178024745797407,0.09798820549955667,0.126335651457,0.14338458122890496,0.128346851231673,0.11064649096768031,0.11993676292720834,0.12769753991929989,0.1422390684918049,0.1421909279854805,0.1325997721259602,0.1091700195711569,0.08448009081710661,0.05690449259623653,0.03737185741780036,0.013549123125669471,0.02022917981878014,0.047138226143013995,0.07463208873565552,0.09533498603145585,0.10781339323832517,0.0978018765247437,0.1061295383518992,0.0952851226215714,0.09233584749070056,0.1090416451813434,0.09586340470424415,0.06670840329553474,0.033711682874512094,0.026871908483943496,0.02405318278907176,0.024687938229130513,0.03470406383653657,0.06749987758484477,0.10647795017531347,0.14799874896909393,0.1927942223940009,0.23454761397106272,0.2814410570649186,0.3286611073288621,0.3758812597534924,0.42309268403734146,0.468457657301371,0.5100240060030059,0.5568298156828186,0.6040429832367193,0.6495892505291259,0.691030854343081,0.7377782417468643,0.7849981534878425,0.8322173471186625,0.8786743342670598,0.919835856733993,0.9658581675433862,1.0,0.9749360214219975,0.9282448606010889,0.8810249061458397,0.8338060866237231,0.7875012102248062,0.7463047893553598,0.701607117787568,0.6660343331011873,0.6214908018072445,0.5744304371893636,0.5318678683881384,0.4877372241148634,0.4405523380741867,0.39337426573950096,0.3494478340957423,0.3067138778032199,0.2616815701152799,0.21999923769708296,0.17507545087313936,0.13591794430226956,0.10194957614719136,0.07596559028050831,0.08030311295786174,0.08641564438051863,0.08635311495525855,0.11035076610324746,0.12209841173255875,0.13618426268319817,0.1220324115477005,0.09893566396019837,0.07516431744665053,0.04380906766024473,0.01586771054590952,0.01389155796922159,0.03511409523801756,0.0559510155903431,0.08524857026528787,0.11075890599611937,0.1060276022137121,0.09802875074678763,0.11159259776540109,0.1205159159612823,0.11852408402533032,0.10000955470068318,0.07330390679666032,0.05308045573943221,0.048801756532909746,0.054627636492423415,0.0497321386867311,0.0782249435619049,0.11865650913564552,0.16095225596168805,0.20399774370485035,0.24723827309773627,0.28940726693135055,0.3339095307550144,0.38092939272815696,0.42329454842755787,0.4676406210255044,0.5148354180791506,0.5619158829702271,0.6044573177882848,0.6485953066443471,0.6957837943615064,0.742962962858599,0.7868879452348132,0.8296310013851047,0.8730096135372223,0.8724959209393615,0.8344041173764889,0.7874852807427262,0.7439396845474324,0.7008233942579998,0.6536962672004225,0.6064762238626267,0.5595900835532739,0.5178522106310799,0.47273651665606864,0.42552774412093264,0.37830759169630257,0.33108746524472754,0.2841136915213318,0.24218912587747066,0.19842615101503913,0.15966686996426027,0.12741857131848722,0.1075416709286039,0.10467981196055764,0.1046473763979967,0.11854158790192382,0.11931759601792513,0.11551247913526352,0.09519878457471109,0.06786099559097014,0.03848974868003907,0.01194479089475009,0.0,0.017480673823898396,0.05253332991968973,0.08046542088528752,0.08844144490225725,0.10304624574344712,0.11232389602760762,0.12640955557489653,0.11461957784751586,0.13188756103501809,0.1282064686778126,0.09698605360267054,0.07077647995473524,0.04430383270774363,0.0346597207035646,0.04885874077833141,0.049761754121145696,0.04543835228469795,0.07609217098319698,0.11427564478684782,0.15410286488478575,0.19922273378826127,0.24068692588193152,0.28620503433248334,0.3325451078499666,0.37372382267801907,0.41993010695281074,0.4671328422495966,0.5119627369728821,0.5538994846099299,0.6008769097255786,0.6480970396402275,0.6951983998569862,0.7379705026626127,0.7818687266780653,0.8290454102950884,0.8762613104492518,0.9202363737256043,0.9190412499653993,0.8751365316644835,0.827980143331948,0.7843075803429569,0.7413151975476939,0.6941973465528113,0.6469805058221498,0.6010487523005281,0.559801056551209,0.5132483407173418,0.4660611825396235,0.4219372974977158,0.37939098319643905,0.3342098533252582,0.2926319921034193,0.24628729891894396,0.20496881781220955,0.1644689454508248,0.13230110728490985,0.09616290123262039,0.08196793066625596,0.09605232251216478,0.11636443758246307,0.11850919519163505,0.11106994861465624,0.10927107653997292,0.09016980790818141,0.08065799186093159,0.04558077169406616,0.017112749383641823,0.021915109926643028,0.04187245127681871,0.07678070976489937,0.10943267147941405,0.12399532832159998,0.1209077975403523,0.12800178385229022,0.13164039926743998,0.13435043735557217,0.13892956059876993,0.11198944937489319,0.08237235521744224,0.05651955067853498,0.03867046892710735,HB
0.1704819835682989,0.19943937357366126,0.28411964306917614,0.37985824784575595,0.46494094381411344,0.5645639709395427,0.6593457638681359,0.7453520154876712,0.8433869655430937,0.918468129851703,0.9414031985597631,0.8765497554442754,0.7831264516700069,0.6971748130711508,0.5972718973341329,0.5037610553091882,0.41671908828878435,0.3166054811275614,0.22065173784446612,0.13557374674817124,0.05573088040357188,0.0796598860319353,0.10688968695406498,0.10100324013886297,0.12615633612893573,0.1922495398169186,0.26764062743726313,0.33951265383985607,0.38003425298539417,0.3743769175352156,0.3241771243432523,0.2858586633889355,0.3058087733432888,0.338345620702988,0.3247979096122533,0.32098182479648196,0.30824796193804627,0.27627725031665884,0.23322168960167833,0.18658002731178724,0.131170067026523,0.07792253442311026,0.08425886639809521,0.12042330448567196,0.12845161473417477,0.1737832888678068,0.2628883694879156,0.36119217173782303,0.4452704548843349,0.5433484754119373,0.6410996536188773,0.7253817672350218,0.8239765977704416,0.9208585243579379,0.9838565588007024,0.9682914794174633,0.8827089542919198,0.787239086675529,0.7018740164886226,0.6021847088649093,0.5020270482319877,0.41462949935385573,0.3215000290743748,0.22099133402658167,0.12693300088055848,0.11917587009010155,0.15049625244850917,0.1790258675945191,0.21845363359858627,0.27696297342037646,0.3460001567885391,0.4129272460975604,0.46308076005570564,0.4577491861432841,0.39836300540404634,0.33287924446535166,0.2530656181487352,0.17888630315203224,0.17017184110734318,0.19622580580848625,0.2012509199428627,0.17675318056579314,0.18184237985681673,0.17480917545932906,0.131732613269822,0.08670228888431764,0.038779512408747774,0.0,0.0012615663853403625,0.040996849537286995,0.09848731188710813,0.13451030219090976,0.21125487677721733,0.29658946236016215,0.39083451697591,0.4827105904325748,0.5711984813106392,0.671493192500745,0.7660084853762883,0.8521671740974308,0.9410706824691917,0.964964781212704,0.8941539109226171,0.8101935197845545,0.7125010615899798,0.6119359800054389,0.5113675693539648,0.4109691380236118,0.3208254286456831,0.23060547001174658,0.13040119053987853,0.04482459261794114,0.029530219461421314,0.04128541480087966,0.042453719550193725,0.08242938072935857,0.14463404567708293,0.21693893302155898,0.2881426036219965,0.34174218180108307,0.35040966995524014,0.3235929435774678,0.28077927010467496,0.24341316165729054,0.2579156892576533,0.27313267466769897,0.247196322782278,0.25316684364327235,0.2305838466012915,0.2026931118338089,0.1565485326574798,0.10275975573345875,0.07234231405914349,0.06404565466070533,0.09750381350310233,0.14202278183071115,0.17033721363146181,0.2451668934129403,0.32915043239326414,0.428069790528236,0.526896771538794,0.6110550209195775,0.7087084161856798,0.8092033952793041,0.901684345963361,0.9801916814149458,0.9999999999999996,0.9190330136844289,0.8323760432014153,0.7385067485641539,0.6387094688709491,0.5528885271790327,0.4578814997532299,0.357348471398399,0.26157856701993687,0.176363705915215,0.08670215905347067,0.06733114441353116,0.09593831005375097,0.13874210157097444,0.16930578961877307,0.23086442114246042,0.30037666551420283,0.37556897001392686,0.4393212316612023,0.45544624659634936,0.42115736127943837,0.3743834468250653,0.312579268612736,0.28691144754447695,0.31577392762485434,0.312040830572458,0.2983369187761675,0.2811727381373643,0.26056988094887545,0.21248170429149926,0.17294346235312874,0.13498783397187752,0.10086024032553675,0.09781005367866547,0.10531265704394865,0.11261900104938416,0.2006088417756482,0.28854996280247347,0.3810256901801261,0.4815323787743391,0.57913541798905,0.6634688189284219,0.7621692041970394,0.8612057921750256,0.9436994429256864,0.9837178528348081,0.9220088958844967,0.8238696370417755,0.7387031823158865,0.642909410864021,0.5423820160995443,0.44731044647561813,0.3615850919254835,0.26237497856991476,0.1761281131779331,0.08686568148637441,0.06424402063996526,0.08634431425022093,0.1148305139348813,0.15114693960819414,0.21362276376908396,0.28615548109196576,0.3612904027564525,0.39321584235087403,0.3981511755574485,0.3478059010440986,0.2848551435034339,0.2756357323082259,0.2875203264380386,0.29961111513146976,0.28313680151855714,0.2572820997662921,0.22503821239916189,0.1726462014712693,0.13114298213226716,0.08615033946462791,0.04395801896203899,0.03344430434860213,0.08069822790942816,0.12846957050694963,0.18494846377162277,0.2590004696931745,0.34102046301890043,0.4387673515388988,0.5256372216217113,0.6193336129127909,0.7198590238101925,0.8204022646631253,0.9141393485839076,0.9641671220735515,0.9208615647300635,0.8402241148133256,0.743696092284523,0.650396005337615,0.5631712359537313,0.4633299821718375,0.3753151419967149,0.282890935881019,0.18386941295355275,0.10115602307550686,0.06501170271124979,0.07907816594717731,0.10051373267723385,0.1446801889362752,0.18914886073075943,0.2559029972268738,0.3437291520176795,0.4106299947070826,0.4521252411498282,HB
0.1777811668895679,0.1769770724428148,0.16495967237437936,0.15302096377884,0.12083245388104746,0.10269773351021438,0.08419263311873015,0.07133256106291208,0.06621521758969484,0.05897902558391799,0.06508066372970989,0.11011703089976876,0.16221803677764202,0.2152147365364332,0.2778621414642597,0.3302386820804024,0.3932882736176717,0.4581863245118467,0.5210791635801875,0.5732931558422765,0.6369633633387402,0.7010517176277142,0.7536896358396454,0.8157431412818141,0.8805754806149988,0.9334752497959862,0.9307059489750737,0.8822589071183558,0.8177375318835503,0.7537133492319725,0.7009765731655042,0.6389576578931235,0.5740605639549341,0.5091596345983502,0.4455384971126626,0.39331165860966566,0.3303825798184232,0.2654846270473117,0.20248402335078364,0.15009744165976846,0.08932827298872503,0.05156801658985666,0.05049741604101676,0.05902773457929733,0.03988297486026049,0.061455342184669526,0.08109669723350477,0.11381238359774715,0.15718505724609644,0.1802594258340937,0.19229065271561607,0.18139416389525032,0.1611810071167863,0.14563884622599899,0.13352404711467347,0.13000337271217166,0.12999551351024596,0.13010534257493633,0.1392368680102405,0.16337546093823896,0.18341807626532303,0.20710529948384737,0.22266713114295467,0.22394436167083942,0.20957254313600382,0.19074236547568768,0.17127661804552297,0.14188547345152047,0.12180095600890262,0.12433427459613666,0.1253546707611899,0.1252915973476867,0.12992487829506683,0.13077243107627146,0.15546704224075913,0.2087086636534008,0.27335280387509897,0.33717579583123136,0.38971950827653146,0.4521322578841458,0.5166357092331078,0.5707209938684503,0.6309258627442849,0.6958052233043026,0.7606913274913194,0.8207718383513769,0.874913136756712,0.9393348513102602,0.9913377411361735,1.0,0.9551757208616714,0.9017626062359709,0.8373513485409463,0.7724770693487586,0.7126655177764891,0.6582410330392823,0.5936746342654775,0.5287781398399276,0.4667572929582531,0.4141108105857154,0.3499979008463754,0.2850973559896084,0.22161503852577846,0.16935386756716841,0.10986812802490054,0.10411920674478248,0.127857426997652,0.14106141162544628,0.1555339029166607,0.1968491448075147,0.22869442366418768,0.25772554122999747,0.27192201186240705,0.25833096158629854,0.22594315734187198,0.20126918088328427,0.17618880435785478,0.17085704573675198,0.17002298431960217,0.17232707246225543,0.1501086709773749,0.14593430366543814,0.14754799668396057,0.1619352720698548,0.18460435893080263,0.20235231728844516,0.21847992569025632,0.22771320537398188,0.23913611848350325,0.22567770900819673,0.19962306048956835,0.1778538580967366,0.1602770938899991,0.13877435022220608,0.121272372107331,0.11330866717754873,0.0957276203991273,0.07677283300926918,0.08217611937414837,0.1322804017110042,0.19006464626572006,0.2495178656961654,0.29968700417742333,0.3403130123607898,0.398843162253379,0.4516609216683629,0.5157176358502631,0.5792081926463495,0.6316341478833607,0.6944959526977836,0.7593936274535507,0.8224253854596788,0.8739675787283954,0.9074624505365279,0.8812353258852408,0.8261701466471725,0.7613936749803134,0.6964923404168153,0.6315910058533158,0.5666896712898164,0.5017883367263183,0.4370632927611964,0.38112670966013207,0.3229573408587645,0.2581164171186874,0.1960792409567662,0.14343704066452911,0.07939270936083798,0.02646939653929481,0.02417483185329461,0.02762565202437095,0.03497930158673279,0.05767210815165669,0.09520523792788804,0.12858915578882746,0.1514240765710393,0.16150924489710716,0.14959143117046425,0.1281977961610008,0.11491052432854687,0.11095239816215852,0.09878347144286526,0.10063282885669977,0.11400158923504344,0.12832634534965148,0.14372849832022938,0.16331538357463726,0.17757615806054527,0.1777508256823257,0.17218921367714435,0.15004317577784176,0.12513476689608494,0.11138487339616754,0.09560493163355055,0.07220804328162433,0.06623203244093645,0.058982996705733814,0.046534712906854736,0.04472599504725139,0.08402901292632947,0.1342071556755804,0.18770330659797319,0.24770358048996544,0.31090401472104423,0.36323576419142345,0.426456813171292,0.4913398780278584,0.551148539488628,0.6055084162060078,0.6701318506879814,0.7340937615818999,0.7866314642814989,0.8374544910043711,0.8309608726907416,0.7721920414843666,0.7095946554520203,0.6571023279703336,0.593424294905804,0.5285283700113199,0.46654018169014,0.41388513515700076,0.3497480592211808,0.28484758616100025,0.22139792725766583,0.16912612691150208,0.10607033192842463,0.041808808106454265,0.0,0.012998433072656468,0.01891811523929876,0.03064667982585867,0.056252753025436864,0.08320595590748736,0.12058302285397238,0.15727931262703576,0.16028076851540574,0.1332055120513176,0.10918487386651732,0.08280609889571577,0.06794724580448985,0.06625769206785792,0.06274629666614251,0.0646066085436412,0.06674925199036386,0.07986465966821932,0.10681172658164195,0.13049216149083875,0.14466696662801626,0.14475726029224667,0.13066005517810053,0.10861891417807046,0.09418578430686741,0.0808933184187346,0.06336226811042023,0.05715875709287843,HB
0.348341748598028,0.3784001736678513,0.4057538816391051,0.40345673243944447,0.36942457153414043,0.31909307475314597,0.27389780223554583,0.2314686217943298,0.18719559584472067,0.15665630935606956,0.1485857034107383,0.12231634936501745,0.08017768656263202,0.026189627533352855,0.02096765782335064,0.08654502068389025,0.15354490840466495,0.22184014356095716,0.29686217444089325,0.3627367536047874,0.43228789275156787,0.507634008367897,0.5826736959721677,0.6478982183873181,0.7181664977491695,0.7934818076339494,0.8632513269006861,0.9288027650884692,0.9864264120856565,0.9656730427691946,0.8963182628276063,0.8308514416979182,0.7608635499211949,0.6855078114455373,0.6102464537081769,0.5425947128146196,0.47490844630345785,0.39961954239043074,0.3247968778348582,0.260392043510266,0.19021811519137577,0.1271945298655952,0.08444977589938718,0.0981309850823533,0.09152980650983089,0.10566321003246637,0.13949580516649895,0.19339393426938445,0.2449461827281394,0.28126300263086934,0.2806114138594169,0.25056438505287115,0.21248794408960503,0.17253736505072315,0.15288107886091717,0.16359124655223356,0.1554135825274554,0.1406540987458582,0.1367732660508132,0.15445540364295818,0.1869284166326759,0.2174262069072177,0.2559671499236016,0.29901521435333045,0.33934145462226084,0.36507922473985044,0.3608356893508593,0.33813156478208173,0.299482089977849,0.25405175389154566,0.21342036495576133,0.17330267476811834,0.1492366223542989,0.1213650766649561,0.08760407525241876,0.05217422539210137,0.0,0.015839942688639308,0.08529470904457659,0.14923663307082835,0.22393793680571195,0.29463315752203245,0.3595270340519017,0.4344568697865059,0.5093450524464722,0.57375192488171,0.6449763911969892,0.7203314995176959,0.7918672454014724,0.8560606578029906,0.9273922518155451,0.9589227484416365,0.919940534793565,0.8518746663243721,0.7867143571887185,0.7116819876496572,0.6362929871742637,0.5609039866988694,0.4855149862234751,0.41012933322069767,0.3367319933365134,0.27358029382695914,0.200170053493546,0.13710055284819722,0.09355914240028795,0.07891839092494601,0.09335222347780014,0.1148217878549942,0.15243535430874466,0.20498405572250178,0.2543788501382469,0.28727601082855303,0.2745221303252108,0.2351296340486364,0.20332335706357885,0.17288656221812815,0.16998282275268117,0.1799748788354889,0.16720148022831482,0.16048666198521389,0.16757110512986406,0.19206394822399186,0.2391072740059741,0.27753170749262823,0.31458754045258486,0.34967472934178145,0.3816759461457955,0.40084316017317345,0.38590710694413133,0.3572341894319879,0.3091916029273585,0.2515169999168734,0.20791521691670134,0.16634080224956893,0.13737836067376463,0.12417220456616018,0.09901310075161573,0.058494633193235224,0.02517645299565041,0.0813937303250114,0.1522475866650863,0.2169101692702764,0.2917883440476299,0.365932895795674,0.4291398078506692,0.5022928324103133,0.5776758375637514,0.6514107910421614,0.714557722983586,0.7881792890912349,0.8635631490621427,0.9356835421797758,0.9588609195176847,0.9127775307238899,0.8388734796917423,0.7724736316791474,0.7035081748794747,0.6281826790546128,0.5528679188983197,0.48418539130434546,0.41750597997533934,0.3423002046913268,0.2695869880362345,0.2064276018560034,0.1426607015294925,0.08730550357729427,0.07668946808959776,0.09775793701035651,0.1278565130769853,0.14524099935228474,0.19274067503872772,0.24593553344145924,0.29200752710775024,0.301289072044435,0.27405233983152755,0.23484822732388233,0.2067177141374721,0.18450787468767116,0.17002900386109987,0.16287365195272585,0.15408360719288483,0.1578290197743768,0.19133015939504094,0.22296966912026006,0.2639447609211678,0.2978060972757346,0.34039507340607766,0.37249345112967713,0.3789876472859337,0.35220152678818817,0.3194128328782897,0.2779644674176516,0.2325955646784692,0.18229511053029723,0.14301827059750938,0.1161850382667442,0.09033452574950518,0.062273909028597085,0.038988314818058534,0.0632566971253361,0.13640411966593335,0.21179208718680087,0.2871810876621943,0.3625531447394139,0.4336532058117393,0.4982129911170716,0.5730695341269851,0.6484367485658944,0.7188832824210416,0.7839827535506263,0.8587293063555821,0.9249346828536069,0.9864719451499506,1.0,0.9519860362209291,0.8775750369894726,0.8031519135106397,0.7396064943635157,0.6670692236267142,0.5916862925163553,0.516302362664343,0.4433692218967873,0.3800297700095516,0.3057984941571319,0.23193773043650845,0.16914239478490378,0.10792702811278909,0.07499383328466891,0.09056955045619741,0.12119984778102877,0.1553670749684275,0.20070176703726483,0.2536952430247039,0.2911727681704157,0.3166027848903168,0.30172669306839106,0.2605453479750648,0.21667269265262812,0.19402550661421536,0.16658578437680394,0.15174790450837872,0.16684627388050766,0.199321442156549,0.2423025561852148,0.27778573318852473,0.314275637473445,0.3585253162973028,0.3813377735131409,0.3987079038763701,0.3782958859934622,0.3414845617030533,0.2936231183394593,0.24267862754475367,0.19476104998322485,0.16174661753342967,HB
0.9112226653595448,0.8550847474770498,0.7430364949903447,0.6500521915626614,0.5259937428015427,0.40591192078659155,0.3108985154183257,0.19441220475003096,0.23888151026535986,0.32833740463506267,0.33018446857379136,0.29328527818145655,0.2891781223403269,0.28641453984336085,0.22779040014517804,0.20037857165484496,0.23008309085316547,0.24465208631575397,0.2736188432895643,0.3278504374736748,0.35719455267171973,0.347412498242643,0.26942563316652723,0.2625183697221578,0.2869292031657489,0.2332772124311866,0.21206368325516411,0.227389453615241,0.1962237992082576,0.1589611666428139,0.17697640207654342,0.18815636950431358,0.1318716540354723,0.10858991387151384,0.07425138156848288,0.047350547824829725,0.059605153705052594,0.1465385068177083,0.2700630383811804,0.39161450941092824,0.4860938331949507,0.6131588869039604,0.7376913000888736,0.8304121929695718,0.9432318157675796,0.9999999999999991,0.9683173180518496,0.8743910999959512,0.7821408042089839,0.6578467714027143,0.5528142646750913,0.4436472435845644,0.3144435268640571,0.19211869731006725,0.16612662404530631,0.19489722938648857,0.15856542028321297,0.1549898677245647,0.15497352701996814,0.14490547449079827,0.11141105163894682,0.11025977505066997,0.1105844585640714,0.13858874465122017,0.1392423980407811,0.11067416633962601,0.11025977505064688,0.1113213438633478,0.1442252825859489,0.16003601472985984,0.19639948264459584,0.19971832449372418,0.19971721501078754,0.1956904083747153,0.15835299429107508,0.15498947640539917,0.1522018065126307,0.11659886600544223,0.11026098145868701,0.1102597750505856,0.11015239818108125,0.09267929772300398,0.06522897881909451,0.03403713633874972,0.0,0.04860188050192171,0.1684580886397571,0.28023652148218847,0.3827057223044932,0.5083043477757982,0.6001943621481107,0.7133262044104134,0.7322098564357926,0.6628227570466736,0.5647327817685888,0.4386335163753987,0.3445054136196344,0.22416349405080904,0.15990548391144532,0.195705180755267,0.19971731870528053,0.199718738719195,0.1997940533563316,0.22145212211740883,0.2451429176358193,0.27763416743493785,0.28747933985994933,0.253443877176843,0.2444499996236651,0.2444482205534939,0.24444822055348947,0.244524693626194,0.2663846906738465,0.28891924026781,0.28917770238779905,0.28916881636459113,0.2822989478982407,0.240511832460526,0.20103753064687435,0.16401846738647397,0.11411021001324606,0.11801234300828689,0.17306324512290328,0.21857848612759767,0.2815506098725873,0.364914592814797,0.435142223264414,0.5486356259058613,0.6778839367575413,0.7982992022255244,0.8620785594057194,0.8676863082535062,0.7979850005059141,0.7045808933938442,0.5829941128185849,0.45951446673280927,0.3674493864567987,0.23988781565719908,0.1159633040826753,0.1105756466657466,0.15283972309301408,0.1527194793068558,0.12276085258219283,0.1516128583385825,0.1579277815296427,0.19746004218995683,0.2390808824876398,0.2458565412786653,0.2810886386248912,0.289150286745965,0.27898358283946934,0.23676766534801885,0.19954913458436607,0.16444531426224263,0.15433090765356283,0.12231269135960687,0.11027987092530989,0.11025977505033424,0.11025977505032891,0.11025977505032447,0.11024933360851286,0.10249687321238721,0.04797454968680537,0.06325463093243133,0.16102252044710852,0.2726270410905194,0.4005177279154317,0.4954976425134827,0.6156280048723008,0.7396511440879108,0.8320996715646594,0.9100985371577499,0.8750645933365844,0.7743782001595978,0.6599651511536342,0.5601697783783415,0.43429630786948437,0.3407257660171652,0.21988252709963074,0.16067820762049223,0.19610438626454396,0.20209023920580194,0.23966747061814608,0.2444437933967194,0.24444822055326565,0.2441053861505207,0.21874404527501312,0.19770003101429534,0.1613638004222464,0.11929242546098529,0.11026156175590085,0.11025977505023477,0.11025977505023032,0.110259775050225,0.11141105163849119,0.14490547449033375,0.15497435165287765,0.15955730406038882,0.19619266931545631,0.19971532233654532,0.19548359504558288,0.15794515946094467,0.178957052356,0.1995188222002744,0.1971381016752476,0.16263569679327095,0.18530434718224598,0.16365173653745568,0.13638284886475294,0.09316269927185328,0.01861835073537854,0.010928128262755799,0.13114299629526016,0.2603537265593374,0.3712034833713309,0.47459350194035554,0.6034875998845335,0.7199913487206491,0.8177465146008709,0.918660310634416,0.944693823150252,0.8998555557091557,0.8028546397837175,0.7060190092062912,0.5779282725348835,0.4694266652876369,0.3856522072442683,0.3197663993303186,0.19926776788086187,0.16439872918364884,0.19802444451253098,0.19971853446931398,0.19971850965395355,0.19783240356442722,0.1634890212496618,0.15499092905768297,0.15498925688443244,0.1549892568844271,0.1549892568844209,0.15498925688441556,0.15504951185914084,0.17413195580413898,0.2165756463990629,0.24405240820534413,0.24434469352971178,0.22631338686498115,0.16709096091914422,0.14049709488308615,0.10761210168678836,0.07084335464485658,0.07172868564699186,0.10745302443489901,0.12576481249415927,0.1545443908838786,0.1549892568843525,HB
0.11096323113825646,0.11788090779720717,0.16106529583009,0.22797272940273183,0.29511755467223555,0.30906896806176487,0.29964909686342756,0.315894029927569,0.3125700408836507,0.26487665979937924,0.21469237886553572,0.1522457847900056,0.10637381511874322,0.04920267194740502,0.012540205804811855,0.0003016025190092364,0.02106426089362845,0.08580709761480998,0.137865534957891,0.19071701631280558,0.23722790062422927,0.24904948901644008,0.2893652210404105,0.3297797407413987,0.3243731291604117,0.32994059306093604,0.3180159575063186,0.25396225856960175,0.18190097271404326,0.10981835992474887,0.03940765565482485,0.0022834332799450685,0.0,0.011729296215421847,0.032488495822824426,0.07384498171554599,0.12763908910311184,0.1674862440798015,0.22578333913209692,0.27016627278031446,0.312133055071218,0.33618547891286266,0.33735697061015646,0.308243630732707,0.2627284622795143,0.21482833141202384,0.1842201154169234,0.2313160357822044,0.3012293914750055,0.33644785957003,0.3413594667547861,0.36976335748225075,0.4047808255827139,0.4218869304244697,0.4125877193190739,0.391179363316986,0.3764803316443097,0.4017665000064268,0.4206196681648864,0.46322914120244807,0.48016372680924047,0.4670822268303918,0.44324282367424805,0.4057629384113892,0.3770163514052438,0.3629876817549542,0.3561568461489726,0.35994831684293027,0.3674324570031442,0.3504741743622204,0.3406649970310678,0.36611360238467716,0.41905996829484815,0.47623109208607284,0.5467523447417832,0.6187549464482411,0.68016703752851,0.6794135180146879,0.6171027371847297,0.5450893579741125,0.47768059309487354,0.42352710445987807,0.3862738972589672,0.3553536038349492,0.35343622852121026,0.3618089370403168,0.3520694676917908,0.34975445097725144,0.34173511891973574,0.3542724286649941,0.3696885353922186,0.376633116393815,0.3818597512454751,0.40710704278601106,0.42526991097986855,0.442088267303546,0.4285938096009714,0.4109136459292415,0.4230590090307058,0.40969285323825666,0.41808962665187277,0.4447937357696681,0.46682125847396483,0.468776093702739,0.43941432540159786,0.3980960121803512,0.3695442727638065,0.3522734492191426,0.34304806944925215,0.3294329894637902,0.3155627362376605,0.31650150790912335,0.3358151425714242,0.377089111189179,0.4468389920520561,0.5189211542806564,0.591004815365995,0.663065554993612,0.7296116811680422,0.784845263034843,0.7750887361990921,0.7046550927018211,0.6350345548353569,0.5777603342815278,0.5069312956860994,0.4366623923429849,0.3793308096582053,0.32316074585753674,0.3023567360089632,0.30247811380146894,0.3207761843597088,0.3311294425656257,0.32757601723190843,0.31914346975536967,0.3389015291012636,0.34377111353865697,0.3396173171160939,0.351430207001469,0.3541253185012234,0.3787914602245239,0.3808131333917828,0.4126808054769535,0.4371401794861183,0.42551369462969335,0.406326779110207,0.393424681716942,0.39802469709149246,0.40021700872322397,0.432582044690208,0.44469679415586905,0.4568676021390625,0.44689040692963244,0.4069921327596595,0.3758459273196961,0.3618464535564687,0.3481746708130631,0.33870168882821083,0.33965810209361136,0.33318155714234665,0.3237038906524834,0.342280149814179,0.40680338849556064,0.4726088810632345,0.532764312906715,0.6045205018196813,0.6766041024139562,0.7482557811906467,0.8077540502936884,0.8743369686811562,0.946362900253856,1.0,0.9544546431330438,0.8840797582353179,0.8265632833844045,0.7568965939771495,0.684818447686065,0.6154520930392176,0.5581831247130902,0.4974964458423683,0.443241211880292,0.38463872805466215,0.3322094642273843,0.3225864236996716,0.3494323067976839,0.3416545801427775,0.3432559298101441,0.33711424877529383,0.3510792069039237,0.3498770008494061,0.3380744212191882,0.36110740552873377,0.370969710967906,0.3893371124259617,0.4119579208282551,0.43998935756985125,0.4546833093146625,0.439158479409107,0.4263812657055688,0.4332737327242575,0.4598640384152204,0.48747347295214816,0.49605859016115783,0.46944328019961157,0.4445976185998304,0.41601476989230113,0.40179782797772257,0.3872877358427016,0.37033559856797815,0.35464484437830235,0.36590144643387834,0.35850740615071697,0.37197892377895814,0.41288030266859366,0.46771453386036166,0.5274802293450307,0.5934288383720179,0.665486420822484,0.7374060270676952,0.7994079972343937,0.8499666385216909,0.8131720566866969,0.7481243787123595,0.6875654601339041,0.6157116097829647,0.545660458896081,0.4888213575266245,0.4364365324147923,0.3956579210931497,0.34794585409661316,0.3471940380728662,0.35181880929852927,0.35188067878756835,0.35942246326165384,0.36479018442637345,0.3551819078133258,0.3699518142392848,0.3856092032005387,0.40317207275526723,0.42147509799255234,0.4438631263172583,0.43736839854688014,0.41232040342369425,0.417795737950462,0.41458523597391883,0.4239718144904523,0.4121829387981726,0.43958729667229024,0.46731165711887845,0.47292463521853634,0.43651973790136056,0.40705772122173434,0.372054415739997,0.3605815638671981,0.3427762552541269,0.3334268375901237,HB
0.2935979506896249,0.37155794555019916,0.4670647692653027,0.5544655235347671,0.6186598946699942,0.7176619888477385,0.7982369006731815,0.848444804251697,0.8190992317965886,0.7332339119354288,0.6611523321020147,0.5898235531460756,0.47440223925817904,0.4655881868722149,0.5033841573409088,0.5334752031848975,0.5484762288498883,0.6006305800327079,0.6423227424782674,0.6069801776626997,0.5809134615247098,0.5725319316852628,0.5019718402118132,0.4023275102464883,0.3504005066900726,0.32887183467166814,0.2954123725293414,0.271520713160462,0.24876796053791228,0.26783292516882806,0.2401365521796821,0.17946364022612205,0.24079701047891344,0.37681463880776,0.4973481224846381,0.6134721069394891,0.742151302248935,0.830369247279358,0.8210755381521384,0.7442110663137642,0.6164197325200913,0.48928605162625693,0.3796279829990432,0.29216643701786627,0.342202592744016,0.3525911701776234,0.42432187558955636,0.5267092042377071,0.628884471662885,0.720715535667555,0.8072841160342064,0.8985406397670967,0.9610898119861631,0.9266219813279264,0.8384129123815143,0.7443164626247327,0.6468073576807134,0.5640527963542885,0.5071491660063945,0.49915173657406253,0.48170775559265167,0.5321077621471968,0.5943164459408727,0.6385676589431233,0.6271889230032857,0.6173167263837476,0.5606818283297077,0.4763883325222995,0.40490488373205924,0.3768905007024985,0.35746808211050674,0.31329853668243235,0.31073209478793906,0.32697705283540124,0.31450701181362195,0.2692544479162242,0.21872287406948043,0.20853662775313175,0.31584232920797817,0.4530286256761773,0.5738279000618949,0.6888054392065861,0.7677408995316988,0.717705441404572,0.6075885010370055,0.4876866867236629,0.38126963218969134,0.27362925347979683,0.25765080964566245,0.3027484971361707,0.3731079173369096,0.4832220153672484,0.5896023651313129,0.6627400960481014,0.7639233500264062,0.8533038716520549,0.9155359500145401,0.9090090404190994,0.8179546142870224,0.7178520446265706,0.6330006560539951,0.5415154577849943,0.45460186188608454,0.3861679270093701,0.3730114009698582,0.4046990217263762,0.4027857046935148,0.4234765000989782,0.44091468980495296,0.45896022925484115,0.41806452191009313,0.3543772816051476,0.28150842224532635,0.25328267040722263,0.18970869989431094,0.18191357200069636,0.17600535593392763,0.11779696904868953,0.08218225362233511,0.04849274016596805,0.038903145139491,0.0,0.03693323876447607,0.14095164624349277,0.2504015371510926,0.3750576967704191,0.49570762903479615,0.5840177452854531,0.5908202394481865,0.49011573606019,0.35808845544761336,0.25155221639007763,0.1385377655298532,0.14447204716193252,0.16072708960429782,0.23903315019812776,0.3337085025081139,0.4416346535792055,0.540967193679954,0.6131709482077214,0.7138314449731675,0.8024129765234873,0.7973538441779091,0.7147256381065867,0.6161622800747786,0.553548383728228,0.481912150000392,0.5025321652990913,0.5247331666159969,0.5492660078730696,0.6131778391551581,0.6749480492903466,0.7199698226032316,0.7220298130135729,0.6881851044535239,0.6395386082270313,0.5602490278512997,0.4910964172845471,0.42330690033124974,0.3865429155052311,0.35560728624999705,0.3312663453343978,0.3144706653812843,0.3705272843287357,0.38031349555142935,0.291627238065681,0.28327204151390095,0.3842107369907559,0.47753090493911987,0.6000849513210733,0.7108394522215722,0.7917368615329252,0.798051834769459,0.7163771172698157,0.6133243251956886,0.5219845677220691,0.4657518338577713,0.4432475053998326,0.5271391927421547,0.6400123697806501,0.6942716056944018,0.7881554828672916,0.8842347756385367,0.9805559554437693,0.9960247399451587,0.9370562206249744,0.8494106480049934,0.7519569285962513,0.7033545983464986,0.653304416725824,0.6220201355615353,0.6652612325868663,0.6956614856995555,0.7169483135044086,0.8018559551947542,0.8653353493736109,0.8885051719892347,0.8622190983814955,0.7709083011729856,0.7303413874250735,0.6778293308303089,0.5811826875783348,0.5059335374675324,0.4715269368756898,0.4361300354906845,0.46124832772478097,0.40496599323134674,0.3240487144516928,0.30573551066179583,0.29183038832512054,0.37667942893148343,0.48552346330670293,0.6114423894836927,0.7407571401847095,0.8490224289025186,0.9624365747640891,1.0,0.9254574418912958,0.8093455962299316,0.6902701278605408,0.5641541388418219,0.47037885333826246,0.40481931369580604,0.4266070121663148,0.48060271490181705,0.5807427927579161,0.6760831345536209,0.7678668701568512,0.8700968246461471,0.9195350247393632,0.8723156723985026,0.8048823709938953,0.7641736051933039,0.6892224656931161,0.5881941433578373,0.550313506571924,0.6308591154742675,0.6874140261270849,0.6814014517075391,0.7268301077677677,0.7046562624475419,0.7461341711751643,0.7670861752655815,0.7258785033270483,0.6784926578476078,0.6126846191809605,0.5500489104645325,0.5039155916546587,0.46692811993584193,0.43166243093034584,0.33494065845839405,0.2741398889190725,0.25130384085467483,0.31697325093259465,0.3384453206678071,HB
0.1130013907020535,0.1699789128140461,0.2343757111742235,0.3075440666286289,0.38040641125563335,0.4401869983601734,0.4917021050724615,0.5588736396389371,0.6115649969392973,0.6839807011366648,0.7480239250114367,0.8234318564874803,0.9000736666165845,0.9547818756234303,0.9273999243998565,0.8642147740203727,0.791945529314523,0.7150420586436943,0.640594741091955,0.5765405131036854,0.5024089682253634,0.44816170540627054,0.3806791483498424,0.3154956911176927,0.24289729932720272,0.16601771403469767,0.0960479481962957,0.06813303754489608,0.07921200807322304,0.10556490530609608,0.1435588770224543,0.17887690275462287,0.21161930738170875,0.22294070699443846,0.1939097614832317,0.1573637561478307,0.13927127014733465,0.12813108271992935,0.1292125788401095,0.12149928788519393,0.10384328663929265,0.1130814132329232,0.11069149481322293,0.12078076273227412,0.13375732983659194,0.14533659222364292,0.12654751431878086,0.10843581042957373,0.10400329755653415,0.07896309706580595,0.04855241325148629,0.04602457392374548,0.03202062512004833,0.01724339759558502,0.006082706103824886,0.0,0.024466664547809103,0.07741144496839336,0.14454959089151487,0.22046352398258007,0.2851883004791418,0.3585309393422311,0.4354416077138268,0.5123631875129506,0.5892847673120731,0.6662063471111956,0.7430391244450449,0.8083434503438149,0.8201060770450188,0.7644926911441283,0.6997587223054422,0.6235629796282689,0.5502546228363121,0.48550784139648595,0.40936759799324784,0.33245022458403595,0.25816756431812005,0.19404242252544623,0.11826674360295364,0.04774523488335092,0.060561445961169635,0.09680902163164307,0.10953532482609507,0.10872255870580005,0.12954771762454032,0.17711345151125935,0.20976578234003185,0.24049534710010034,0.22275243203817618,0.1836694065691371,0.15843761629270325,0.1438208219470356,0.12348868543644098,0.1275354660181609,0.12225845181712547,0.13205794477723698,0.1265436922703458,0.14678453556064852,0.15990595452000944,0.15419868295658157,0.13655920745379602,0.13145955605719273,0.11146933327394004,0.12578220775628557,0.14284219338635573,0.12242202970833604,0.10477804131206092,0.10847046032155916,0.12342966219413798,0.10159486381488492,0.07504758584021021,0.10520902018183831,0.1657860918487808,0.23033166246543857,0.29847598533488773,0.3672259586105042,0.4436722355116669,0.509603219782564,0.5813144817676035,0.6582085835309841,0.7350785684479071,0.8056180174224639,0.8686064959009512,0.8863731580928262,0.8382192136998774,0.7643194512011364,0.6957481978368607,0.6268480357935067,0.5500353382657064,0.47796033679294947,0.41232089033236097,0.33582718653685406,0.25896613353466336,0.1886521527020535,0.12144441613159573,0.057219397801620886,0.08040603204296604,0.09125112933704704,0.061173332284078175,0.07111002096327423,0.11804859789989575,0.16813603948589373,0.2119344570234305,0.22287933968900564,0.1981978716076518,0.1573284669499233,0.1492948496176263,0.15162343996495853,0.12857119184098798,0.12404001617716087,0.10231052628767356,0.10487157828578786,0.1272828681995266,0.09367619434762853,0.06979935141047866,0.08782110157044398,0.10405744488997204,0.11573953955275496,0.12102881742615601,0.11948941167109117,0.11762738266933326,0.12475949337188119,0.139454495051909,0.13835651833567875,0.12533056460610803,0.11224877419613755,0.09992700878396299,0.09069944846551259,0.09542594934148241,0.13918491742483363,0.20428429548633575,0.2775050600375124,0.3420410071540636,0.41808087373147895,0.4949998446547319,0.5695386074931839,0.6336537758610037,0.7091868370402423,0.7858572790471094,0.8528393188709744,0.9135127808390937,0.9092767348010704,0.839922395058907,0.7695013275851221,0.7023781804803413,0.625697349465328,0.54877608697941,0.4728708173588285,0.40854117091398434,0.3345854293826518,0.2585925528520492,0.1941184959370097,0.12081581464470625,0.059733466998385776,0.057158984439099836,0.059128983178387884,0.064910343461547,0.09830792270288713,0.1328121171226262,0.16868482860800071,0.21293071577197953,0.24226502583564136,0.2115849541087762,0.16397901054124464,0.13584411641842298,0.1417258421138632,0.15369665886594008,0.16260994459304845,0.1418493438904429,0.17652617773087753,0.19574444983983286,0.20654931638203644,0.22976613312158278,0.25700998374070316,0.2817482834271319,0.2925586948097454,0.26623594812377194,0.25442703104720144,0.27547814885301225,0.24665491757247793,0.20803475423376172,0.19497731294424803,0.18170979785775687,0.16745202691380268,0.1650651369747571,0.19002187932969417,0.19942418694264408,0.24871074092723688,0.3212154055717025,0.39759530516694763,0.4629505478578939,0.5354018315593314,0.6123027210302436,0.6891565440019751,0.7588988389465015,0.826648397261899,0.9033976898545877,0.9755626947944482,1.0,0.9538664503815015,0.8880910356300458,0.8114665409158728,0.7349388323230128,0.6687884676444127,0.597252850511691,0.5203609510928118,0.4434401455233803,0.3679383667699412,0.30384054498104085,0.22928764302128135,0.1584737073984619,0.11362203785993108,0.1285856919979187,0.12604366121417998,0.13835162498914544,HB
0.01794328692177638,0.013357727275726816,0.013271090702219102,0.004345566084333452,0.037118446415258965,0.09989211247563023,0.17846600262755263,0.2562330248681972,0.3221543997139884,0.3991869859162076,0.47806746109315235,0.5452725378712189,0.600814739535362,0.6650380623215817,0.7361476830750244,0.8028022654360631,0.855789947354658,0.8556663761153898,0.8018204202596966,0.7334599649135187,0.6617275027608991,0.598725675741929,0.5426178215181854,0.47471983973818643,0.39589187969119566,0.3253917535292352,0.2584511449173408,0.19778927686426506,0.13219250973667007,0.07223143263842369,0.04236888331263078,0.06499873872618478,0.11048780304841577,0.15995228811566786,0.18693017345138108,0.16836934175296303,0.11829009991550388,0.0825909237374689,0.04679416296648009,0.05493016281701202,0.055804865049458474,0.051978036988499454,0.08193391748142487,0.09181957765907045,0.11441927903433946,0.13751412217013437,0.18080800946600828,0.21749998369884427,0.23702312052118435,0.21950478620374048,0.177252357429023,0.13940110867943245,0.10753621249371337,0.07322643978890886,0.037974069993423676,0.029210767280665628,0.02811835224310233,0.00823886043190969,0.033459047960106236,0.09234148019310506,0.15717653107646523,0.22938031366582257,0.2975060658919828,0.3763644196416691,0.45048497077612204,0.5182820297206767,0.5971027334109946,0.6763819892147875,0.7520106647324005,0.8185637820045963,0.8883671990539486,0.9216714602774583,0.8777679854367828,0.8125663977962789,0.7357045940072666,0.6577201981698892,0.5916120326884684,0.514985522552446,0.43570351578884203,0.3583750582415104,0.2926657114051352,0.22974361909895746,0.18357606196544385,0.11781120487512142,0.06713023384300243,0.07952072928991338,0.12398895198306681,0.17452573505182523,0.22186445067279958,0.25393061497800895,0.24102716185257478,0.19066824254903425,0.1591404804611125,0.12527470761795634,0.12098381873969277,0.1241417972715495,0.13716671157785676,0.14584430627699785,0.1689846760186806,0.1915968630860836,0.21994613147076159,0.239934426604679,0.2308569418450106,0.20026346838143372,0.1629452843472241,0.11031070621922412,0.08249804206432154,0.05394510687564136,0.03796681634575405,0.03195149899025074,0.03215940518370308,0.06821171658279512,0.12942224719068518,0.19730926951497496,0.2701109953126002,0.34935093591236877,0.42863957631113303,0.5079165563202066,0.5830172642178137,0.6499746510983773,0.7285860563644326,0.8009411631646572,0.8670532006924883,0.9047288181355801,0.876272996557864,0.8076047581984587,0.733796603551756,0.6659380392660572,0.5870185743992953,0.5100935777771141,0.44415070654480315,0.366300089195871,0.2893101351869327,0.2368569142590533,0.1789397419754053,0.10486338167144904,0.06110491430129139,0.0771339966374276,0.11999720960064275,0.15453100223434113,0.20158579863403991,0.21839542889597263,0.18046576363706146,0.1406119488975781,0.10881513374066554,0.07981547361505559,0.07695747452440438,0.08370814208376887,0.08803612284066231,0.1023339339620084,0.11848995701965448,0.1468157090977953,0.18773420905710658,0.21454682000937586,0.23432099682002994,0.20893414568160207,0.17273889398490017,0.12253171587570222,0.08322732995410842,0.055189863052520494,0.029864009261873825,0.007891691007760215,0.0,0.018503634290642168,0.046358230478686924,0.11012923376007944,0.1758528669643762,0.2507959607493193,0.3169961234377694,0.39514905178407567,0.4741244940882612,0.5425606725255374,0.615898566742231,0.6948778135774476,0.763674921293291,0.8303597126174362,0.8708775329629779,0.8477475279459687,0.7726225138296225,0.6933387322661897,0.6147287836764028,0.5478873706299128,0.4726108009061316,0.39391885224178314,0.32721702898559046,0.2681984464870393,0.21307875464029324,0.14728924287565137,0.08973316640240814,0.08966604040490722,0.12569861935263216,0.17958984029272074,0.2223289681313707,0.25353935217352275,0.23945901411963755,0.1938684866898952,0.15383920592383227,0.11900486543548361,0.09278626565359627,0.0997296919241486,0.1148449774812379,0.11280897069990026,0.11612599421262715,0.13223783050226645,0.1706345772896758,0.1911224698325289,0.2173941276261484,0.2316837875810327,0.21142241186355193,0.17629544870336744,0.13292459721825622,0.09132375502964551,0.05948843429593387,0.02740643182709368,0.013794788975354688,0.015189748257706803,0.042256858931469576,0.07946195655333899,0.1387213863486325,0.20946844940804565,0.2791610887067484,0.3510512213654122,0.4301026299814663,0.5003529457643014,0.5717854184325852,0.6509703896247316,0.7292859310988153,0.7956824839528833,0.8716103052220285,0.9426692782567865,1.0,0.9892155848847568,0.9246267055545023,0.8532498508201494,0.7745342185507629,0.706887101046207,0.6325939249514545,0.5533227312411069,0.47490667002733966,0.4083662063921132,0.3327113480222068,0.26614997457713807,0.22223478714489575,0.16121612902649396,0.09789717401872133,0.08795706491525346,0.1324904814302088,0.17949428822600932,0.21322945651946945,0.23837743428458147,0.2198260361542279,0.18260422364757511,0.14678026964457347,0.1091022270385742,0.10383069996591932,HB
0.1657384559791073,0.164753062390677,0.15309955288679578,0.13773368647228312,0.1144202220271,0.09267352647474936,0.07225444773466072,0.05777930390886454,0.04628923155463771,0.044704417102459315,0.07067056273816319,0.12141656233654907,0.17033438078536078,0.22808327963678932,0.2844690194460775,0.33404333409577247,0.3924974172921296,0.45158171168249095,0.5104827256104991,0.5619701455185162,0.6160344381326379,0.6750751493429024,0.7341596213680688,0.7926090479162033,0.8421878415793154,0.8985764331720112,0.9574732217261908,0.9999999999999998,0.9804632305934515,0.9351156214329814,0.8780144619475585,0.8189331126969412,0.7603040856309782,0.7104529918013249,0.6545155639292146,0.5954395566133261,0.5363550845881584,0.47739139605843994,0.42541356617201864,0.37189561183568665,0.3128616469277474,0.2540318703528117,0.20302629767183622,0.14843846097632452,0.09292833300122472,0.047163106531868726,0.03664867773132463,0.05538392070331155,0.08485245375242267,0.11665852374477059,0.13898570649531927,0.13912688193718936,0.13261953886840172,0.1177278458470219,0.09059547309364224,0.08176607117983603,0.08166153900317874,0.08166153900317785,0.08166153900317741,0.08168187940392468,0.08577206689069716,0.10137834811918967,0.12833231361583697,0.15118366435608155,0.15843867828853697,0.15055611967402727,0.13441358508303813,0.11139768391592653,0.0904239185124871,0.06915864693736995,0.048961863715520915,0.0331265024819174,0.019247136820120803,0.01031859537673685,0.040946642619345,0.08999883494253802,0.14794103248627066,0.1977397164317487,0.253789185815281,0.31276011910242274,0.36522292498660724,0.418268412692987,0.47727061256297865,0.5363484399981784,0.5927358300121439,0.6423101446618384,0.7007642278581956,0.7598485222485569,0.8187495361765651,0.8701321870615188,0.9144354905198797,0.9171880570978213,0.8745556236011642,0.8164459026480302,0.7634008886344656,0.7109380827502798,0.6519551385504239,0.5928706665252583,0.533786194500091,0.4747017224749259,0.4156172504497595,0.3565327784245935,0.2975690898948733,0.24559143764325664,0.19280539996104484,0.14990349541596593,0.10036042241920273,0.051180286322060065,0.0028212346203546623,0.0,0.01889450660481473,0.05238682260628358,0.08065839303456168,0.10608455523628346,0.1197418856452519,0.11472194308061279,0.09397455541098165,0.0705566038519867,0.05669831863374308,0.06375314833696089,0.06877332774800515,0.0688170885629058,0.06881708856290536,0.06904099820513054,0.08207048680891993,0.10790169810865158,0.13390120446586296,0.15255921772821268,0.1489761059469139,0.14521695550384117,0.1295032110314016,0.1049324800493523,0.08510470703689754,0.06790053709651844,0.05299310217263442,0.036491781881200724,0.03893836431655351,0.041016897543342035,0.0726336789939459,0.12058650208027166,0.17905499832759664,0.23007909249203728,0.28462836110392176,0.3436883279843228,0.4027728000094897,0.4618572720346552,0.5209417440598212,0.5800159312563997,0.6355033969866548,0.6857393171000818,0.7444352409318349,0.8035191800525856,0.8617226422215174,0.9108546554603205,0.9647053610019587,0.9877188639879233,0.9563810659435681,0.901130873687418,0.8444134447141478,0.7950547189682073,0.7367282746096737,0.6776441578541179,0.619015130788154,0.5691640369585012,0.5132266090863917,0.4541506017705028,0.3951291462303741,0.34154982961401603,0.28959914317402213,0.2306572233216928,0.17196129948993844,0.12172549779971509,0.06684274315156258,0.03303917466245232,0.041685753197149955,0.06380169137631397,0.09827438783957843,0.12826777344373208,0.1449312828147018,0.13971063168884412,0.12496425395659316,0.09487630725094065,0.08193721220073757,0.08165921172513113,0.0799876732615139,0.06997266427012794,0.06881779910210839,0.06908366116392695,0.07935098422090081,0.099651353940309,0.12581377045742204,0.1434387521232321,0.14585560463495972,0.14098625556200406,0.12088332169289395,0.1022864996576962,0.081140465678738,0.059404083032840616,0.04001236730593427,0.02691410182368048,0.012823873193066104,0.0156401135583224,0.06176582545644904,0.11273627092000305,0.1688689654837383,0.21844328013343373,0.2768973633297913,0.33597137289156254,0.3914588386218181,0.4416947587352451,0.5003906825669986,0.5594746216877489,0.6176780838566802,0.6668167416854505,0.7238870653671545,0.7829675856553477,0.840623337200711,0.8892825038958063,0.9234596607487175,0.8963031511784798,0.8394841149780918,0.7824167956477341,0.7332781378189634,0.6750746756500325,0.6159906773176818,0.5569265456932617,0.5018772101574955,0.4513163233134281,0.392497239657269,0.3334137407634461,0.2754838713141743,0.2263845139984022,0.16902712290958477,0.11447903852973673,0.0636952639530779,0.021863760441950708,0.024640652034431776,0.051480721482475955,0.08101861402404187,0.10969007626125848,0.1292922138423498,0.1322054662266703,0.11891945652436253,0.09263786803331509,0.07102782868704316,0.06882009291421753,0.06881708856287072,0.06881708856287028,0.06885754010793677,0.07388403314016023,0.0835031062149485,0.10060297915455574,0.12441124437445139,0.15600655752827808,0.1711597667964433,HB
0.908703086524135,0.9472424503943935,0.9202711313474734,0.8578238982049404,0.7837094889195972,0.7213859046215632,0.6517984297313255,0.5770522211040445,0.5022888933619876,0.4275255656199306,0.3527622378778732,0.278009509598903,0.20762768917454943,0.15025527942783068,0.1433781255727684,0.15542511329304132,0.16275917795782657,0.20545920148219654,0.25469893839312263,0.2991247078520627,0.3329400243819207,0.331126229586336,0.3062405100115382,0.2701202138776906,0.22964768738201435,0.2225238849185267,0.24469023003168333,0.25275363649226357,0.2589492344336315,0.24577873364321512,0.22907267715578428,0.19714510280710007,0.15982405594055837,0.12141320325624294,0.07951839472410738,0.09620097545171502,0.14276279222140387,0.18092566574670643,0.21638358049381834,0.2372098018221438,0.24594019679746504,0.24217755153024934,0.22865562838447318,0.23289595424283815,0.26510891596656583,0.3077449507901493,0.36566657293368765,0.4329597092652011,0.4954424576741556,0.5697767037487891,0.637555778614765,0.7015054094464355,0.7760191417078981,0.8506636066261786,0.9161349411576936,0.9757423486499848,1.0,0.9604754149523225,0.8881624484636337,0.8134008055789246,0.7386374778368676,0.6638745713091474,0.5902970842268038,0.5297457081271211,0.4576699024965567,0.3829087409996612,0.30817535057232526,0.23912454140754624,0.18861742280269578,0.19513286447828193,0.2095715006668204,0.22333845314305822,0.2639868110566974,0.31357295979919986,0.3588128693621062,0.371536812065973,0.3540476246025781,0.31438867376922586,0.27619086657377867,0.24003959348606996,0.21329272905562435,0.19372078359320088,0.1917808138096162,0.19074762594054562,0.17002368912715404,0.14035795732641443,0.10375203737477845,0.06627207178869021,0.023593094615601107,0.004678613319932801,0.0442114957080153,0.08881146423642106,0.1236612958310257,0.1538650629934053,0.17243142677567302,0.1736915480043968,0.17370293384886226,0.17845977091735277,0.2046760500957565,0.23867768018845048,0.2964709444522349,0.3669551729463554,0.42750596736909685,0.5010136580137643,0.5679344901955758,0.632713619303122,0.7072664468253445,0.7765688830388231,0.8290647513495375,0.878441560425435,0.9279898605390717,0.9024140457580976,0.8328254349049833,0.7721579587086822,0.6988435320969693,0.6240807659740288,0.5493280376950578,0.47894377009977385,0.4172687145687095,0.34311535687887984,0.26839356916252477,0.20012243463892343,0.1459174438772317,0.14041623039195938,0.156245048251491,0.17205150988204965,0.2050186532138163,0.24421647198580043,0.27629279837672893,0.28102367345433654,0.2584652072463922,0.22132356898385463,0.18404030711701402,0.15286354039771988,0.13804427591473356,0.13751620558822397,0.13746693042186697,0.13019389421775296,0.10395033298762923,0.07384452032352984,0.031242149814258546,0.0,0.025542163121220263,0.06467716877454066,0.11080059419629817,0.14766794386596516,0.1699747034774277,0.1768295184781694,0.19072657213551203,0.19188146638109016,0.20490259732671268,0.23700002028705303,0.2755991875167738,0.33367048440198044,0.40059338311060655,0.46398891191128744,0.5370152343586647,0.5976839140244992,0.669907009233087,0.744664933141268,0.8170320624108189,0.8772277834322284,0.9346747213677276,0.9302561108794358,0.8677459301744292,0.8030772145455805,0.7361559611494282,0.6614624298450482,0.5867638475506558,0.5200415290802964,0.4551218591137376,0.3804970207498979,0.30594477980469437,0.24144253122112858,0.1758417384097557,0.1489122517085364,0.16612666195654313,0.18150817064038627,0.21559943025379935,0.25982194708742234,0.30435363870484355,0.3342358901625637,0.3352374068400854,0.31222552395246383,0.2789622247044172,0.23811809978197696,0.20189859320139725,0.17553134504337153,0.15706449472523243,0.1553165649160757,0.14394144825238042,0.1332756781324136,0.10294775833334491,0.07283025685049926,0.053579950925784825,0.08744817370870894,0.12833736841837595,0.15985358874474453,0.1900657291046972,0.2160155046975527,0.24289440717698874,0.25790334945815196,0.2632539131902303,0.255177329085031,0.2776613453720751,0.3051273862062014,0.3670199183940097,0.4275059673690862,0.5010740785870267,0.5717912451988916,0.6333092803158569,0.7072852951106152,0.7813552086221605,0.842589933497675,0.9134544579269606,0.9794899843152329,0.9924275110436453,0.9481899351709187,0.8820552229816965,0.8073715049545358,0.7326690550898163,0.6656548504226243,0.6010211209460072,0.5264060958593872,0.45164276811733073,0.3771097815139979,0.3128836512570379,0.24545735610360353,0.1862876476890798,0.20137587134627033,0.21324715586188248,0.23644715247066417,0.27863379778968644,0.32375839331778744,0.36810310767549126,0.38788754286287963,0.374775620101798,0.3549673542015612,0.3143154259140988,0.28062995713449235,0.2505494772054475,0.24303265137540198,0.22904895836629668,0.2266282136289255,0.2080423735007093,0.18312578471622487,0.15508301263324276,0.12137254105647655,0.07913382076726583,0.09363527610125821,0.1380858299748131,0.17323089113261636,0.208481018855728,0.22689570817234195,0.2279553739705631,HB
0.2762823854220726,0.30960796730665097,0.3452241780091607,0.3610261040012661,0.3355575090715597,0.29869156081130965,0.250268491037569,0.20926457391526343,0.1667423801517942,0.13116097465929544,0.0986637365326386,0.06995393352937862,0.07794729440536718,0.08811088018290603,0.06213142508765879,0.029902885252246048,0.03167294992983871,0.08936361210423538,0.16066872331076,0.2220799983297086,0.29402047139869536,0.36462167520556354,0.4264960568256222,0.4872910528093555,0.5423288786376208,0.6152968825237228,0.6793731883603162,0.7474012796040754,0.8212325407026748,0.8935363304249799,0.9481347291415871,0.9599092196118328,0.9119501081225341,0.8467809774953787,0.7740952594506165,0.712376728032575,0.641242487249329,0.5674584809110046,0.5032149807662867,0.45923134526784803,0.3935146694144951,0.31971145431846626,0.2458424038421576,0.1720566158875796,0.11469724234399292,0.11323016432001998,0.11782246555573384,0.15823287894344285,0.22264258900450784,0.2720147827099355,0.29989665907982044,0.2709775592381072,0.2431291188727358,0.19918823216931747,0.16020059896171812,0.14586459761620185,0.14078812975409694,0.13610729393667143,0.15882235733910566,0.17108434411392004,0.13853332135856666,0.12160759882606254,0.11862240643880506,0.1246351525701459,0.14708988010975954,0.1879943034663336,0.22609649880351324,0.2667925894592047,0.31752534545573585,0.34307022514608,0.336366239085399,0.30686763130010375,0.2691786367987232,0.22924559394157695,0.18100317569731628,0.15362001065906616,0.11874779690021153,0.0798479007182511,0.06186779217804084,0.07071434002802235,0.06325950433578154,0.03645773205433178,0.006749515691084174,0.015058643117690451,0.08001120684409146,0.1414242770588663,0.2132230206708896,0.2870890817730274,0.3609581322493356,0.4348271827256447,0.5086821577885359,0.5779802884534457,0.6409714005835387,0.7143672102563321,0.7881863907873781,0.8553997274313643,0.8991939945117613,0.8861578312433878,0.8259699110328702,0.7537950415816517,0.6922553593847476,0.620622814397009,0.5467780496670991,0.4774858862164022,0.414521550777756,0.3410847328826012,0.267442434697049,0.20296505728748793,0.1354513086525917,0.07179746468077397,0.06512325485244963,0.1093578518735554,0.160681813300954,0.18767907196249878,0.22825001218051133,0.25582666319090697,0.2643257598265816,0.23635489061841053,0.19159065153040178,0.1627883710981881,0.15594085655990142,0.13995175114367342,0.15667349074269188,0.14780324579334403,0.14096483658839132,0.13774835957979414,0.13486684480176026,0.1478310520445918,0.17833549142690908,0.19578475016065333,0.23170652465230068,0.28888438931649896,0.3164825316335209,0.33256129145969826,0.3192922026889935,0.2812016414602252,0.2369841623584925,0.1928745836738326,0.15709327719493915,0.12293492579479537,0.08639305098500083,0.05836106030013788,0.046000534855088926,0.03437656793325328,0.022752348378824117,0.0,0.048289648412911834,0.11379423809382105,0.18482390370238555,0.23393179002947617,0.28807646702627254,0.36126926587418495,0.42828443569076624,0.4932915978197774,0.5670040370042404,0.6408397269159685,0.7093373946741783,0.773021532906601,0.8449144215582098,0.8848968044055896,0.8499993126756058,0.7889299817003397,0.7344459624394242,0.6777781552165938,0.6112522891905838,0.5462050293440259,0.4725116475624547,0.3986472987179792,0.3276232404002606,0.2658587030299815,0.1929756148160564,0.12186249284517991,0.07466055273062588,0.08224775488985081,0.11609956528601817,0.15962756208037066,0.20678132145860317,0.2408642892467805,0.25265748755344575,0.23297681380834678,0.190083885559317,0.15520743494095823,0.13185884332090492,0.1353793907686911,0.14060393637663937,0.12046198188667567,0.12890408422116417,0.12951724540938425,0.13358635521829187,0.15762208044841408,0.1842412373551361,0.2208167923575104,0.26022708549977835,0.30993317618833016,0.3560109676727854,0.3799475981119831,0.35545573326446744,0.31334550359960867,0.27326075644119063,0.22417091237675457,0.1864508212390068,0.15567171408295888,0.12346089098595803,0.11560015979932903,0.12072197563847098,0.10787295498779104,0.08334636473900359,0.05844832790698895,0.06393965388407086,0.12240420149169307,0.19369620076845528,0.2623498585344146,0.3258961443713999,0.39938916632202215,0.47082238962796286,0.532433611513321,0.6050638752933271,0.6789325221167424,0.7526383454294767,0.8178331439364332,0.8846880701163755,0.9568051594765028,1.0,0.9761561554996536,0.9125640277322664,0.8471493971679878,0.7734250774771847,0.7001746589259681,0.6378577799122525,0.5677435673027036,0.4938849261265905,0.42001587565027654,0.3461468251739692,0.272282144924787,0.2012224327673442,0.15390726677828992,0.1561116267282774,0.18743826900570415,0.22754584301137282,0.2675935183732081,0.3010032200716819,0.30056326732511884,0.2720275139202797,0.24658473681959947,0.20429796436176995,0.19330937227681888,0.1917987925130591,0.19507269677433792,0.2077436741999632,0.1944583216619713,0.18710719447334245,0.20303847378548578,0.21485179813350186,0.24012005308313,0.27125780119278886,HB
0.0,0.00013339019201641378,0.02293267514884345,0.0966274108455405,0.19584251192889823,0.30171795387672073,0.3548078495652147,0.4369807457678627,0.5018944430954511,0.5488347380638752,0.6524932931792584,0.7260967930535811,0.7795907633603631,0.7916544285373721,0.7916676865092418,0.7942859276381959,0.8234891214071691,0.7950134136377116,0.8214332439283698,0.8349944686902324,0.8674150986155889,0.8776151815954716,0.9117476202347143,0.9217183631749108,0.9560750426338931,0.9583333333317121,0.9581585392743497,0.9337230372669643,0.8841010107554368,0.8727468085207102,0.8383850298417981,0.8284142869016229,0.7950144334818408,0.8240525049014424,0.8701959865684357,0.8928324358643449,0.9164918726078488,0.9166544285373641,0.9047655574177469,0.8757070891183787,0.8566569003138538,0.8047694687401412,0.790938124330907,0.7589706800957661,0.7500050992188854,0.7499999999989502,0.7499999999989626,0.7500485427722667,0.7655089246557818,0.8230014536189669,0.7801224483172602,0.7057515491949147,0.635634874986386,0.610670905216514,0.5228151562308208,0.44417219797457186,0.3466274108454641,0.27215660988486956,0.21251529765986277,0.17006603578846313,0.209541145224458,0.28241539914271385,0.35619703233778655,0.459513163206994,0.5470312771583421,0.6352454583030216,0.7093561527262837,0.7733113288529649,0.7916462697858817,0.7918798050564497,0.8154656633080934,0.8333129364525007,0.8333333333322956,0.8333333333323072,0.8333343531763084,0.8359525943052635,0.8700778940365819,0.8750010198429292,0.8776192609718825,0.9117323225753324,0.9045907633606918,0.8518932551976119,0.8329882343317934,0.8045522509737273,0.7841282683682422,0.7533467469716735,0.7840807454389553,0.7918757256806686,0.8154687228402366,0.838364632962481,0.8727417093012493,0.8700778940367231,0.8359525943054198,0.8325582879125806,0.8001619171021161,0.762894762903148,0.7500475229286483,0.7499877618714859,0.7380988907518713,0.7090659185522323,0.7172917753017627,0.737148031430622,0.685439726922219,0.6907263246287112,0.7259705782613928,0.725194512997497,0.6574245777383059,0.5962623611943316,0.5511642420909473,0.45075237976371607,0.3737737072920515,0.2728830760408014,0.21251529766028288,0.16929204670407305,0.16950518509485413,0.23631429430270945,0.3144828427423194,0.40516997124773546,0.4863020561743854,0.5644828427418647,0.6551648720273358,0.7271979858850921,0.7499796031197166,0.7499999999995115,0.7499999999995222,0.7500475229288384,0.7628896636834117,0.7911912370055036,0.7916676865101433,0.7942859276390983,0.8300846008566323,0.8674616017017787,0.8878855843072797,0.9161912370053304,0.9166625872900234,0.9090807454391081,0.8717390293954104,0.8240514850582654,0.7916191072458281,0.7589737396284706,0.7550567957294252,0.7894134751884101,0.8023107202493325,0.8666380135086751,0.8749959206235207,0.8749877618716191,0.8630948113760457,0.8264748981055323,0.7933278020246828,0.7775031873450864,0.7065265946155961,0.6683430996847743,0.6666666666666003,0.6666462697868294,0.6487989966424434,0.6259406243903145,0.6539894921552358,0.6339615015009947,0.6298820016724465,0.6397980799040877,0.5875122381280216,0.5420286567860231,0.49667033298355,0.4045117656677757,0.3218325585389934,0.22433965344656315,0.15013033066102377,0.09643715525307872,0.08621325562746396,0.14568365435933206,0.2243396534465818,0.32183255853901827,0.40463903679587343,0.5102260812683053,0.5867622753095185,0.6613902831078793,0.6895507990422667,0.7467908499808376,0.7173040134301809,0.7083384325532993,0.7083333333333632,0.7083333333333748,0.708334353177376,0.7109525943063311,0.7452082246976879,0.7678334557097175,0.794111133582164,0.828414286902821,0.8383850298430193,0.8727417093020007,0.8749999999998215,0.8748252059424617,0.85116576919898,0.8334636639933004,0.8333343531772623,0.8359525943062183,0.8717512675237513,0.9091282683688968,0.9295573501943437,0.9668163456414129,0.9871480314309107,0.9352265885317372,0.916796997326558,0.9144042965927683,0.8724657752828753,0.8349975282236812,0.8214322240858838,0.792399251886243,0.8006373467636436,0.8325572680694995,0.8333333333334156,0.8333363928653954,0.8382102357858718,0.848131413237458,0.7953701418007544,0.721589066512629,0.6709704438065165,0.61561840181664,0.5404403739592594,0.4395293458282268,0.360838864642675,0.26572716226874693,0.2502667803852452,0.282903066932489,0.35546954633955696,0.4299607441799438,0.5275055313090498,0.6061495094092946,0.6968366379147133,0.7778383921813248,0.8375885676996342,0.872741709302308,0.8750000000001279,0.8750000000001386,0.875000000000151,0.8750000000001625,0.8750010198441629,0.8776192609731179,0.9117476202364045,0.921719383020589,0.9586943036085147,0.9950778940376415,1.0,0.999223934736106,0.9623819074679245,0.919116232802355,0.8920573904460776,0.8419589144299211,0.8045614295709189,0.7917141895964148,0.7916697261990908,0.7967183631769394,0.8312881810266965,0.8566569003155085,0.846930086137335,HB
0.1351384872178123,0.1374175462220566,0.17362586859766083,0.23399031941208337,0.302055588740755,0.3432197756695685,0.3819842454284226,0.38973595158609875,0.4063173257493764,0.41587032530398904,0.4181002454104221,0.393368989941274,0.34189575492927027,0.29159392767342585,0.23336867236620806,0.16974860739083164,0.12422222104228764,0.0616194935294021,0.02179964587625749,0.0008988440399440023,0.0,0.0175743169680449,0.08284381040415179,0.142898728890406,0.19403978338983308,0.25095410042547694,0.2968264488944481,0.3011601612347432,0.3444518663750378,0.40381991260261296,0.4297079540853632,0.4474059238446211,0.4520164515054814,0.47252201576843955,0.4856945084729687,0.4827937185769766,0.5134315542739247,0.5195935786865808,0.5327730010916363,0.5194555604333577,0.4985912603665392,0.5046479048735666,0.5165222789805766,0.49854915764810226,0.49937821957392314,0.5172564826182238,0.5027473701223406,0.5052334691283016,0.5412436594767391,0.5884102987547828,0.6268733307211285,0.6576002912835843,0.6888632152047776,0.681704298476673,0.6327702561937074,0.589438173151505,0.5597127159885753,0.525305248777479,0.49858869908334835,0.49664027138534417,0.49681639302921177,0.5115634283858985,0.5629351626845431,0.6193742030178768,0.692836092449471,0.7534970465507849,0.8201764419420381,0.877632315572046,0.9333900463595892,0.9446995838818903,0.8904814059316779,0.82143086746163,0.7605107154351725,0.6941521251436344,0.6363778005073621,0.5732975736490675,0.5427810433826865,0.5162709129836007,0.4697795403001228,0.45182439887257164,0.45145158549996633,0.4514515590506609,0.451454199681832,0.4541895072392843,0.4725651964434139,0.47599443918021,0.5021471088763527,0.5190220889703632,0.5192357891724892,0.5220378528830372,0.5505298782399497,0.560241280640791,0.5428883294742022,0.5342548741029489,0.5196032683841643,0.5192326460044576,0.5167328095654677,0.4985886197355147,0.5044379032751491,0.5044369172675229,0.49668138809626505,0.49664358063252845,0.5009406442455364,0.5327988387452258,0.5704362753280918,0.6050590617772356,0.6406181072854684,0.6408330106080444,0.6022839969363107,0.5557139080106723,0.5179282464059991,0.4891400011305862,0.457754416029446,0.439062797224695,0.42910057368417487,0.4418746072561355,0.47506004900637633,0.528823210604783,0.5901840474600815,0.647597755553146,0.7074024858379291,0.7649910962267583,0.8282957464195704,0.8889751022334429,0.9281730133469539,0.8678846094374859,0.810972097541879,0.7424366951504942,0.6846132894102133,0.617990461549013,0.5672712220861746,0.5105497299300907,0.46922214293858255,0.43765578898503144,0.39511452715299455,0.38786102982808535,0.4042871668006973,0.3878608975815423,0.3938628764268688,0.40790393979885176,0.4139511193522023,0.40627346591125235,0.39627729899898734,0.387148289680987,0.42286193551622464,0.44776891527351115,0.4692075532636313,0.4951603520120118,0.5030753078990209,0.5335487571272006,0.5267316455584128,0.5046548398056325,0.5167502588493935,0.5191760255759212,0.509243577445937,0.4953343010406126,0.47786087150054746,0.49449407078879526,0.5111383043894695,0.49829686525655026,0.5212538127535034,0.5418964500154098,0.5629715381354106,0.5924560926568385,0.6274367272486523,0.670478786650047,0.6898421758608277,0.6817044042741855,0.6327702561939796,0.5893136657837257,0.5514168857692683,0.5074522844407077,0.49655046644554046,0.48423734307352095,0.47825491777380735,0.5040367060349484,0.5624960644758126,0.6182977143775537,0.6746159609644256,0.7379159985108132,0.7947126208355844,0.8452940763445045,0.8833699773491208,0.9354943989884124,0.9833499933780105,0.9340094209414724,0.8613945637427363,0.8042679790793219,0.731071878083891,0.6701917509633821,0.6129111555141122,0.5625521011477757,0.5124670598981473,0.47619193139358584,0.46164019711223325,0.45151831520402075,0.4514515590509296,0.4512410284661761,0.43688330764565775,0.4349660980237693,0.4515202493974635,0.46845433208266574,0.4740361292567008,0.4746090377193939,0.4885653055541397,0.48205160433648553,0.5041572749702841,0.5231467898251347,0.5398503457821486,0.5233567914237001,0.5167545541042378,0.5046127370873279,0.5187386804046765,0.5192341345492522,0.5211310078751623,0.5337355825974659,0.5199728592410797,0.5318378373492827,0.54183730612547,0.5531086016832649,0.5889464246159815,0.6199225988231203,0.6643687258540121,0.6957947699249423,0.6928924783421166,0.6479692173989116,0.6017655392794152,0.5733043963461868,0.5441362619023504,0.5251684469607727,0.5068444925128466,0.497800032354236,0.521665955967018,0.5649929619582061,0.618280688282848,0.6676008700203448,0.7026225135345161,0.7549407176959471,0.8268621596347181,0.8839884269064178,0.9565502374166579,1.0,0.9557023352236067,0.8815445496633485,0.8161644644225468,0.7532952987964734,0.685715695104351,0.626051890834757,0.5743831369500252,0.5365605770095749,0.498898671694501,0.4612367663794288,0.424107711911089,0.41256933033382825,0.416519646137977,HB
0.47788851207662697,0.4090806008997978,0.3330843042713476,0.2570790240827443,0.181983038408414,0.11942998289231888,0.05529867691306922,0.05950968584082883,0.08345419932761855,0.12052911734750449,0.16731071450768198,0.2062005771268436,0.23174702662901803,0.2456134437753672,0.22340297889373684,0.18187674539097376,0.15507836581730006,0.12104671744409812,0.09005652351281679,0.08540521373273968,0.08539534097611368,0.0854053296800279,0.08966688618484575,0.113752858265316,0.15067271226762458,0.1895194367888311,0.20840283941083637,0.2086975748985207,0.18678107176214187,0.15139935719080988,0.11726564326798838,0.07760882121504364,0.05034547424380431,0.025379611601504592,0.01343023969162127,0.004415359298004962,0.0,0.02790470570300796,0.08254368177609361,0.1537200518251205,0.2160113950294602,0.2908474970309247,0.3573625640666389,0.42506040962613634,0.5009092924260168,0.5688362148057808,0.6351604651089078,0.710989545009888,0.7838105603865184,0.8460468556015179,0.9190363402794421,0.9744634715454055,0.9902554077393759,0.9396459086415754,0.8661290608114296,0.8005258859625868,0.7318526408804535,0.6558958149682019,0.5798948471804124,0.506680150127071,0.44463240613263855,0.36988622923250825,0.29388071818000094,0.2179175937630542,0.14825005705193606,0.08359675970556646,0.01132441403371276,0.004719911487996331,0.04050723876229467,0.04889599631587016,0.08704386004715081,0.13255329935650684,0.17292763047101412,0.20546377872623633,0.20979687142325343,0.17951642442856075,0.14843825418128187,0.11906217022374577,0.08816945213614735,0.07020659661145068,0.0674490719222578,0.07513681887801082,0.08718154505948794,0.10234044730742786,0.11874416597692283,0.1449371186955566,0.18252628276890004,0.21426880358176925,0.22894846354008713,0.22057588018484875,0.19229440994188707,0.15484238667708494,0.12166878999662423,0.10052969292073755,0.09741140197704468,0.10078856622811516,0.08570264753378742,0.07058190753974536,0.08831552264743525,0.1451512581393235,0.21625867578718294,0.2780944192344168,0.35215344257120273,0.42471081955755885,0.4871300002972556,0.5621606785977784,0.6373678180235873,0.6997311820289438,0.772171340990039,0.8463080206561591,0.9081366969891738,0.9750761534880108,1.0,0.955997580041823,0.8807336789830584,0.8047382057427623,0.7328758225335719,0.6700602215703526,0.5947240932473661,0.5187185821948583,0.44310230433973663,0.3792941590693082,0.3086933878670197,0.23270899645916465,0.15677338030294363,0.0894580447582709,0.06730120499658154,0.08622567092784728,0.10927595031829362,0.15798377600600721,0.18519700168238495,0.1699924674588571,0.14387518674260846,0.1287371338361587,0.09189907672183573,0.06709996290709652,0.03638665422821408,0.036076028946237404,0.03367233411140669,0.0207776638555095,0.03107045507898798,0.03194592323387102,0.04477766825309626,0.05638942554021131,0.09020759937461298,0.12809133380475668,0.1571194747837441,0.17338797921308347,0.16128082506891106,0.13166217216869436,0.1007812610772385,0.06785386757234724,0.042237400943466064,0.018846666556560976,0.013365815091975985,0.013370365160661368,0.02159874577439247,0.0680424038040659,0.1264533170849762,0.19492256356752513,0.25802599296040585,0.3333668812865205,0.40816265745878866,0.4702262924647509,0.5433757619645925,0.6193480140503587,0.6890651740813971,0.7536732736683374,0.8250079062957867,0.8871915252746518,0.9293542825772971,0.9040767049712195,0.8314268654537931,0.7554234776751598,0.679417966622653,0.6038565125623769,0.5402568566802555,0.4693950912407998,0.3934083808869566,0.31740366016417054,0.2431724926914045,0.1813721944479778,0.10739784304829936,0.0332349919103927,0.013862334018740263,0.04702976598839115,0.06948852488758339,0.11217765306094929,0.15909680642031887,0.19716068326622027,0.22615953236255937,0.2264130313239341,0.1937412594112855,0.1561605949250393,0.1221997193895108,0.0905760357802432,0.08240776608897527,0.06848624319250174,0.06764776660304239,0.07892468829652,0.08547473981614528,0.0948315286188417,0.11702043749758673,0.15640696165063117,0.18682969482666367,0.20591081816206858,0.19977383913063118,0.17672906051113024,0.1428995180199304,0.11064475596880419,0.07990569020186555,0.054487613553098946,0.033765549227422476,0.03135511582706929,0.028626459157603534,0.030540104464723772,0.08397219472123663,0.15143306785367594,0.21684980735282755,0.2919346145641315,0.3547253715222083,0.4266172766544569,0.5010845823476098,0.5630460608508652,0.6366148503374904,0.7117054611729698,0.7738636131602363,0.8448979154803329,0.8988462774216139,0.9025084482515213,0.8516770543860002,0.7781663497511095,0.7021631102646193,0.6261575992121107,0.5501520881596011,0.4741731669196656,0.4036486072434129,0.33971502604887815,0.2641425024239106,0.18813887061309487,0.11432807866354544,0.054255660813861795,0.030596881833094614,0.050690477034224024,0.08096428667879296,0.12421327096446655,0.1731017919382336,0.20651014486323538,0.21136599623415364,0.19970747184295012,0.1609250360196639,0.13300439117779828,0.10648934960623269,0.10341065070339361,0.10340779944989986,HB
0.12491699876353812,0.1498910806056739,0.1886029998147969,0.20961775284252093,0.21105125094444332,0.1931186623737995,0.1671105377341211,0.15505156802937847,0.14917108551209446,0.14998800882127927,0.14299971092353903,0.13740548668411368,0.14153568596079236,0.16880658405609128,0.19514894513181336,0.22321124828589967,0.25109913319179955,0.2490800752861213,0.22966365331675465,0.20188027478372517,0.167090541344032,0.13476736717373639,0.1078220430462713,0.09019610953980517,0.07573655712316252,0.07737990073891043,0.10650955859777556,0.14846222227694206,0.19457058970841556,0.24226961421773496,0.294107255013899,0.34871129702670856,0.39551426710673776,0.4499806668150137,0.5057803331292934,0.5599264039967189,0.6068884996581143,0.6616816373090735,0.7174845650870647,0.773288290344486,0.8290763988264456,0.8803715755458772,0.8981075597165715,0.8634442656660999,0.8167553580060989,0.7617750646934123,0.706006492819381,0.654639894112649,0.60569135017406,0.550073389314792,0.4942855202760905,0.44162483793966767,0.393833591119815,0.3383774768666974,0.28494850256601634,0.23765094848301116,0.18329557919164774,0.13632760390214393,0.09544991140668846,0.10680463061085366,0.1294892801017129,0.16157819927621975,0.1894662721139242,0.20681089023922583,0.200394807043627,0.17482089376616883,0.15783929511197337,0.14776129527891602,0.15403911088988398,0.15436803723984593,0.15437446936730348,0.15716234434846355,0.18239142449108914,0.21225871802886287,0.2401728893690529,0.26741936534652977,0.28049167075442805,0.27381328007652117,0.2472608400913876,0.2140221062642853,0.18293560824475463,0.16009990235278182,0.1387034401968925,0.12970850155250613,0.12424307427358827,0.1523831221907037,0.19429305309773137,0.24060953698562848,0.29495921478141285,0.34227812798967583,0.3956705628548949,0.450517061788825,0.4973485170323724,0.5515662168570368,0.6071507007126555,0.6558520367853913,0.7074923839522513,0.7632647244246564,0.8181648922574316,0.8650565074521614,0.9183712583730828,0.9522693985967756,0.9290690802621835,0.8756320490397329,0.8270127108937901,0.775292337509381,0.7196400341563305,0.6700532686439449,0.6193624873446717,0.563634108542306,0.5120426837486407,0.4781617126912281,0.4306073495463154,0.3749418489345373,0.31947288660979134,0.27135469275638435,0.21908821066993633,0.1685721864108698,0.13765303597912193,0.15231618592456964,0.18008966586596786,0.21327586329280246,0.23841914021494803,0.24458991881845438,0.22731641154362503,0.20852943644105348,0.20059005260886398,0.20041970787773478,0.20041970787773122,0.20041977289953983,0.2007901485007928,0.21369798935337814,0.24346159470475537,0.2783742532687794,0.30100553568641786,0.31361659491353966,0.3011524061654163,0.2720253202693441,0.24754188681768374,0.21629200478087895,0.19272181948883804,0.17817760393726645,0.17673405642967532,0.17377432845984897,0.20913316664477555,0.2606296532590169,0.30818610915955746,0.3550830127126894,0.40867322247788107,0.4640642733126017,0.511694017931789,0.5645786762810439,0.6203677178224918,0.6745726820018347,0.7215154897139742,0.7762688711718384,0.8317083798952509,0.8794457926482144,0.932166255868528,0.9835610858509887,0.9999999999999998,0.9659594732073116,0.9197839402290093,0.8731487840029548,0.8323769848278795,0.7777583672068997,0.7299576776045267,0.6772446684306852,0.6214533971075185,0.5656496718500994,0.5098459465926786,0.4540430530741688,0.3992796778905985,0.3523320481911456,0.2982175484403051,0.247765240760216,0.20401547751464832,0.20598693964663273,0.22613100203940606,0.2559344809965891,0.2912602857172124,0.312855269689005,0.3138427640760393,0.2950132059094437,0.27648862873324975,0.26107396413912487,0.255806293676448,0.24053422910765154,0.21652744128626833,0.18624508644467497,0.14659552402028964,0.10693818709063452,0.07186322923729693,0.04415082563738015,0.05429223185949361,0.07820415074477127,0.10865642246140927,0.13315898134745474,0.142145856533461,0.12956183000496946,0.10176972957426234,0.0693109438605497,0.0413346042918743,0.020673849274482015,0.0052366463918331885,0.0012890173786808123,0.0,0.024539888093699336,0.06409169318959695,0.11299611247047547,0.16157209494862457,0.217147309924123,0.27295100611876033,0.3287464069260182,0.3817218737786916,0.41766522949209217,0.46185219006698586,0.5174286748117936,0.5715600001847096,0.6185269178334207,0.6733289151577997,0.7280336864288313,0.7747264091013564,0.8157234850943949,0.8051008140601235,0.7564035948078345,0.706429074277277,0.6561900165385224,0.600459281601678,0.5448019385150922,0.49563067346388423,0.4445147405782437,0.388757792605152,0.33371663439261856,0.28663398904836757,0.23285585878572412,0.1775133823444326,0.12993689467581215,0.07805282796232205,0.04665448728381727,0.056751896230788246,0.08560701661342929,0.09632029391200381,0.10944409773546404,0.13460991018298585,0.14182321939683318,0.129549550521451,0.1131471928900798,0.09657153850269573,0.09255393832057912,0.10026734690922123,0.10799015757331865,0.10832525810046989,0.11113665541512496,0.1295256715690385,HB
0.14452128588397173,0.14799268082776074,0.19095420590931012,0.2610633103882365,0.3314685069333443,0.3791266869383527,0.41873298149776517,0.4165727282698697,0.4264291697341105,0.4323476299606801,0.3921494397899643,0.32994422958072667,0.2709040859251952,0.19612581661075223,0.14544676894419473,0.07676869489249771,0.029065916932127678,0.0021269098682732412,0.00037434289946691734,0.018579709971210168,0.09021616516832998,0.15604778441458977,0.21368061442844466,0.2754469466355509,0.32033193889477385,0.3273479625771314,0.3821171221011106,0.43002303526620755,0.43368844444017585,0.43337259342576306,0.40498086732177896,0.3252469620552212,0.2417121161366178,0.15817378708543117,0.07485493928073472,0.013671444389866672,0.0005153853657904328,0.0,0.009451555819087964,0.030541260170783513,0.06821361901861334,0.13038648003722653,0.18680851017843558,0.23228265609084175,0.3034090638167126,0.35235936697521986,0.4021517650127837,0.4326857770967467,0.44215895423931295,0.438861786473538,0.40347711189537616,0.35106257384280815,0.29556396431426446,0.24414230822868044,0.25940950988486655,0.3286587516163846,0.37748573974716537,0.4319076178660439,0.4546507272185547,0.4817195639647185,0.5016167013883233,0.5264733770137333,0.5264801692735337,0.4896630112021336,0.4872394911312883,0.513506061422929,0.5061005461870591,0.5059877215144759,0.5096714468469732,0.5420632335704099,0.5712343186763622,0.5990119787960038,0.6242657555705908,0.6453556039811517,0.6639079312075711,0.6337006810480386,0.579922847831976,0.5465832998924229,0.5187932068455536,0.5102941999669364,0.5177602754744037,0.5099662646784591,0.5288360266000542,0.5300799459064538,0.5305300430883442,0.5505966500658017,0.6038614754152429,0.6723622582898994,0.7364603989539922,0.8101490921558097,0.8778315655845836,0.9279283944195122,0.8835298159530569,0.8087570853905759,0.7253383887119154,0.6543131798551309,0.612687275522652,0.5902864445226124,0.5416279982042247,0.4870788945245339,0.4454164239127869,0.446231954841831,0.46608878192865877,0.46541645411790444,0.4578317948027113,0.4628609790448759,0.48163504769058196,0.49977115582951015,0.5060506702984724,0.5164501111791973,0.5370657609417191,0.5639262748663056,0.5915312612624626,0.6126436149495844,0.6352092897655743,0.6201247676151849,0.6019565126381496,0.5829543119554605,0.5837594442107337,0.6022898544443045,0.6221046759814555,0.646961351606866,0.647629048587727,0.6309986987010507,0.6480754377099855,0.6278300140390822,0.5959037262467559,0.5680620899051445,0.5551669749195294,0.573194320815047,0.5646280220364464,0.5601390120043783,0.5757872410413527,0.5573473172800449,0.5696292647990084,0.5915274410996982,0.6462396646893529,0.7094280492277618,0.7910559100089904,0.864229446967784,0.9342130422484902,0.9999999999999996,0.9667304512962542,0.8990815448238743,0.8354543785557591,0.7701500367529239,0.7494364386942913,0.761876142967981,0.7387100779563514,0.7392988644243776,0.7765718529616916,0.7934201810274941,0.7789519055782042,0.8016404363356799,0.8183761981289179,0.8012133029511515,0.7782865167926327,0.743451898083237,0.6963646031190547,0.653780700126458,0.6120086597236178,0.5702574392289588,0.534999783351688,0.5300872739392584,0.5300787119355763,0.5268132569515558,0.5073957987770061,0.4816732443260774,0.4406174150602289,0.4555253105637638,0.48074218629136567,0.4828578411748534,0.5080936289325071,0.5305033807053521,0.5555423371202814,0.571189978263869,0.5547569081341988,0.5461082683912863,0.5000783942247744,0.4694871396153979,0.4483623859474024,0.4154151082516613,0.4098478607158462,0.42396249371801886,0.43365842566311175,0.4342397563771443,0.4549480093587732,0.5012654226744826,0.5596408052000088,0.6225334702793264,0.6977950636264985,0.7620399199902175,0.8354395608915755,0.8925438827631491,0.8723583777742214,0.7976095061635085,0.7347997844804763,0.673027916552257,0.6273077089943486,0.5953059410810138,0.5405835526987435,0.4996692326896599,0.4828743864773397,0.49867455440334174,0.4958037686225034,0.4911881528958868,0.5057895286283172,0.5146847859891865,0.5301479330474201,0.5396432689837778,0.5389063558987073,0.5322940354864114,0.5479958637660869,0.5622503322767556,0.5954962868394054,0.5974602584941886,0.5829347799050018,0.5904876929781908,0.5875753228080276,0.5808940362640969,0.5553446266988615,0.5545737293276982,0.5707703617751587,0.6021341265739686,0.6137074249171421,0.6209802360637675,0.6419629886455827,0.6683351728984674,0.6614834767534767,0.6268110137969041,0.5852798026917494,0.5573323558240388,0.536771742420596,0.5300939880434514,0.5300800019962226,0.5300487632704272,0.5203570370719306,0.5101770824727963,0.5545978705601682,0.6227612006754275,0.6817461743121527,0.7447988660464389,0.8102005120404088,0.8865917342986589,0.914055460441467,0.8565475512702636,0.7823463050768518,0.716381617618159,0.6544248445199736,0.6099022220301489,0.5864621864483808,0.5353471149340336,0.4817071164532103,0.4587841476362984,0.472849978917961,HB
0.24604619906715408,0.19838511599117892,0.15076495202855966,0.10385756675371649,0.07147651238135655,0.042615677447838785,0.02110541544105038,0.009700512397923244,0.003911521706434495,0.0649246340135563,0.1493995738454963,0.2360423208691791,0.31182113589925997,0.3926521105251668,0.4796235974554661,0.5664540097527291,0.643658162226429,0.7229237426713127,0.8097372529797613,0.8864839317037911,0.9111929328989072,0.8521870749403693,0.7811872533789002,0.723277414219397,0.666133380566126,0.598275735704688,0.5150071007851791,0.4286331295275714,0.353987249077675,0.2718187031418444,0.1902685650975502,0.11668303922078715,0.07142990967395413,0.08957919388332902,0.1330622321240016,0.18713980858434054,0.23385675171841624,0.24921602757777261,0.25637092486932467,0.23162329203890453,0.2076076565962226,0.17946802189335997,0.20178637703864766,0.22971219520989639,0.27263159701328155,0.3250981553525296,0.3632485065452027,0.3621100951768583,0.3337236653362927,0.294474442064395,0.24959848558988718,0.1991508662516681,0.15502549434011037,0.10875897478022889,0.07403658732630714,0.055412128332931854,0.03345880900265241,0.0073399246758723,0.03713739898442814,0.11459920774097698,0.20148519595544245,0.2835120588879163,0.358300865151322,0.44471920408983756,0.5317355260425201,0.6185954454534,0.6960507298883503,0.775050350907518,0.8607636814243813,0.9245528855219853,0.918641049681149,0.8443648668259587,0.7575598090646332,0.6784933457614808,0.6011008443168411,0.5142587298282764,0.431035280450748,0.35712283525222777,0.27118712088417585,0.19307238285113337,0.1244369325008523,0.1150579379977743,0.1374503263248057,0.1927554947440817,0.2453921597462272,0.2878605735036581,0.30805325008643836,0.3022812104849315,0.26917371440497107,0.24325800193380953,0.22184123483754803,0.2358718492222227,0.27403650739044494,0.3135918377899949,0.3551707982090617,0.40885982320549896,0.4345385439406608,0.40183780102944544,0.3683810451790306,0.320956557335045,0.2700844467528727,0.22602417518739992,0.18294611491435564,0.14615251214777247,0.11514783735339096,0.10703878850244486,0.08705275763083797,0.06966644681903134,0.10328014981207945,0.184467466028706,0.2714525393573668,0.3561123755248845,0.4293713484258319,0.514669482663257,0.6016843759044113,0.6881976343007667,0.762931618867714,0.8449197025144439,0.9288723132360239,0.9807179723291699,0.964291748893086,0.8980919739835356,0.8126879834105085,0.7367007393755256,0.6561288228246629,0.569159581599731,0.4837891589259673,0.41049569768884187,0.32597404755350645,0.244291755032795,0.16978237799509932,0.11993764456443357,0.13939122639149026,0.1662291672049072,0.22506030784539321,0.28601322576700516,0.33835467043893486,0.34831634784352206,0.3271832853437546,0.29516863869840915,0.26122448178844593,0.24745309074836364,0.2626143999137498,0.3047818501954356,0.3529502579571324,0.40302523702184123,0.4352177458064719,0.4325416845935237,0.392905302819337,0.34667869350101466,0.29714778749473636,0.24897030388130936,0.19398439658180866,0.15202884670162575,0.1345608423408593,0.10768692645264188,0.07167677121622562,0.047910041752932564,0.03962612521139608,0.1113747187720815,0.18707633775814436,0.2679328270723689,0.35490456830067973,0.44128203856117043,0.5156095511189305,0.5981354157413379,0.6851334581117223,0.7720479597342869,0.8508799212393758,0.9284334573996169,1.0,0.9848114077400498,0.9075595642255623,0.8331663383244434,0.7468106393614065,0.6664518129372037,0.5902481767298022,0.5035469759931459,0.41775314962082266,0.3442576852718289,0.26040316638227745,0.18099460533992673,0.11855755880292174,0.11807467471930311,0.14940165891875923,0.2083135436460979,0.27199899484899603,0.3005441016879571,0.3160846745854413,0.3063413476900747,0.28058618067486485,0.24127749177523983,0.21957928448538278,0.2413525224818458,0.2720413545559288,0.32463563482682467,0.37796385827912005,0.42619634211723767,0.4408921517106257,0.4145070074373227,0.36083984777591915,0.3107735641845406,0.2577378436385436,0.20300138604646012,0.15647363180861884,0.11600539628148177,0.07894707769861853,0.05228222465248278,0.03061271491675388,0.0,0.007536401336404541,0.0881303451214217,0.17493085119801144,0.25198412976004647,0.3314099165312827,0.4183483633037244,0.5053643891012398,0.5913178701366517,0.6650391658934085,0.748586099218731,0.8353765488262215,0.9104836451906797,0.949415494903668,0.9151929578836224,0.8372770197737212,0.750325830518646,0.6633094021125432,0.5763227406450508,0.494522207863072,0.41961599849450515,0.3330824349879329,0.2480218326612862,0.17508290749304933,0.10237946920142615,0.07508305264347426,0.0970885098237888,0.15014475029548136,0.20362867250179262,0.2532224969710235,0.2802170834076412,0.27878624745045766,0.26145193335931305,0.22896876940081778,0.2197349587766948,0.2367278254408811,0.2621675539836139,0.3096666031281994,0.3627652606356411,0.4129524561704443,0.417906044582387,0.38683858330796594,0.34266791635735316,0.2835969794732631,0.23036665525341782,0.18293733595429762,HB
0.05145744972254285,0.0721439956214025,0.11643759701305356,0.13463721173569088,0.12633701904963046,0.08925535649775318,0.04990710694595957,0.014722880610776867,0.0018910735306574278,0.028332965167074953,0.06779111383292835,0.08234669360623381,0.05914945039095909,0.02062090964401153,0.0013129885963218957,0.01501499071181156,0.049465933380674176,0.0640399378269958,0.07416491692677374,0.051199654649616955,0.00933187610771924,0.0,0.0069551142517865205,0.029638335861841725,0.06402895687790777,0.09216236984468074,0.11389875276053929,0.11197763772001856,0.12443776675748874,0.11416907519465203,0.1289866786269538,0.12931354544451312,0.10181719690363766,0.07762853240898404,0.06363406333124288,0.05536151070040596,0.05241470001393744,0.07177510260990583,0.11422389358108731,0.15997294566762998,0.20792716953983015,0.24794387481141933,0.29400185093837505,0.34327618266675874,0.3953316005908407,0.4420732795038096,0.49196257954611733,0.5443397410509232,0.5966999933486037,0.64598139005558,0.6932324154247782,0.7454351293376009,0.7978281600418029,0.8493724501088444,0.8734727176881314,0.8359423714706304,0.7848149948567054,0.7388535046434537,0.6874223314322023,0.6350316936091094,0.583548819136428,0.5375554277081751,0.4863258155759429,0.43394739336305976,0.3838793034551484,0.337282449736531,0.28571036957337603,0.2393892484385114,0.1892018516532077,0.14570667246468694,0.12130635502543896,0.11306285650596326,0.12471571665813963,0.1338618534486038,0.1426235763465198,0.13617233353528002,0.12117371357617146,0.09313579712685915,0.07427484691210773,0.07172878857173082,0.09544624186795869,0.11504417304997894,0.11404500003459095,0.11431045321172606,0.12231872286389667,0.13422109629414103,0.1362446704550322,0.14006636504769476,0.11297280559113787,0.08811708473461222,0.068738336139478,0.0634446947338545,0.05328143584379719,0.052958092938839796,0.08657214324514073,0.13108697396403013,0.17775966203352667,0.22358292952078784,0.27369733432648347,0.31967245747222517,0.3710671573771205,0.4220030443579208,0.4680427150135704,0.5197726303778514,0.572165305606493,0.6245584833118667,0.6769516610172395,0.7293448387226122,0.7817380164279861,0.8341311941333587,0.886348909634527,0.9242228819174187,0.9006517035113386,0.8491574772145112,0.7967817670789077,0.7469413882911711,0.7001599350435104,0.6480622295640055,0.5957075338135673,0.5466925013437611,0.49920799870844523,0.44696714032819695,0.3950877403156514,0.34883385388143684,0.2983749652259122,0.250690037844272,0.20452220310372926,0.16184692086901498,0.12582022919362146,0.12366726215600643,0.12790185521888442,0.1340480395243313,0.12989614761074297,0.1443944828300372,0.13965279769390015,0.1365776771477374,0.1154844329842748,0.08552464517909142,0.07125689142010994,0.07495560294003867,0.09729804460132341,0.12433111291496268,0.12825206235116782,0.12461193601597653,0.13902575485917157,0.13064512795656014,0.14328510815710827,0.15048262125659506,0.1268455361123273,0.09579380419152561,0.08524606222980902,0.07660833512843346,0.07164008260131194,0.08404094241274529,0.12162565424172,0.16709870050383668,0.2133567750864116,0.26244286192056254,0.3083887909164955,0.35956939947787014,0.411193065617651,0.44990192845188526,0.49160014558773857,0.5437080983022196,0.5961009090309133,0.6479145650552653,0.6941038011066747,0.744809436258612,0.7971966634033543,0.8495895956016228,0.9014473032293411,0.9476804502090668,0.9961812317696876,1.0000000000000002,0.9541682564792591,0.906775588974009,0.8545432570212295,0.802158261847256,0.7516642430543681,0.7053671719099992,0.653447726484935,0.6010602323951701,0.5503158009107414,0.5041463346263761,0.4523520613075056,0.4000766348788396,0.3523726691972544,0.3036654816516673,0.2552570640049352,0.20916751840646075,0.16763595824704614,0.13878446228484864,0.12916242137929546,0.1408404212584744,0.14895040247895963,0.1508372613957334,0.15439361484105696,0.14457329338571778,0.12369372511783872,0.09658769656890476,0.0737071560835929,0.07814842745149364,0.10248632622850762,0.12024707047152039,0.12003075244554062,0.11856115740523965,0.125897402196397,0.12393458171539162,0.13092209429199952,0.13844613578040765,0.11294966565473152,0.08275594899016836,0.061149593185886975,0.05443257761835296,0.049351768056269396,0.054803203832103575,0.09177930664913414,0.135763876830858,0.18079478669846627,0.22922705877352345,0.27538627278873573,0.3272201666464327,0.3789066250080424,0.424966458947899,0.47592603373069653,0.5282861871686266,0.5776512848096884,0.6248281388057426,0.6770181498216654,0.7294100691592085,0.7808754417290888,0.8268315401876947,0.878115623569174,0.9304045700131958,0.9699152826949045,0.9493477495244094,0.8984245597852467,0.8462146852790486,0.7989142123277555,0.7496886162435026,0.6973304795031294,0.6449373017977555,0.5925441240923814,0.5401509463870082,0.4877581357391063,0.4359459249303901,0.3898163049991983,0.3390672088398221,0.2892233354960847,0.24247674241335404,0.193580518855879,0.1535568043303428,0.12858035986311966,0.12327321348412257,0.12655219193186373,HB
0.2540675783654487,0.21515989253160872,0.17916740438974932,0.14922035033697578,0.14755232787664774,0.1633210036765882,0.1920931731922486,0.21567523615378215,0.2199408676401018,0.21015087385925324,0.19368108802959672,0.18054752611140845,0.16111641773574537,0.14944804770385023,0.1516555335964318,0.16303806612513627,0.17817199798032646,0.1858287863138226,0.19739335701497307,0.20572597346567578,0.19596627806539302,0.17658223298614018,0.1536977513692943,0.12499939908701307,0.09934222969302753,0.07473888925676198,0.04418422758233276,0.013583805932101845,0.0,0.014711669338697053,0.020225220395387655,0.03453054974486558,0.04299360244844941,0.042556339750474015,0.04639529307839263,0.038659185321833434,0.032613499790626665,0.033485732629944476,0.05364491946327066,0.09494861144346967,0.1349135284614711,0.17249535085675638,0.21517526492707661,0.2533712845537677,0.29266639338878964,0.33556239208255634,0.37753322242818643,0.4138808106131371,0.4558622421766998,0.49770043013413834,0.5340876472305902,0.5756583307004635,0.6122902332194171,0.652979795318472,0.6895463379467843,0.7295322700392077,0.7659289978683754,0.803962775395294,0.8396323412240156,0.8589289206638222,0.8364830295013115,0.795679207145644,0.7593690463113629,0.7172866142059187,0.676623958054084,0.6396364336147833,0.5970348061846296,0.558083138882262,0.5195413958039703,0.47691385773873707,0.4395759953773024,0.3993009061488131,0.35646769189218697,0.31794738510880305,0.2789620626219571,0.2364006837210455,0.19937701375275796,0.16057051242163145,0.12862596236507895,0.12118589333538798,0.13501834661535428,0.15824221122453808,0.18465444004400822,0.20223279463993848,0.21507480164445103,0.20037216406112135,0.1789408776277739,0.16614843969133175,0.15367679395423361,0.14219640155894586,0.15363817327084228,0.16955132145302,0.18581022775854827,0.20069666562028798,0.21884113528259075,0.23633318641762946,0.2506518576310224,0.26616479449703334,0.2716181455929043,0.25261808347749226,0.22113034375387075,0.1914848788312391,0.16071725373062917,0.13150421574109217,0.10588782136467567,0.10812633868089461,0.12894596672869407,0.14746461988334403,0.16605990496934275,0.1746539157206275,0.17959995651878624,0.17370339774557753,0.1648902203466378,0.1523789778546063,0.15989581174992407,0.19372500650647773,0.23247327275305962,0.2709033559657701,0.31316532004974773,0.3497027421139218,0.391113239589276,0.4339747627584054,0.4726089564416103,0.511470756969189,0.5543434025670648,0.5965362245106951,0.632867458557435,0.6741013645309246,0.7058251556216919,0.7386419642881212,0.7779341429775228,0.8174372060160904,0.8552808862716019,0.8930392610084534,0.9315890055138465,0.9677664361036267,1.0,0.9947248564405671,0.9638857615714902,0.9250045427529425,0.8839066746145692,0.8472552996690541,0.8095341862122845,0.7814476421895531,0.744270048349571,0.7014730942879595,0.6606385581534711,0.6237773290932371,0.5812070233274389,0.5420387582158561,0.5037187936919698,0.46092254863149384,0.42197382572953024,0.38519223914230794,0.35500511465065543,0.3161021772224508,0.2796904950411072,0.2420115633410973,0.21455065222114622,0.21169903567356263,0.23319469710482976,0.2588014201506421,0.2747257388255502,0.27447511228684296,0.2590407370589769,0.23657467274380073,0.22094340143780178,0.19997567225618518,0.1952522575226172,0.19462243091827314,0.20063651156120077,0.2109872765676244,0.226660390298556,0.2388452712936333,0.2422353630075711,0.23586535120982677,0.21766682590408526,0.1926461989760182,0.1625642238983982,0.13294440506862926,0.09997177441543448,0.06563364878139044,0.0326882239366737,0.016996178667561423,0.03097289399663339,0.04941300354261191,0.06817073628833614,0.082115289913679,0.09931045672249983,0.10101909359827377,0.0941951481672123,0.0902106823949349,0.09511383582939126,0.11035889475620486,0.14355734124505326,0.18293755313224813,0.222350100691328,0.26042107360076905,0.30323658422969135,0.34568517114777153,0.38234034121051286,0.4235413981982794,0.46646899200417447,0.5080772303984962,0.5434564817297747,0.5735838539948546,0.6124749040825415,0.6497061015492742,0.6900675330682304,0.7313985485561214,0.7679348519223355,0.8095888809203631,0.8458016569526552,0.8828673120475798,0.9187703168812926,0.9444067217879986,0.932843581580661,0.8938736032417274,0.8551014636335461,0.8164130399103584,0.7763253607369296,0.7388885239843688,0.6961658897491714,0.6549124726395075,0.6182867395764082,0.5758675248011487,0.5347713983118934,0.4980584686802132,0.4565081585616628,0.42016535370716523,0.38096883181061436,0.3517421296307992,0.31700221288812136,0.27506385927842025,0.2374616977603201,0.20219186201736883,0.1876511024957601,0.20084727204157948,0.22319344540327535,0.24596520939513833,0.2652649733371506,0.2697307078119182,0.256269469364683,0.23418235953870448,0.21353320638658113,0.20062631034553258,0.1919628995928213,0.19413894930528186,0.20540395216936447,0.21799962201704814,0.23238119863353224,0.2446645565339598,0.24560103381181508,0.23977907520182362,0.2208721377368814,HB
0.6325246256869566,0.700902710503915,0.7749371584258498,0.8476941893540593,0.8967707276599546,0.8794459037507218,0.8080547087441841,0.7346633060660075,0.6509286000440544,0.5810179990979218,0.5016599291224004,0.41732502312155395,0.34467450241105,0.2687842500958122,0.19710176310468874,0.12003236216489332,0.04656827413014364,0.015878840907976866,0.0,0.0012628912337784293,0.03584609059017074,0.0820481450251429,0.14218760382929618,0.19905861583565576,0.2401663162604759,0.2281231799899177,0.19494175374043454,0.1742647600689704,0.12991997318299253,0.08493873753665415,0.068818364273866,0.04267525101885372,0.03761282443954661,0.021528879520745114,0.02233236965264096,0.03869905491599379,0.043373274305808174,0.05982480285564806,0.06127051201262512,0.05616131155190107,0.05425657975034737,0.10500305776031649,0.14818891587872995,0.21224427583685923,0.2803558310089316,0.3601742935097576,0.42575169683909264,0.49188937858784687,0.5628695084176565,0.639038326080049,0.7155305455175967,0.7877610476516566,0.8630073756779755,0.924107852976296,0.9405582174384985,0.8913820207937588,0.8242544601340409,0.7409546860261065,0.6650534909321149,0.5921863024729905,0.5077540991257612,0.4254280700250299,0.35710150980184885,0.2746117587972856,0.19006070805331188,0.11733121702857474,0.09381857065766441,0.06518801335592173,0.07297450733265975,0.09006552458752726,0.13647597159391633,0.19747342044660376,0.23880287675496303,0.24701907247505916,0.23586589252314472,0.21863501027455445,0.18229095766670378,0.15681863653995887,0.1317078523562718,0.13968375743601547,0.1434676395157144,0.12929039015975796,0.11357258274111626,0.11630651582915386,0.1276835564198313,0.13052831051689973,0.10914530129312894,0.1207748845257326,0.11044837025516019,0.11776100924215971,0.16692551648684395,0.2228897378276864,0.2896556500527385,0.3596369656324274,0.421907907073813,0.4786513747583925,0.5451951860396949,0.6187905704347054,0.6931401612938015,0.7775980096008146,0.8591994437733099,0.903478878521673,0.8820049185680485,0.8160364801632758,0.7345439243788818,0.6661843179484364,0.583604833999054,0.5021710332903964,0.43361356056769296,0.3517408101081658,0.283251644384912,0.20230245265048152,0.13154592665973874,0.06235871910559121,0.057989045236316095,0.06136534508404079,0.07098927605048999,0.10395137534756405,0.16857716161476688,0.22541708423986817,0.2686011345210928,0.287753471317564,0.26868829693497265,0.22475345632553,0.19180318617600056,0.17188747080484879,0.1311357465201919,0.1365099095923723,0.12082228894097602,0.10297131711227925,0.09486670165742028,0.08189757772380934,0.0749198497032908,0.07711100659916736,0.06012223176246989,0.04335216986952117,0.05412652755171665,0.06310978911371068,0.09439985928375982,0.15473175337255096,0.2198904357861382,0.28254637484820133,0.35300508296806,0.41263951789117836,0.4805391353323114,0.5440351506462191,0.6078563946772788,0.6845772016186058,0.7554907887494413,0.8335333933796418,0.9126095215121772,0.9759202269758092,1.0,0.9461523497862787,0.8762237172449714,0.798243026322627,0.7157805546933842,0.6474953022292826,0.5651239526749632,0.48147595333474724,0.41216018411936206,0.3320277835041563,0.25518681603373805,0.18354468562616333,0.11863980019869746,0.09472434376435368,0.10791634539366024,0.14052003077604214,0.16222119046830263,0.20476714739359858,0.2588265084527315,0.3100119508460111,0.34766809648804875,0.34921016040919994,0.32034609302064254,0.2709262660351688,0.2197447110670523,0.18102901516272096,0.1627989663271907,0.13527775125284247,0.12338186834410614,0.11995238910340777,0.09188431998214153,0.07431819105024662,0.06156254307603204,0.06122034881898264,0.052196402344593995,0.031578418054293955,0.03318979567512814,0.05106493389125166,0.09932408183024366,0.16202422238771952,0.23529632109554344,0.3093764796337988,0.38138364870458874,0.44038012176234664,0.4928526489292979,0.5683238902471484,0.6398410465693027,0.723744075546739,0.7951091792510034,0.8707778917016071,0.9216017046069416,0.9123614258052166,0.8472494363483696,0.7630136256032336,0.6784126157034462,0.593812420136004,0.5110408270385296,0.44282992854077197,0.36067411558847695,0.27866793595004236,0.2102977244902351,0.13447410951238847,0.07086428028923164,0.025069861976718233,0.019987536582434462,0.02684942957498926,0.06065932718777711,0.11081368294132066,0.17291446152874945,0.223602731699712,0.25791919078664316,0.28452048106716754,0.26602647406357516,0.22728116114337737,0.17597885767481847,0.15087978261650115,0.1260386003742866,0.11908228847327695,0.1375178112544413,0.12151417696165634,0.09403365848204315,0.08206016730026766,0.08206631975578516,0.09183562800241551,0.08097880308354943,0.047768377639772375,0.07579385376884762,0.0686387350568034,0.052475842757759406,0.08586176221719555,0.13829453396080904,0.20172803649958526,0.2695979423745438,0.3292015917996092,0.39678086914135147,0.46606368714153756,0.5348298267733989,0.6118825523078883,0.680065712300689,0.7632046494010658,0.8396969516365749,0.9103793074219473,0.9623264444276947,HB
0.07462688989599231,0.08525173499231276,0.12081478619342301,0.16264440668487268,0.2251094023832647,0.29818621391150657,0.37731162631600457,0.45645631879087745,0.5311026639559819,0.5957727595108406,0.6663585445456541,0.716684419300655,0.7839288625663587,0.8519689271366198,0.9107907222998741,0.9107907222998701,0.8517853820116437,0.7730837268645017,0.6941128518797699,0.6256466422824558,0.5631111910252136,0.5127851397141634,0.4367033551095827,0.3636263670252906,0.2977148751027552,0.21918633122155917,0.15072339217418307,0.09182107625994096,0.09182083186794099,0.09485473203302375,0.11909814999757362,0.17120853318453344,0.22505868816775587,0.26071251129367967,0.29834405650927476,0.3029282150607404,0.2610778986717568,0.22832473326080027,0.20050514062135116,0.18893345610060575,0.1937013568182384,0.21148066143100408,0.23201031631215807,0.2345305270668332,0.24743463326259407,0.2346109178982574,0.24188299965894222,0.26309514847350135,0.2944025502005161,0.32983604310680104,0.3661150386230143,0.39304787746298464,0.4099492473650388,0.39929057422599357,0.3725232948883739,0.3310556311475663,0.2900850155617798,0.24413783585743687,0.20870278105757123,0.18761729115180525,0.17374848673612808,0.16429693312125382,0.1653045097094794,0.16958408818271753,0.20011401608788226,0.23772335531850475,0.29897666857862015,0.3773118028718745,0.4564660464255268,0.535620466535228,0.6147748866449296,0.6938490924792444,0.7641371635448659,0.8326330870715757,0.9111609247285775,0.9748578850863665,0.9999999999999996,0.9567513620538795,0.8913761199192276,0.8152653276094433,0.7516161338358405,0.6741430894968881,0.5975906723077631,0.5339414785341599,0.45646843419520833,0.37991601700608335,0.3162668232324801,0.23881969260484093,0.16577259500599606,0.10938193733912094,0.08076606077357784,0.03876542123699256,0.006630100273705697,0.033327540598801164,0.06781630863160881,0.13535002003368346,0.19497959107414786,0.22984813298238604,0.21937609896219978,0.18811708772183122,0.1576583984716038,0.1249935885186515,0.0978634128354865,0.12214504630544676,0.15091908733154646,0.15865725263886388,0.18554257640304694,0.1796566008524878,0.19050911901509604,0.18695999407307884,0.19713963886831154,0.22171965113206848,0.2570621128211039,0.29844018640702297,0.3257299938329692,0.36595095012428525,0.3885298983273282,0.390315179757196,0.3689441255663568,0.32966151939225874,0.2837409596234224,0.2515954010337276,0.21740247727717898,0.1803254110603003,0.14917270092051194,0.12348377239290187,0.1079172090887921,0.08562357945493204,0.09640912108759192,0.12445269655808211,0.17575606698361845,0.23960775950227342,0.3179459877894182,0.3966579002395356,0.4625693921620688,0.5356494742402496,0.614774886644748,0.6934869756509139,0.7593887399386188,0.8274246738403663,0.860449742352277,0.8273956661351547,0.7532884881957744,0.6767450924172835,0.6130958986436799,0.5356197603108375,0.4564691404192218,0.3799160170059026,0.31626682323229893,0.23879377889334652,0.16224136170422154,0.09862444618575994,0.031298112330975236,0.028956767963047803,0.03669966013659298,0.06286846690904513,0.10554018352693895,0.1605106374648182,0.21097428560082188,0.2546091544426652,0.2634823695957764,0.22805332061076156,0.1948176803988133,0.1590907158984325,0.1388823520202358,0.1480588301421415,0.1718751498947877,0.19412111566863777,0.21497634592714876,0.22943113310863517,0.2147450160329294,0.21307663844694114,0.21766492766691758,0.24266107511940582,0.2670402228328115,0.2560882385611829,0.2833736216025651,0.3216319501041216,0.34879523341468355,0.34894977083444356,0.32652810093295015,0.29022982534635444,0.24871890041465372,0.20156400325414436,0.16095709455160723,0.11345216871026187,0.07259682282253488,0.03912225228020816,0.018891492705292112,0.0,0.006026828241509019,0.03263288226412886,0.05370170645518524,0.10306236229668508,0.17942867003509688,0.25849978187552214,0.3285945801813437,0.3819239321804675,0.43757384749567674,0.5158320380634844,0.5949855753929421,0.6724617137257836,0.7361102012751894,0.8109746090526251,0.8677145571980249,0.8711875985331563,0.8122112659501304,0.7363041802591686,0.6878215580131526,0.6336663793498318,0.5554088950062197,0.4762836591577697,0.4032035770795894,0.33729208515705267,0.2586090038560904,0.18552892177790925,0.11965041433470969,0.05240429475531183,0.06101636764186846,0.06803579737262622,0.07594174481226501,0.11170199895832189,0.16424434420623868,0.21986654835603048,0.2652966587306742,0.2697692604572821,0.2474026885283518,0.21718166841111897,0.1908855922153161,0.15867997845810589,0.15823764735456658,0.17727081956515933,0.20141752213601416,0.21722646799601142,0.2257143786640734,0.23211865551194233,0.23267179415833228,0.22369175590824408,0.23077367052799014,0.24822639677203107,0.27607633235457385,0.3193010464488517,0.3623398135887803,0.39910720565653035,0.4099492473644828,0.39289024604876177,0.3587690345230894,0.3093664749916538,0.25677318566112683,0.21179118364727412,0.17593907132616993,0.13266214758073325,0.10094526066570308,0.06527958483919782,0.04443857426341369,HB
0.6321061241937267,0.5932617244653278,0.5679103193331976,0.595805067581181,0.6252084562409239,0.6785356540046923,0.7146403891957549,0.6382717301238294,0.5647138421917672,0.49550852615420116,0.41969491507918555,0.34544473465687986,0.2522811698373646,0.1780612761392275,0.0922896844272989,0.029161527926659492,0.0007427043243328768,0.016861393362317845,0.10950082676296402,0.19391377296461165,0.272766742706386,0.3484804002180839,0.3762766578734169,0.42494702122493244,0.4994485789981171,0.5775266689388658,0.6564608352672021,0.7579512929232166,0.8461638850549065,0.9431524635302662,0.9798507392510221,0.9181263360297711,0.8119256855790375,0.7424927865119475,0.6636427387727384,0.5663790028524867,0.5049141504397809,0.42779753173508794,0.31827305904382186,0.2082603670158134,0.09856942799684232,0.016752225441230006,0.0,0.000257848008878625,0.021033295619605763,0.0554003637901439,0.12319813826453263,0.20350526870657237,0.26429275644624894,0.3544180802768464,0.4208240269160708,0.4722461681042365,0.48192239568885586,0.5167267209162327,0.5808315783224183,0.6074796498335626,0.6594760725418247,0.705718237442075,0.7143240880192199,0.6942712087480727,0.6534420313290594,0.6045097615927064,0.5631135287173779,0.5428844812359594,0.5324029421204832,0.4989631151749503,0.4791851119551076,0.507340101904953,0.5897561943146306,0.5929987515305264,0.5429427411103447,0.5730481453145684,0.6487485020348389,0.7376165771694145,0.8356204853412041,0.9407435389239103,0.9529861301103759,0.8900580035090249,0.8136853064487211,0.7179158511723625,0.6422777841422729,0.5600913907180844,0.4803470007549473,0.430389439660841,0.4301215060743786,0.430092335201512,0.42203847268670636,0.43823978132031094,0.4819986825549467,0.5314377921352671,0.5976210472622174,0.6509234306295486,0.6933003049650264,0.7545719150835195,0.8242385772082681,0.8848303422560333,0.846714632050003,0.7863423464996151,0.7220943186950688,0.6716541013103221,0.6220649010196624,0.5804979695423498,0.5211808688938895,0.4865702939635792,0.5022645081282597,0.5337740826645696,0.5952737829943162,0.5957240922424321,0.6291472938695497,0.7087836247549006,0.7952087306453421,0.8816903131442366,0.9581113062623832,0.9055181345329109,0.826089857920417,0.7857113209630802,0.7215387868271277,0.631513498350941,0.542377084352629,0.4823609839556191,0.44324094922670376,0.3989111443176929,0.3774858533675953,0.3708731849736715,0.42610759979865964,0.5128619575537341,0.5613681653949936,0.5883105494148904,0.6346529094020985,0.6902023475284702,0.7489291855311055,0.7585119965780507,0.7274767680410701,0.6838064792707126,0.6246339739830251,0.5898720664648796,0.5424122127770064,0.5136394494896441,0.5484157015296116,0.5954202353752507,0.6740684222752495,0.7126376826629368,0.6603915057490859,0.6660180374086062,0.743889437472526,0.826744983312584,0.9164699992689913,1.0,0.9870284545144115,0.9019293678147351,0.848397891984817,0.7868941310807624,0.7077713073490752,0.6225515032397011,0.5365997370522972,0.4654638789643766,0.4276817862103046,0.3962316830486152,0.44142140940519514,0.49391286841951665,0.5307144950229423,0.5679659609332282,0.615539619690046,0.6230650385776171,0.6249060263849833,0.6778715454918824,0.7493488743075414,0.7689081323022231,0.7210772892127997,0.6947364277025354,0.6397997752494629,0.6263366301364544,0.5971681735095711,0.6132777460825842,0.6516326320148851,0.6943483991968602,0.6365711998696604,0.6053509826123378,0.6560142611124542,0.7319276791621876,0.8326370733186081,0.9192299595104876,0.964556925865014,0.907818752024534,0.8584885789777115,0.7821270263903468,0.7208871750623018,0.637808088865774,0.5949547208337069,0.6129503038136752,0.5922995093122809,0.573178671855171,0.6123392893902277,0.6380474055028591,0.6243773065313194,0.6577036952589399,0.7219748055130397,0.7567989636282011,0.8207767930681342,0.8404003231349382,0.7916804131219504,0.7478872538286465,0.7318868112362402,0.7293247357135728,0.6790050217709256,0.6504123874956971,0.6873882656307684,0.6511864488062322,0.5991970304427046,0.6309446068324496,0.7188061652486093,0.8107860446540327,0.9114688203169674,0.963305852602593,0.9318132708620492,0.8678325967130567,0.8292680774311405,0.7539917416591777,0.6779803692325954,0.6138521874201217,0.5918382063764946,0.6067542828931831,0.596533964079403,0.5665464506147444,0.5771678654470476,0.5941636680460967,0.639111203489799,0.6921670565754852,0.7243589301330289,0.7717951844140432,0.8026582441717922,0.7348224438477686,0.6907239250818051,0.6619970439892144,0.6155522766661603,0.5672237065714638,0.5393680031285344,0.5970382603536715,0.6012187862498344,0.5135782659120949,0.4260509789456206,0.3692088177474364,0.3935548018377366,0.4737987643558679,0.5666568013824058,0.6608129450218048,0.7305180706125061,0.6927404201293212,0.6279457358258504,0.638905943211971,0.5731795161493345,0.48721589466585513,0.4253926126590857,0.421826580408621,0.4218242357207327,HB
0.0500929190484678,0.06722267585432729,0.09471464373767535,0.11468343459989061,0.10114772253942172,0.0702941912333781,0.03446810289191138,0.011532834898375643,0.0,0.02625631922439231,0.07683841786817203,0.13143340157804184,0.1915060373935038,0.2508401322227205,0.3084778890418849,0.3709184163500421,0.43394239771199405,0.5078297726030887,0.5827695547017839,0.6461111032051541,0.7209902577623049,0.7922523586038865,0.8578280310581468,0.9332606854516281,0.9908153910202842,1.0000000000000004,0.9484266753233026,0.8759505516732973,0.8120269098430111,0.7361493905957301,0.6642643270316149,0.6142036227263357,0.5566863082989495,0.48358010979653976,0.41981740826846314,0.34438442990430485,0.27874662088207414,0.20884848812467238,0.15965701619024264,0.15252347069171535,0.14505201437743942,0.1345471816564956,0.12713134697206296,0.14012960124739404,0.16611635305903416,0.18813748761839877,0.20333971229140468,0.202961838797036,0.18846757086814936,0.16636654069317514,0.13859336443870385,0.10778211129703585,0.07529720476680168,0.08336519738367265,0.13238194944507597,0.18982248602462315,0.24985891815417505,0.31762790756785675,0.3843463188602909,0.45944822779824124,0.5228987806427674,0.5972788463690177,0.6692142268478927,0.7341780137866611,0.8057413221197209,0.870153990098923,0.9180363232165054,0.8946326676165555,0.8260985495053923,0.762523433128762,0.6886491168521598,0.619148687382205,0.5519693151549818,0.4755100716259735,0.40765354794567044,0.338905801392952,0.2675103350037382,0.2026428071779196,0.13844142181299812,0.09183124687354605,0.09457544623280967,0.07402932788806371,0.06700567646292033,0.07219175323598481,0.08731805697457373,0.106426860160028,0.13994580376835453,0.17662833624396868,0.2062359459967178,0.20427805608691507,0.17761831607536127,0.14114877201738274,0.10584173005949582,0.0798724802060109,0.06729817906317193,0.07730495027547502,0.11280240367310279,0.15925092095587745,0.21659745567916966,0.2784271678713246,0.3446281070662125,0.4140066498018231,0.4896763032313278,0.5533138594308133,0.6271222421779754,0.7038602496126631,0.7750680433608728,0.8315291716822566,0.8625248196878355,0.8312666626417395,0.7687248591326474,0.6947015578003661,0.631268216167602,0.5559860658113389,0.4805609468125982,0.41708029955851833,0.3427925470502924,0.26807516201307635,0.20469570120794778,0.13157553743549322,0.07014312980811388,0.04410990760608913,0.05048896454823204,0.06315736200507915,0.06898409414561923,0.08245028717158531,0.08375744017823372,0.07881563130212443,0.08811274830447235,0.10447054994296012,0.1362600367818252,0.16489774645128108,0.16702387720507694,0.14668958467664428,0.1265530487111235,0.10626290655351855,0.08365963668744625,0.05785483506583056,0.05873178707528304,0.09713756526557704,0.15145119444900068,0.21423079979203985,0.28661114793385023,0.3506478810550102,0.4198743979266957,0.47793637582061166,0.5300839481115589,0.5935855359534092,0.6652065966213669,0.7372296113496679,0.8020309375376624,0.8700181600134451,0.9166133305083939,0.8910850382066728,0.8279959148156157,0.7571302732295062,0.687660303910067,0.6204810459154086,0.5444100058922996,0.47964940666811984,0.4074659757965584,0.3332698820004252,0.2702651696702625,0.20660573051999442,0.13823535581664315,0.0828362257980948,0.06033296595698845,0.05383118599518344,0.07169876903608108,0.10272313137997102,0.13555499079195377,0.16163321233815386,0.1628383253446355,0.13642526153174384,0.11134552434772926,0.08225809609490753,0.05732717144292776,0.03968066683544791,0.05788919271194182,0.1022315272967842,0.15938955932096732,0.21705414293360326,0.27898377179369005,0.34510246115827803,0.41457219058932804,0.4854387803057332,0.5512970548173075,0.6277125113770965,0.7002949108238905,0.7577893623589262,0.7820753377439633,0.7470675133523166,0.6765196924450954,0.6130584179366791,0.5376582390821993,0.46486214944174176,0.4195061838196148,0.3674871453978952,0.3167957764155904,0.2550964773139137,0.18796895490293375,0.1213255041939485,0.06531936880072609,0.04008351365976459,0.03273289834076465,0.032684243938482016,0.03586548082711838,0.04601763448841378,0.044871086806639315,0.06629041078305198,0.08973046372233684,0.12830069469425487,0.16909147007525238,0.2077667932315439,0.2204127274113561,0.20583332821953348,0.18266386951336155,0.15009251706767657,0.1358366748436195,0.139650009710103,0.16761124227027757,0.21216540347787038,0.2627163241985069,0.3222719754526029,0.3858321230576287,0.4514107395325504,0.5215398127427244,0.5879507148252312,0.6573528240545592,0.7211660887635158,0.7858131815849907,0.8384919170118752,0.8367527500508047,0.7796866241436051,0.7042671780792227,0.6385974534415251,0.5675314692103957,0.5013618913548141,0.4498529021565223,0.387486375468717,0.31286024591202377,0.24934229581992406,0.18493010752734573,0.14274314438045943,0.15326631685349312,0.1678614027145846,0.16940703184258155,0.1589571267343599,0.15261639947911254,0.15262760474967374,0.15976669264052568,0.17202072453995143,0.18293375027624936,0.1617243230044867,0.1663515145071064,HB
