0,1,2,3,4,5,6,7,8,9,10,11,12,13,14,15,16,17,18,19,20,21,22,23,24,25,26,27,28,29,30,31,32,33,34,35,36,37,38,39,40,41,42,43,44,45,46,47,48,49,50,51,52,53,54,55,56,57,58,59,60,61,62,63,64,65,66,67,68,69,70,71,72,73,74,75,76,77,78,79,80,81,82,83,84,85,86,87,88,89,90,91,92,93,94,95,96,97,98,99,100,101,102,103,104,105,106,107,108,109,110,111,112,113,114,115,116,117,118,119,120,121,122,123,124,125,126,127,128,129,130,131,132,133,134,135,136,137,138,139,140,141,142,143,144,145,146,147,148,149,150,151,152,153,154,155,156,157,158,159,160,161,162,163,164,165,166,167,168,169,170,171,172,173,174,175,176,177,178,179,180,181,182,183,184,185,186,187,188,189,190,191,192,193,194,195,196,197,198,199,200,201,202,203,204,205,206,207,208,209,210,211,212,213,214,215,216,217,218,219,220,221,222,223,224,225,226,227,228,229,230,231,232,233,234,235,236,237,238,239,240,241,242,243,244,245,246,247,248,249,250,251,252,253,254,Target
0.723277391744388,0.6581841488598879,0.5812153639794753,0.5370607580634483,0.5708638955723186,0.6408683393350052,0.6667069095107259,0.6710841621424977,0.6588921916976753,0.6309793270521933,0.6121053629715885,0.6130635232540746,0.6328608391482224,0.6501535652206294,0.6617470695579808,0.6610584606112897,0.6102030099067761,0.5424202624999617,0.4903872167926786,0.5242209814397438,0.593462978030709,0.672281261650066,0.7355449333537019,0.7563948017153019,0.7658457110887871,0.7539517238791702,0.7317457221370733,0.746596942137367,0.8661886392147351,0.9451315323272409,0.8845739210609946,0.7544706643969628,0.630899978788054,0.4969611485798491,0.3751979044440339,0.4090160759942649,0.5307915479725036,0.6498491199345504,0.7598372995971343,0.7940054441025288,0.7494486267167084,0.7436678242885812,0.7078484568839354,0.6351242408811459,0.5505112364644731,0.5458161048020487,0.607593215681149,0.6659509641296952,0.6675445520757775,0.6442099197140227,0.6310201122774939,0.6343422048293648,0.6548032797246424,0.6708401766389005,0.6689686000995447,0.6489709425916783,0.6123933406260411,0.5479863089460175,0.492954184664375,0.5210172835320561,0.5867225039459498,0.6551217304265222,0.7130755881450805,0.7494944173524716,0.7781110709394459,0.7896484152252055,0.759510404389713,0.7569363530418793,0.8420255106721126,0.9580579562305953,1.0,0.9081803467021383,0.7760384119301129,0.6525604830551535,0.515626990470579,0.4067866601506327,0.46308869795227414,0.5911017974962176,0.7123092558170105,0.8180014502489921,0.828113340720547,0.7801585111441147,0.7651641813654928,0.7146057244121735,0.627746187943031,0.5720055961855612,0.6015900853319449,0.6592472364607578,0.7029695413074784,0.699097515571919,0.6723335982616514,0.662903588308791,0.673436870486269,0.6808051491635148,0.6800804730800443,0.6697489511741193,0.6480238243606946,0.5961404853703978,0.5203163075852868,0.4627971519050491,0.4984033297790047,0.5671183412412253,0.635473155930725,0.692662692851894,0.7257199814887789,0.7336911284075129,0.7290851979551425,0.7047438081171595,0.7252880965717217,0.835893670229078,0.9194054663953586,0.8572453294505546,0.7328418753336035,0.6043746638465932,0.46633912326702864,0.36477856947533205,0.4309362159964958,0.554344553606688,0.6676020390031447,0.7603529596210397,0.7635198432398833,0.7285063199975164,0.6980568230698814,0.6337349986745466,0.6276390290999858,0.6583674726646662,0.6363575020162964,0.536659014352125,0.4652166006608929,0.38738784226252365,0.2524564824608304,0.1278696853770911,0.08885850498678716,0.12928887068051864,0.2544683422658047,0.3871201690212942,0.40200501965174107,0.28782070599691423,0.1577047062136474,0.0446274481572182,0.0,0.08879191772186434,0.21083957948419219,0.3449852206712425,0.48314804425318547,0.5876729579060198,0.5988729314838444,0.6473296040736742,0.6792522473819993,0.6687310116097711,0.6515405163914263,0.6047269138019224,0.5341034213480245,0.46817944892970376,0.40173771891926124,0.3824982324635502,0.4375749376240545,0.5190290543271101,0.5882347895075815,0.6054422496015799,0.6167270478400315,0.6151153162792173,0.608376244659151,0.5947884996972159,0.606068299502128,0.6304560081664166,0.625236525953007,0.5655272469481081,0.5133561926035553,0.4905684261388159,0.5466410432795716,0.6337214939891607,0.6951149959756133,0.7103447459085688,0.704677066012851,0.6241759280984778,0.5043040918239567,0.3757481048953655,0.25045156847824357,0.1258656488116512,0.08589085698220611,0.17864841491980066,0.300657166899585,0.4356113190214108,0.5731143974603508,0.657494738592209,0.661449080697861,0.698906949778598,0.7085990816921468,0.704548302591943,0.6764862309008395,0.6319816656492896,0.5685114180646522,0.4972113579463304,0.43662517840090276,0.41359690691377304,0.4643888933220315,0.5314091166088737,0.5791589485355613,0.5921504546112986,0.6064838774425807,0.606719887888389,0.5828916114305924,0.5674146041744206,0.579750988235717,0.5863122848966391,0.6004221954107414,0.5787932155986515,0.5094830765646932,0.46509544121777857,0.47631185987231817,0.5466686359775155,0.6269945281431144,0.6771664726138447,0.6765189522198511,0.6419801951595092,0.5339785002166488,0.40188852652978646,0.26384557710527634,0.13871321405839954,0.04970636816363827,0.07479659218519474,0.18868366455235863,0.3199480144735083,0.4582235044410141,0.5812318022531144,0.6333191062158705,0.6698047033450472,0.691116965784397,0.69796415332151,0.6948037982853097,0.6524453714583505,0.580905983886729,0.5037258287687516,0.43893131261392293,0.4294120136652584,0.48059967635755285,0.5476143810472931,0.6008900344173216,0.5921206775652017,0.5768040542547439,0.5691191695534896,0.5515193347130816,0.5496242130867124,0.5469579195745071,0.5640198211635474,0.5912982042350103,0.612890846270445,0.5972473390626938,0.5362427552430411,0.4767464843221809,0.46316704138890374,0.5049372789500275,0.5800234534971036,0.6529009770532097,No
0.9376706860369435,0.9251587163426009,0.9130830055681507,0.8948803882641525,0.8718763745673597,0.8445267401315002,0.8204680662115629,0.798031274627987,0.7575513153724724,0.6870207987398187,0.6013871308952585,0.5194200514427969,0.4388820935359745,0.4245013388866865,0.48850454815517486,0.5618148451766984,0.6359825248388056,0.701031434388975,0.7477321703371405,0.7853920178917648,0.8075395969535419,0.8571452848256422,0.9371025897286756,0.9524054384832983,0.8577674937808824,0.7494037751898777,0.6362910313882137,0.5279616304199717,0.43638755500058535,0.48425011139758833,0.5869743573666457,0.6769670127329572,0.7775958236920149,0.8751635751285676,0.9453018725877387,0.9820436852623144,0.9646777365461521,0.9126911390959536,0.9148916792193735,0.9700667112203347,0.9983694365125428,0.9978499575382833,0.9929425854570648,0.975151400593107,0.9482296730372415,0.9305769220273059,0.9127118619200405,0.8933949900863989,0.898838192693622,0.8898685402941577,0.843016450365305,0.7671509157735441,0.6846890061480213,0.5994891608627939,0.5319399328634518,0.560990847599681,0.6318492867783232,0.7066820487205794,0.7630064829121834,0.8100863135830467,0.8328689110801042,0.8537722078709473,0.8800673833389854,0.9513633197340772,1.0,0.9370385084337096,0.8314322138626338,0.7224453999491303,0.6202628322624397,0.5466762728527197,0.5905942020988735,0.6937696760257319,0.7979779960706606,0.8950277012251302,0.9229235640201701,0.8955218065289028,0.8409484124702056,0.7857153176888199,0.8011972572284911,0.8473037812067918,0.8698235722644378,0.855393670001205,0.8481843129726152,0.824827545642767,0.80779640198288,0.7927061988439736,0.7764410907478818,0.7647843342657281,0.7633503335626131,0.7357696355320416,0.6672006624542441,0.5916329435890386,0.5069428648791985,0.4208749975814028,0.3706138826949674,0.4165636691773127,0.4893323049649987,0.5615260241737716,0.6215309734924008,0.6662591646686531,0.6985894445015495,0.7140428493102249,0.7563280398822525,0.8359319105302916,0.8644732876296013,0.7854325775049587,0.6775216431009223,0.5695480456866866,0.45616791287075653,0.36421690866236656,0.402899503792683,0.5077347372445868,0.6127737081980333,0.6998127588781089,0.7785117111594206,0.7814060304711656,0.7467598406030183,0.6931479143411909,0.6130608926524688,0.49872370044530756,0.4265734017278624,0.4682069921023535,0.579628782511397,0.6698310503909775,0.7041584041179738,0.7213748374460747,0.677662203275808,0.5868160605470378,0.4742310111843633,0.40853595210653504,0.32289275330032363,0.21590728469548948,0.10489182140709574,0.00600038346280285,0.0,0.09620218642155276,0.20715496061342864,0.32070586688494407,0.42930694624114984,0.5403487211000226,0.6364671054897877,0.7076907877961434,0.687538820473141,0.6548435979641849,0.6350439883041186,0.5909235077817314,0.5356831746774224,0.46761658661902805,0.3895055031587451,0.32864255004641496,0.3312099695802109,0.3961445960525063,0.4792727530938943,0.5627421543429052,0.6464064626694812,0.7004833060564097,0.7117451526963441,0.7235777597926045,0.7375801637377517,0.7544175546606198,0.772156430802577,0.7947540739266437,0.7946158953905256,0.7933385613198629,0.8057103831979084,0.7819679541422233,0.7359569917945366,0.7290241160849056,0.7811672917991936,0.8438749346077934,0.858770573811698,0.8059335439823632,0.7051360740623527,0.5920830356585824,0.4789472885006516,0.36995514995038237,0.2590349557421827,0.15300725604029686,0.10271693012790761,0.17202307504898373,0.28458307036947716,0.3920459343381204,0.5087341543402841,0.619953657106747,0.7296949133960835,0.8323280916356777,0.8545144325721776,0.8141654555198179,0.7947004364736916,0.7762985508793085,0.7313293229449225,0.6724954868108752,0.6073701356710774,0.5321703610839954,0.47469757400596,0.48727018368693775,0.5566226180627059,0.6402578679382169,0.7252455106316513,0.806378364371303,0.8425495435499135,0.8445606488932,0.8459786398913871,0.8647838627273337,0.8749085043004974,0.8912025825641208,0.9120192367444515,0.9366627749552383,0.940562780480438,0.9393717439484064,0.9389223718410249,0.8954262139238813,0.8430458324063048,0.8304956289584018,0.8848296506240367,0.931206431533973,0.9001819056575351,0.816853301011045,0.7136503493490296,0.6074453149078805,0.5007235450380745,0.3915042844458245,0.2842754355174635,0.1737241147982138,0.11320027331073246,0.18067211381948778,0.29714037377673286,0.4148651378736692,0.5238931183248439,0.6362675793436914,0.7436686718592362,0.822953121089236,0.7910500202613093,0.7505801383324262,0.7428618027963125,0.7030418779671823,0.6541805757627936,0.5852004400521005,0.5105782942829906,0.43581002474523567,0.3778386751753442,0.37446297926332806,0.4397375903684533,0.5278612276612842,0.6139965571355055,0.6897677599590204,0.7420617973666248,0.763032337265682,0.7893221200687148,0.8089595500151208,0.8314097137223073,0.849129505795672,0.8616969860028476,0.8727841393046933,0.890199389528632,No
0.47447299142754895,0.4949228676881017,0.4884041381963802,0.43079829822768634,0.4099380219207278,0.49494248598842283,0.6061705734108216,0.7244764813839253,0.8413833791916265,0.9298378685096083,0.9102773889684346,0.7978984593600855,0.6921055691565283,0.6440910806054276,0.6492790191794722,0.661964161807497,0.6616019262598818,0.6389539163616447,0.5665050349221792,0.46992018144651126,0.4198020699171563,0.43840591717262445,0.5161403587636948,0.579399612745628,0.5993021625653574,0.5936467143888771,0.5908607705389799,0.5949948853727207,0.5902911892642444,0.6003357961366227,0.6114932628607552,0.5997054768598518,0.5740095054394954,0.5335444410173245,0.4833649260674524,0.45821547840470966,0.47931804899041985,0.5184919071500773,0.5368018630202154,0.5438203275407356,0.5697194207148573,0.5723713163766155,0.5169074746961089,0.4384999883592595,0.4686874738439757,0.594547642285761,0.7168897981605866,0.8354401628094963,0.9444278488276097,1.0,0.9411814854347389,0.8313132756620876,0.7225807142836977,0.6939778176739888,0.6997037628920721,0.7121615978030214,0.7154710097068815,0.6963245655328447,0.6456446638749527,0.5710416804381424,0.484210349953611,0.41910621568975426,0.4215484376269605,0.48964428696665196,0.5565576501833918,0.6123024149190632,0.6110428135817907,0.5842963531737193,0.6136407411607054,0.5852599716718729,0.5712996544639148,0.58837064989536,0.5930903141952064,0.5898414362159294,0.5603237242528016,0.5155070798129593,0.4649228360645199,0.4177279229720132,0.400046484327214,0.43730471705292384,0.4879501194757476,0.5172731958998806,0.5270120631926067,0.5424819565365233,0.5362556020826839,0.46812612337958237,0.38572654067856416,0.39817009490954414,0.5203214610582925,0.6360002713393764,0.7626484667210205,0.8757867831212853,0.9738526044857858,0.9766244412910119,0.8800705625907335,0.7663350534872739,0.6784532262838243,0.6653195711223452,0.6797084167226028,0.67343943282017,0.669868039739618,0.6208448115393375,0.5363000132604792,0.45432343772872397,0.4146882208962399,0.43457769317425843,0.508271952746957,0.5820606027635931,0.6079087130494982,0.6006741570496521,0.604598617885189,0.6200092587982327,0.6326659741961236,0.6413248060186412,0.6294239061394005,0.5955589726080945,0.5367442431067255,0.47578395829401776,0.44783405618906613,0.4706949845718271,0.5070675891219962,0.50814850371389,0.462632281483331,0.4192700039449213,0.3684739624506439,0.26981076753591227,0.13960274988329235,0.025306519128852845,0.0,0.06788099923315327,0.19564425014789188,0.3193876111188563,0.3830473151757867,0.43466847237040485,0.4918949306643934,0.5420791704945942,0.5677398261175788,0.5681262127361202,0.5514846145203411,0.5347992681567422,0.5250343719068358,0.523746482159448,0.5031874418963111,0.4283495539055151,0.3643093417265253,0.3184487029712755,0.3196615332189534,0.3696979466161938,0.43861780330514577,0.5128644299603198,0.5819028695859769,0.6111824928502898,0.6123105016757524,0.5991206689138537,0.5960974431993824,0.6506765668113279,0.7354422740430784,0.6712764400151454,0.5483447278246487,0.42988572794337854,0.3032463618996015,0.1879311160082464,0.09528230462621412,0.12879991897749976,0.23655974644801203,0.34108074594981685,0.4345473875238328,0.4775038355413419,0.46311372025954833,0.4477403259960626,0.4193806194480145,0.3614907870935009,0.3259814831751773,0.3339927798688227,0.36619460693823,0.4159256397580342,0.46771781937480883,0.5052813233860713,0.5064797319213232,0.47514991273631546,0.48883464263285736,0.4895488494144189,0.47457325201703426,0.4866380392878691,0.4993179533243999,0.5160139491509308,0.47806352797516416,0.4061683171449806,0.3369912921896909,0.3171392453652899,0.3563393840790794,0.4246568556828363,0.5036298575317129,0.5794854880652816,0.6190126793752238,0.631407112476146,0.6176440026577694,0.6197632349338975,0.6367823535388921,0.7139422656779639,0.7320390050632968,0.6275568383663819,0.5025303502850638,0.38204140847658685,0.2613340838497864,0.1475138950957291,0.09803685744023705,0.18131947245302316,0.29237738921850553,0.39251082340059673,0.48189656180210116,0.5149725505669736,0.4895938832182596,0.47304942556921725,0.45382158872339806,0.4231663493751223,0.38833156498650556,0.3925367546057714,0.4229866439373633,0.48085152543464726,0.5237096886746082,0.5444262722968718,0.541661072667531,0.524946619024576,0.5277593462318495,0.5197342071920121,0.5199545675244819,0.5300347402635568,0.5178657096415114,0.45008452857585324,0.3771925032839971,0.33588729766018277,0.34714895358795417,0.3953119682387709,0.479851027478833,0.5646587177685118,0.5917485605352328,0.5886997691290365,0.5807615823178542,0.5780950975942787,0.5883202559761034,0.6752113110695177,0.7176081731023891,0.6120151893754548,0.5049875999120483,0.40655007484670813,0.2904107112693781,0.17232160644733074,0.07942286053773095,0.10567448877500496,0.22232570009323194,0.33715805126987286,0.4050898138095258,0.4182686691243469,0.39024900256686124,No
0.7822821498002387,0.8205299999774355,0.8354189458000517,0.8336562214616398,0.8317556516309071,0.8191397347296957,0.8087109258018025,0.805792893649733,0.7821659976292042,0.7421989404481965,0.7243663090132796,0.7551092194276093,0.7946191494467508,0.836288000205894,0.8711867020491965,0.899213033312266,0.9435006575768862,0.9987250583911241,0.9999999999999999,0.9294583492432086,0.8484830606915322,0.7642848891662851,0.681073419051642,0.5935062578257407,0.5509518735073967,0.6172440966313971,0.7061330776467302,0.7919061533923973,0.8738360046858592,0.9473278725942061,0.9499766938257753,0.9107970555979196,0.8868420606264872,0.8421177778230006,0.8028349304185741,0.8211330492972496,0.8552895012602416,0.8643648733791879,0.8542055275938468,0.8475559436133971,0.8433551248620642,0.8391370363498388,0.8367359377312965,0.8081921701463449,0.7673269459051394,0.768464992325811,0.8009761836167056,0.8371454573581757,0.8597365656709851,0.8803409409804394,0.9167293623148413,0.9704327973199004,0.9511570965355057,0.8769680198219022,0.8093460657860102,0.7274651138526868,0.6454766376479121,0.5572111998434869,0.4743457336236231,0.3889791878450205,0.3053415983652469,0.30692076872843044,0.3910998575261194,0.48022825140334546,0.5693615270240021,0.6584945146797382,0.7471051108376537,0.8289902796689504,0.9055544704627055,0.9403091935464113,0.9012432331805854,0.8723485661750182,0.8387404614545312,0.7842969902414655,0.7764330696803553,0.8102187976820706,0.8393929586968291,0.838410724048071,0.8477458366513145,0.8423227171236803,0.8255077168674027,0.8203715516561155,0.8264491346610053,0.8117234940867525,0.7809745311412312,0.7467009474979592,0.7572988015001708,0.7898101026181218,0.8202502259044603,0.8530069182738066,0.8788515426207398,0.9158144572730417,0.9684037719923443,0.9672025069794449,0.8967187678361411,0.816264887752104,0.7321804710020355,0.6497964323479882,0.5613143922433833,0.4847697562093919,0.4963672148070083,0.5758700978506311,0.6606329248360246,0.7475255043006012,0.828781646291996,0.9070762969220952,0.9364379714269254,0.8955614770005763,0.8757934621718914,0.8430652422075177,0.7885822439159796,0.7595294773432616,0.7907360912756093,0.8235018039094885,0.8244242572292476,0.8168044639548927,0.7982103258088443,0.7835876778279823,0.7876189095713731,0.79224667782193,0.7584494378782983,0.7208670000424447,0.7162970853152489,0.765780635093355,0.8195018476639594,0.846711088976455,0.8455318378503441,0.7768936639474812,0.695160307872663,0.606672556310942,0.5175398551515126,0.4284065795308575,0.3392733039101993,0.2501838086180054,0.1646103296410243,0.08197069750762964,0.0030193015563593217,0.0011164799755284394,0.0761100602916488,0.1590099508143753,0.24394835949132065,0.3277090822040941,0.3978616948365771,0.48038849478141576,0.5692702347807516,0.6538507823758123,0.7373375468720834,0.8214497860623743,0.8890355156652506,0.8755692812171044,0.8430827318471096,0.8197777558890252,0.7882379846690936,0.7537735510997686,0.7219725302520975,0.7047362458931897,0.7331784341316349,0.7686212846783443,0.7921191799684645,0.787783435481814,0.7872289475730286,0.7973704661245334,0.814848991438211,0.8094063190565773,0.8074823061069069,0.7807244495168763,0.7411688091935208,0.7301324222444606,0.7687830174093636,0.8215928289515223,0.848330404459645,0.8666822141117981,0.8156811587233476,0.7340473889329541,0.6480989223573913,0.5591008151111497,0.4747240848636535,0.3909425499010303,0.3019617001620284,0.21296556701342417,0.12898882986392934,0.04634035754296084,0.0,0.05613395831192114,0.14225657673185743,0.22397559557200275,0.3123256991653748,0.40060810443306105,0.482250977869665,0.56927967371505,0.6538507823758198,0.7372377733859287,0.8203847959456841,0.8901475869572258,0.8745502374159192,0.8453006447592494,0.8281925839880396,0.801957708107924,0.7644462340461565,0.734244747341868,0.7268439389036842,0.7601983533424596,0.7985333802884808,0.8066024155792023,0.8076812727438093,0.8145471738662332,0.8206539807121301,0.8259120049538308,0.8280720140723449,0.8065926460500265,0.7714307982059391,0.760183449269129,0.8009255516952031,0.8506680749125762,0.8758927569534715,0.8738635439268915,0.8016908339068914,0.7189564697894532,0.6335686677925653,0.54448712452522,0.45535384890456465,0.3662205732839089,0.27708765761940135,0.18853502178555692,0.10671314985573954,0.03653720355532741,0.051966880037617846,0.13209257642039807,0.21861972066555857,0.29911345429930847,0.37318495053827505,0.45641463777997726,0.5379133866927713,0.6252138833523851,0.7093901257521052,0.79290335687279,0.8747056220562092,0.9326856236687838,0.8993542045637001,0.8650475868965976,0.8336691330278742,0.798217516263306,0.7554119479619302,0.7188999826116039,0.6888028235489537,0.6957002489051763,0.7339124561809341,0.7717430687748273,0.7787486113986987,0.783443117074866,0.7890260779569552,0.7940013405898344,0.8007821579415163,0.7760989970602322,0.7363416702410001,No
0.9602839014759954,0.9476392892035921,0.8973931292842081,0.809779309700146,0.7083794637787253,0.595293389248652,0.48395806166738065,0.4595563613854694,0.5597118791168845,0.6617008440942491,0.7526286166533704,0.8322958307203272,0.9171258278976209,0.9563382668440601,0.941965267558867,0.9085627435491557,0.8827817472674042,0.896607534358018,0.9049691077553648,0.9094982809385466,0.9099624171623943,0.9122778270445717,0.8925791176039215,0.8503221652690882,0.7942343762614794,0.799824414897597,0.8433318421173965,0.8720349823057705,0.8862517521696491,0.8935146164335268,0.8902395385956672,0.8566925606471643,0.7772504422549498,0.6816499314806224,0.5908572571695776,0.5016803530628107,0.4679450041282369,0.5578171787102029,0.6596920378262838,0.7583216625742051,0.8542254623952321,0.9127394995137668,0.9056747634627482,0.8724822435379511,0.8507532170101506,0.8698054643120157,0.8908125018809259,0.9055417051527972,0.929330503434713,0.9476577479096673,0.9357054282926398,0.8985432293686271,0.8424352545803069,0.824745524727337,0.8698562391701754,0.9065841568860755,0.9276462022818788,0.9469807664437606,0.960823590084743,0.9530682002049733,0.8825030403073433,0.7829320087224916,0.6743371524073714,0.5852229569817002,0.6246745664829894,0.7237420838611348,0.8245252860455932,0.9242042221942686,0.9771550351359488,0.9847824099248597,0.9557910629012898,0.9266270795114375,0.9272377151048421,0.9248805857245135,0.9254468557239777,0.9513676867271006,0.9619872395550477,0.9404752436874906,0.8955696912334574,0.8395316891467164,0.8223388811870669,0.8614149060606293,0.9034115402238563,0.9392427271175479,0.9879360247530056,0.9999999999999998,0.986869520988656,0.9379262894471598,0.8615988044648881,0.7674956405835636,0.6648022652838284,0.5793045752769743,0.6306631720172449,0.7303367940260228,0.8291901522520428,0.9264122161149688,0.9768226281968257,0.9693867642203957,0.9451319358495873,0.9328528657633421,0.94528659856814,0.9649705918424731,0.9792662083267707,0.9741272385123765,0.9535838634549287,0.9331759196527292,0.8897909561900603,0.8520894078920194,0.9035309634497086,0.9656157931586178,0.9410165668474793,0.8701526682212755,0.787526851947798,0.7400278100678108,0.6490427797265144,0.5387009765573645,0.48380410758466996,0.5177523906411425,0.6223104529705885,0.7252750177600207,0.7838006679987226,0.8361956527148788,0.885510475443301,0.9123463775357943,0.9265330885572809,0.9359288591152561,0.9210082245142768,0.8981225781771627,0.884596055980966,0.8948311357813405,0.9250185725704088,0.9124901697897434,0.8313250101891885,0.7346987009526462,0.6261042491196187,0.5119206059283414,0.40476108690377854,0.29779551901543866,0.18813613587506373,0.10240882640836158,0.11836707178348571,0.22046423780941304,0.3241905314847675,0.4361391053609751,0.5394179949015363,0.6486983765835055,0.7506707839831879,0.8474327923356599,0.9238534639453271,0.9532673813818329,0.9453492833774064,0.8996031912700959,0.8669573651890279,0.8242936962728586,0.7812580809493073,0.7718977289238491,0.8191101736983069,0.8758194326481645,0.9056466497376501,0.9062498217076651,0.8829836138981568,0.8725014390125991,0.8747962451291957,0.8640425703716426,0.8941326400160021,0.9218526190576044,0.9252402945975782,0.855944681147996,0.7610823438815102,0.6632907901421936,0.5571365492892457,0.4429396577843525,0.3286131144924891,0.22031566976324402,0.13378684591953283,0.1489322802850066,0.24676845088196675,0.35289907190344194,0.4646502819823308,0.5679525830861782,0.6798901117914642,0.7833756848747722,0.8800009360623948,0.916468912229883,0.9027486440970616,0.8870956941321746,0.8628152000135876,0.8240911045326575,0.7778763846440084,0.7745043384542936,0.8202716759369266,0.8706701091453988,0.900776809564406,0.8940781569173522,0.8716880152393716,0.8558542331620418,0.8356807971486078,0.8042404607693656,0.801234787770958,0.8323166971075426,0.8677189187395571,0.8443599720153554,0.7506711820990077,0.6460551346844781,0.5423734241699829,0.43747935537513505,0.3237792117797327,0.21749716572566813,0.11020278350874335,0.013699833068292255,0.0,0.08818953828920639,0.1927465353780382,0.3014445664309193,0.409639408601004,0.5155836991927829,0.6296162863859049,0.7357790055645863,0.812134237938803,0.847414437630045,0.835795337665344,0.8366389538243453,0.8172026060220474,0.7796246131588755,0.7311745272159544,0.724010619620105,0.7773669099974863,0.8306820954861134,0.8608316282747575,0.8578467428271355,0.8626499327040074,0.8574597121413763,0.8546469192442963,0.8352846596309307,0.8377370745001091,0.8720025222024741,0.8990553572398852,0.8691641128528838,0.7796963724772057,0.6829850947505365,0.5765004717954467,0.4729838489062732,0.36043323617950995,0.25629704508625073,0.1492590473210036,0.09545710076912228,0.16602993686624656,0.27236531522388696,0.3765679855083972,0.48911046616879505,0.5926258877562429,0.7018952222210226,0.8018391379720831,0.8842008777698303,0.9129794995752814,No
0.8613632073789774,0.8558810349508659,0.8426012862182164,0.8357729726760468,0.8371570989897608,0.8577498611493746,0.8571816799817693,0.8203613227985271,0.7752856275237567,0.747292819399962,0.7738065865132624,0.823906081201979,0.8654320849335444,0.888106357682521,0.8801921608935759,0.8403653852938837,0.7850020591071991,0.7339259619859289,0.6465877682802232,0.5480146864332529,0.48008308703882685,0.5278458741058405,0.6233872647409193,0.7139343489331829,0.8006244516096093,0.8668616013920452,0.887569583393828,0.8693040296538261,0.8147576264985732,0.7530010931284505,0.7301516750108221,0.7779240338737847,0.8236642794025104,0.8232036503302651,0.8182090875468186,0.8131947379110471,0.8140216773442392,0.830430810265876,0.854726623324761,0.8472748394292964,0.8137492366454584,0.7762339157198292,0.7651384971481017,0.7982766277924318,0.8499793927189168,0.8905379803578728,0.9075798429913666,0.8943739052187469,0.8532801229505598,0.7922340919780524,0.710821041305683,0.6194854056329366,0.5281605676846226,0.4407517978923732,0.45531877692375256,0.5511650827850068,0.6440956400398032,0.7365257659053528,0.8272612664373269,0.8998363258845967,0.915746010544388,0.9014403257858898,0.8480860088716278,0.7834961784879799,0.7652568108240128,0.808972758577339,0.8501014151757298,0.867923718360093,0.8694752187810537,0.88067571004661,0.8610611448458947,0.857793805814878,0.8586779025963303,0.8711461509932175,0.8569773392343194,0.8157624129666852,0.7728176577099277,0.7485108122132034,0.7841163001516427,0.8389934012390516,0.8942220474406675,0.9340962604915894,0.9624806095438974,0.9442730027335084,0.8930089614887344,0.8278446423350259,0.7440380389036982,0.6510987151192251,0.558236993170877,0.5266226596033974,0.602147323121373,0.6994521506188529,0.7907664031352839,0.8813570144647485,0.9622528848974694,1.0,0.9931392577640872,0.9547438418408793,0.8954857739530868,0.8316596972111201,0.8269834129849332,0.8681284838656578,0.8814945769337821,0.8623099038640683,0.8510893898572882,0.837001529515077,0.8334317600711487,0.8368555309312375,0.8361341450808046,0.8209602851093436,0.7812492124490262,0.7275082338899059,0.6615449079664228,0.5661221389127753,0.4805927600312607,0.4669631571521553,0.5310344388179622,0.6289067118469294,0.6919744104533265,0.728366812274786,0.7717253701550044,0.7884715196304786,0.7905180923479014,0.7852287506899644,0.7928837994622278,0.8071026949127522,0.8204400948914521,0.8356267406008229,0.8071104755222946,0.7650545215578766,0.7549001807581961,0.7973263152831662,0.8628213756515826,0.9244258360927184,0.9516549251270812,0.9409081284023681,0.8758348365229973,0.7850526275864769,0.6848246816660026,0.5842608671758704,0.4893332939300703,0.3955250935703043,0.2967528365806975,0.20574308179673428,0.1130601471597159,0.07444943466078557,0.14042189191855003,0.23548558734730185,0.3279552612956096,0.42222431170598296,0.5013259240131582,0.5914029721526637,0.6872265417406331,0.7770753830795463,0.8490570623921823,0.9022944052169568,0.9073981214572506,0.872400845785763,0.8203643510146756,0.76353303363909,0.7160420070071152,0.6998922961994087,0.7324409975875761,0.7756995268279909,0.8152995480743224,0.820631201305297,0.8124527546090943,0.8134171546604039,0.8184654204987445,0.8289832432923712,0.8304419112763219,0.8134232973473603,0.7790427042348198,0.728341528516391,0.6904799148053695,0.7251992784204329,0.7849154372061511,0.8473025482197394,0.8750465325196473,0.8496575566595692,0.7731028750691316,0.6831350048437836,0.586801327940863,0.4949378135865259,0.39490797688449386,0.29423336473869854,0.19408981320793606,0.10228295977117008,0.027622956350985106,0.049869586695551416,0.13762001003147017,0.23603777121916103,0.3271420423099558,0.4262475490850399,0.5209288672215555,0.6137140418232467,0.7034457964085035,0.7833977109953185,0.8362335184686689,0.8528848999513645,0.8484228674075238,0.8160678509114683,0.7619335917858474,0.7269888874383361,0.7279032908815082,0.7540146843034599,0.7949148536939203,0.8102627724798221,0.7871397071869297,0.7691048033506518,0.7661919116052478,0.7712103404076114,0.7755256372178252,0.7820561835490181,0.7415473644963528,0.69073545470336,0.6764567222572533,0.7256799365852911,0.7916614469944125,0.8384596489320155,0.8328640401121485,0.7769570182851613,0.6902742967519715,0.5998196804369662,0.5023275131689164,0.4051875997874095,0.31326846873238545,0.21340478704631183,0.11948039522721277,0.029439215232094806,0.0,0.07806796090622625,0.16919735401430347,0.26728901026090335,0.36726421239227314,0.4590229164498991,0.5558645181439541,0.6470546139871654,0.7272737788734438,0.7874242861779881,0.8358927351734846,0.8408287399424341,0.8073219805849554,0.7617376705274661,0.714273401821746,0.7020222687743392,0.7313731842165425,0.7736526666538261,0.8082337308311751,0.8062451868149991,0.790141122701522,0.7908392323333735,0.7993142420526458,0.8094993430678619,0.8124639289417499,No
0.877357671946162,0.91651597104346,0.9356648148509035,0.9345524936910847,0.9393658128744355,0.9164696383497837,0.8559279578793426,0.7877688071261033,0.70248842546543,0.5989810479856257,0.49801576146901216,0.42534010944889955,0.4727899036484138,0.5761747026621662,0.677113925960265,0.7586378235412556,0.8393805593058923,0.9140822538580642,0.9439590590846298,0.8928283010072502,0.8431356784573703,0.782183127190949,0.7723058498860931,0.8199173837200939,0.8754930464939881,0.8791372904448258,0.8581418070266047,0.8533068542098949,0.856586508080911,0.8459560116715845,0.843171228226806,0.8313761075316164,0.8158295440718877,0.8194859413394704,0.8334067251056994,0.8313217400034698,0.8355269103511176,0.8254254383495561,0.7831710132567864,0.7283215793947646,0.6651382079671524,0.6307319851434243,0.6780626423340601,0.7338970992202862,0.7900651137134636,0.8283194204258104,0.8549917715048629,0.8697337045363633,0.8533612675790063,0.8277182222147645,0.7693452221676023,0.693922765423914,0.6016878534047845,0.504289454408207,0.40633332888879226,0.3247652419005893,0.35668996109932016,0.45546891535411205,0.5603078538190498,0.6606074300354898,0.7571611513545797,0.8571919530476533,0.9265326320588165,0.9062409491844987,0.8617676844146185,0.7954501535141245,0.7637935083910155,0.8046566008615932,0.863024021824031,0.8902599062063408,0.8919116757275767,0.8901439554319939,0.8693519293117584,0.8426702831813986,0.8253118851219698,0.8108520448084724,0.7806437276281668,0.7516462387236811,0.7225452609012708,0.7083736611680898,0.6818386888580734,0.649199208512995,0.6186058022483538,0.611982709765549,0.6615033726485782,0.7302771757093847,0.7960191930860734,0.8599735566080053,0.9109980663893145,0.9623414155338448,0.9999999999999998,0.9789527802292863,0.9752944541596038,0.9524505643370518,0.8994321334274653,0.8354182513718078,0.7435417653630683,0.6473350242573763,0.5481080615282974,0.45331369864024396,0.3854231294222943,0.4442452189027326,0.5472700315013652,0.6507964580127796,0.745780468762373,0.8467882708559971,0.9366786169593062,0.9661461680935888,0.9158957996748993,0.8743473418632683,0.8183459670577198,0.829961930847295,0.8777833059918716,0.8865948303369666,0.8760413540379546,0.873530616975924,0.8810375840500833,0.8808041743758086,0.8622805897032901,0.8396466172391464,0.812854684727218,0.819471202287396,0.8303140566874807,0.8363018876416233,0.8207559451882653,0.8203586234215716,0.8285660209394174,0.8403705786908684,0.8009283322610561,0.7475068854791715,0.7296635900908173,0.7868092118932271,0.8430786669438384,0.8485669732002512,0.7668650052607278,0.6639341406999695,0.5736905978966731,0.49920886761239425,0.4278478125056726,0.33822143183347486,0.24363944718584762,0.14906440471345417,0.12517618624725624,0.19803116458618497,0.29264467446958675,0.38848093866360633,0.4836923632954828,0.5852993905402315,0.6892900890107676,0.7831741365004838,0.85429894495704,0.9038900726556214,0.9214875741679449,0.9413623914687348,0.9134696590825648,0.8658033599128288,0.814535622189384,0.7433970715017606,0.676114689293658,0.6125669978337631,0.5648441975480953,0.5676499292862145,0.5925536491142684,0.6237136164268999,0.6564827943702947,0.6677882616024962,0.6975689839828643,0.7280270117226675,0.7573769604672946,0.7761094015961796,0.7871221434978792,0.803382632662182,0.8281879405871659,0.8386605986211777,0.8456163078691097,0.8467057528908788,0.8168439360788076,0.7598565541380504,0.7058654709820498,0.6907829670445216,0.7479694411093367,0.8143041588568327,0.8303162982492227,0.7529432337948594,0.6485752373285976,0.543626550487962,0.4386850228584196,0.3358669650262651,0.24088657660786472,0.139057828878155,0.046807269934325824,0.0,0.059925404163033935,0.13967582479939167,0.2294532174837718,0.32941052582617525,0.4246931241868721,0.5237182102275606,0.6197785843762749,0.7118127155078995,0.7791307675974111,0.8129373689047232,0.8182245631975695,0.8003743382954556,0.7644698374215959,0.7088318667423004,0.6501665401961774,0.593195203991921,0.5775123399120297,0.6226282923385782,0.6863848126555838,0.7474053424710936,0.7826083807704067,0.7864816032378228,0.7845967759737429,0.7859459347502307,0.768847803838469,0.7730096351654667,0.7944360489666986,0.7975295742462774,0.8041512746144257,0.8098672751969962,0.8073567183218755,0.819029818460012,0.833804889638641,0.7949163041950829,0.743245106550847,0.6947844134826211,0.7066082776319196,0.769018868740402,0.8267462686461913,0.8290984036737405,0.7398662325996541,0.6390215531178323,0.5429659482378724,0.43881359912788476,0.34124452247348636,0.24211706566428237,0.14281626055334695,0.06331739111043144,0.08047766754137031,0.17889717136337047,0.276208439378685,0.3749265301072069,0.4703414971769495,0.5662287716569532,0.6493629642291914,0.7319847593227531,0.8051202235268435,0.8696514290715267,0.8922836681388511,0.889919769319875,0.8755822705858909,0.8406661861717171,0.7861803139269743,No
0.6291104793500306,0.6457689819606953,0.6709895290512673,0.6791304730510364,0.6660114185574546,0.6322359328729545,0.568375940659454,0.4784683733611681,0.3777327188852908,0.3240879572464017,0.37078348838525965,0.4519682049549729,0.5245293803374915,0.590365121693007,0.64868588588938,0.6579063418410209,0.6592979747217544,0.6937329697849073,0.8003492924978763,0.928867111622389,1.0,0.9271195306183762,0.78269540428371,0.6279860746876755,0.5791531408189661,0.6560367352487759,0.7034889992887123,0.6952695670462194,0.6527975203153389,0.559065569749218,0.4682508049281999,0.45862937818785543,0.46227814587382987,0.5312262278593787,0.5990568078748995,0.6710864222504638,0.7204341495443947,0.7027172320518993,0.6887104860747764,0.6739812942530223,0.6886031466234677,0.6804235776781082,0.6898898595450689,0.6786494600677369,0.6828618353364542,0.6491239869069414,0.604266769359306,0.5282975161779353,0.43625654355242105,0.3464583250882134,0.33090206653433185,0.38550542537022725,0.45084125211103654,0.5177998392436969,0.5623691936348427,0.5848984164749522,0.6083477620213902,0.6632780504151379,0.7701327659203452,0.8891484647530881,0.8818391801346053,0.7580512832453294,0.6264980550169046,0.6066343589285621,0.6772029218797497,0.6880203671525598,0.6886464754577881,0.6360909899921907,0.5410382573313006,0.4693703492720056,0.4707925718041235,0.5380075725240259,0.5695476999235316,0.5711605299988953,0.5759887838079596,0.5658392148783031,0.5507617623587358,0.5609566207866266,0.5830126495212813,0.6035289491885996,0.6352222058632817,0.6107637638883388,0.6029140242532538,0.5613511355570804,0.48115523617270917,0.395684946184228,0.3109194574507157,0.3151718848718188,0.3740274625822373,0.45409772505326274,0.5165579004029706,0.5619241880133936,0.5941091686261126,0.5923553008860862,0.6427421657584782,0.7439232486694669,0.8637839026070528,0.9349905702141887,0.8629941603923976,0.7294078751408293,0.5978557529831487,0.6087598562671621,0.7121580179498999,0.7462876151165201,0.7267505691909584,0.6989054928773193,0.6323932842471454,0.5471599099962319,0.5455750928387895,0.6041079092815371,0.6586976185811029,0.662772560047757,0.6620229829472946,0.6335433408261437,0.6214959230736934,0.6023424439255693,0.6016033498418105,0.6292300150070735,0.6423736374197375,0.6620997968367703,0.6527510331604143,0.6383040229342205,0.5851723734777838,0.5264906864969428,0.525430390370107,0.5509911851114824,0.5420028574593614,0.5251333738468871,0.5185822064846777,0.5042240687830253,0.5162829132355329,0.5315946441585657,0.5476774961577826,0.5458213193669508,0.529236565240125,0.4523150892342711,0.416718949859197,0.43395561441584274,0.5046191577918133,0.5867789222483921,0.6338105240386751,0.5908745070924635,0.5117969124182888,0.36999233773257156,0.20922022574184584,0.07357260990802761,0.09113311293684578,0.23318839080950582,0.38988642126060036,0.5234621375569111,0.6527006482333562,0.6946497020337494,0.5975635441900513,0.5206793831862448,0.4744157303273031,0.4679904495946525,0.47290046173974876,0.42291971553203034,0.35026638442961566,0.2830438961064772,0.20965877497142138,0.17910462056274756,0.23519831318117657,0.3229587221972645,0.4175835094894049,0.4850519632417045,0.5119844834004796,0.5129072721991035,0.4850723900460068,0.4810762443580572,0.47060622091666016,0.4590024613512327,0.46746843217456036,0.476248433811322,0.46537546987097667,0.4512836110347216,0.3965029835859566,0.35037935121957364,0.3781122606643379,0.4414432682732281,0.5417282000043686,0.597275333366623,0.5763715110516694,0.48769481019437677,0.3296522977487948,0.1605760285409561,0.04706031305701153,0.11572484111608983,0.2700666488605572,0.4160626799928835,0.5486773002870047,0.6618530554383897,0.6263945466590695,0.5325255708078283,0.4982155644266699,0.4843085203385149,0.4570951654586777,0.4042174883684462,0.3362812418536363,0.25933558436183457,0.20757179853663565,0.22772093497265988,0.3069131232448754,0.405101303636795,0.49356567363755044,0.5482085384924922,0.5611115664590294,0.5773699554888223,0.5822421943126148,0.5593564748216551,0.571528296958637,0.57669900307007,0.5601730177306212,0.5805466237628361,0.6165251676516643,0.6027787916012208,0.5260492418026868,0.46137773790629577,0.3851440249425675,0.3271675268147556,0.3213128333230868,0.3879612320590624,0.4888316222757254,0.5746939593316549,0.5735410818954918,0.5129001335326562,0.3758184095533226,0.2247295688837463,0.06732796135991936,0.0,0.10313897505688896,0.270590954425578,0.42299336131274945,0.5680816936531103,0.7003287519264765,0.7530598161550763,0.6539757560426676,0.5819247263659104,0.5487238226555267,0.5306887353828591,0.5156006529413499,0.4532469958117824,0.3810732303161313,0.29716091520750343,0.22720866927147565,0.1807463964080691,0.24008785629752172,0.34321033184962957,0.44339480473749493,0.5257896369311919,0.5704082686319154,0.5821231368248743,0.5569118619583362,0.553361170986105,0.5316686369374288,No
0.8624778332738652,0.8867849389481051,0.8978071832034864,0.8264445840414898,0.7076948214665362,0.589366387968985,0.5382243156884203,0.6256618969198589,0.7521890842466408,0.8610155890803157,0.9276626049845618,0.8969460101242426,0.8388558642755393,0.7864731711282902,0.7898033340040951,0.8477596729508647,0.8618216010921618,0.8518514251642895,0.8304881380512641,0.8376929400169475,0.8607544982695527,0.8879905125445373,0.9372621860311106,0.954376086659078,0.9014133872561767,0.8229544523285157,0.737791186039189,0.7344115877308037,0.7886035924716737,0.845459198092954,0.8909154615732628,0.9100164789510448,0.9168746567353567,0.9294665965661193,0.9448953297975278,0.9356022576031422,0.8367760813070637,0.7120209855242945,0.5891384200498195,0.5050730626154967,0.5915908355325556,0.7184494479215009,0.8435843592887573,0.9565533487890159,0.9808770746177178,0.9319539338702292,0.8702950428775704,0.835910348122086,0.8712777101699132,0.9129699465645178,0.9065880717595132,0.9034466466054369,0.9172736177504008,0.9276282211809312,0.9361981539074047,0.9143355931423658,0.8663243873955744,0.7944218300626806,0.7137727925099844,0.7138178938655875,0.7813749819495186,0.8329381737731532,0.8757437868449394,0.9074639041833743,0.9288744547017758,0.95454055285416,0.9677756682939092,0.9537040602869538,0.8561345688471254,0.7337099731751424,0.6104645588447091,0.4986316418119836,0.5524035343783611,0.6854458111817996,0.8085179228834507,0.9262861821317636,0.9978003830331055,0.9841928829668216,0.9245247924265394,0.8728924678642276,0.8709047431032952,0.9285442196563172,0.9529109029895237,0.9439891045473892,0.9419242512476425,0.9522500841453132,0.9635439039936191,0.9569809913131331,0.9307083012843158,0.8736592748171597,0.7992889128581706,0.7469286958352024,0.7698421303723313,0.8147285403739479,0.8701574366592797,0.9112164766848183,0.9345342666506617,0.9416097930980292,0.9466519401438656,0.9616166581417858,0.9153637992084107,0.8008359681501802,0.6707954870129549,0.54925101767844,0.4977712534715044,0.6054241050364624,0.7273851459763327,0.8541116619305544,0.9559068792526206,1.0,0.9465539060189272,0.8923356216519571,0.834628941852213,0.8414283222398806,0.8965217269734227,0.8964602504276185,0.8745275197602775,0.8379980159422029,0.843243555361902,0.8075665834820556,0.7597632267385741,0.7784406574474514,0.8375328353427367,0.8865456268007201,0.8641997190935284,0.750735610431768,0.6207856513572954,0.49882659431172494,0.3676677823213561,0.24581514308730368,0.11925951346854013,0.05442225407472012,0.1309117284632828,0.2518616916104781,0.3823838721066388,0.5179241558819325,0.6532178363056738,0.7787084659780832,0.8768067171993517,0.8876635357491183,0.89285123306114,0.8769665579883004,0.848147241247807,0.8033887178200367,0.7419766625397788,0.692260310059162,0.6589915663108097,0.7150382004887015,0.7898081398148022,0.8620615941472103,0.892830431324716,0.9086722836807528,0.8971443007880695,0.8912299235522716,0.8833951997792586,0.8853228976487357,0.8698211139002718,0.8132437281939882,0.7825130328899439,0.8168087133060773,0.8758016410525236,0.9286976896323216,0.8776828667554946,0.7589509442591256,0.6352907101169851,0.5026151462285582,0.3858209795858065,0.2807168123176287,0.1759448093211331,0.07595669022658091,0.05172645962671929,0.1555662495352932,0.2826979205930171,0.39419613073582394,0.5025205722109782,0.6043883872109337,0.7226049643534527,0.8433563240846542,0.8983714305997332,0.8853234714046501,0.8644686400784005,0.8477333047694353,0.8176754178486827,0.7670667142879801,0.7113600373368034,0.6475132419647025,0.6386909014280575,0.7016215573403963,0.7773925368744106,0.8409876928704754,0.8635499583993522,0.864228255578884,0.8524261725227675,0.8370105768758589,0.8468166628985836,0.8411930055684804,0.7951937259929815,0.7796102584403637,0.8211458081514378,0.8804879526922282,0.8523866017942048,0.7357060585975375,0.6140296350803456,0.4840570254197609,0.3622552295827077,0.22901964166789357,0.09735136355150198,0.03736659849540658,0.11793494694317941,0.24655683737105916,0.3705720818253986,0.4996729169877292,0.6261201496565469,0.7512218436207108,0.8530643768856692,0.8729821754552196,0.863192113721071,0.8487393241694816,0.8317321092383274,0.7850497036757007,0.7274530826267132,0.6749502944068451,0.6598964155419256,0.7205750185585833,0.8017031860096018,0.8740990671137179,0.8695693478029249,0.8324254530234056,0.8072330225239885,0.7830025999872214,0.7738516593358713,0.7772259648770725,0.801950963401219,0.7698122506721448,0.7124705527604975,0.7196867620659777,0.7737050927347955,0.827080130089219,0.816243541610628,0.7034859274655103,0.5799218474746106,0.4524938394188478,0.3275176307832055,0.20142710956014165,0.07783309639684077,0.0,0.06181276991465756,0.19202254973733268,0.3275789917555385,0.46153623299122026,0.5833988429452597,0.7079324121659671,0.8118738911317429,0.8222314884288053,0.8136585246521362,No
0.9068854443112317,0.9145178579987148,0.9081062371922428,0.9091589618803346,0.9176206840566934,0.9301690527089899,0.8990089191244031,0.8433279310427881,0.7845474010369471,0.7027446473142924,0.6071510897324641,0.5425146713134712,0.5812177254712627,0.6457096593822724,0.7249882488886077,0.7945045815620455,0.8437460119286269,0.8833164977406258,0.8879379069539843,0.9055124875630649,0.9047580555418362,0.8478464633458591,0.7609768422802317,0.6614778766602809,0.5536623229897848,0.44061016918674945,0.43208642910834216,0.5366032901065259,0.65258316093125,0.764538400312679,0.8737313968376315,0.9610308514207286,0.9848593538457342,0.9800278325478504,0.9522520431726234,0.9044487062105913,0.8901073959876671,0.9346129429555199,0.9450661855354059,0.9443155021690952,0.9417538164408068,0.941624249435757,0.9191168362365016,0.9263866583131657,0.9213675117716775,0.9076126114760141,0.9099458096499387,0.9141106443628728,0.9008750484991439,0.8941559853088266,0.9069005223629243,0.8964343972385858,0.9031013422327683,0.8974567817628816,0.8572733787711142,0.783118617342629,0.6981146926199018,0.6086822632724544,0.5438465080692323,0.5759805535184999,0.656860140493535,0.7258546988725652,0.7908837504559636,0.8333091571946358,0.8764879115696322,0.9058704169652043,0.9072622088054434,0.9077095509902953,0.895376876453502,0.818380255765665,0.7198423970240557,0.6122465513720465,0.5006576337284501,0.39150745717488533,0.3143918470110729,0.3865840853031197,0.5035999744925199,0.626522056749613,0.7445933852209494,0.8461154060111187,0.9446742308845986,1.0,0.9975352847684795,0.9797093320106658,0.9376662417765322,0.9074552709895642,0.9361156699574105,0.9497395958181682,0.9387148070664857,0.9478251482914399,0.9570068257113338,0.9395837881205789,0.9224889862035082,0.9157010268400105,0.9062612618930777,0.89819861984261,0.8984367247869867,0.9140907350885081,0.9241482744212335,0.921022090920828,0.9099362541285507,0.8421308692676273,0.7639814037585935,0.6803540046833692,0.6019461215490227,0.5893523648685899,0.6503840508452532,0.7282197430133897,0.793867385785862,0.8567676787625778,0.9001702707002512,0.923586972299308,0.9301460112624156,0.9326784844779938,0.9050988520611081,0.8243067018814583,0.7180896193118786,0.5965017244343316,0.48307737520097715,0.36841019073717796,0.256752298842132,0.14072752259567212,0.03993293269372611,0.040694850572882135,0.1507997455912653,0.2603399491690537,0.3579939403570376,0.4103202324077633,0.5199992278190253,0.6388594234000822,0.7137154415130906,0.7982819541003359,0.865587544916703,0.8722394362108532,0.8540859490458272,0.8301880304653264,0.7931031249411733,0.7278385513763195,0.6507812138247298,0.5816145542986728,0.5204903219487553,0.49556530042346925,0.5537249573210765,0.6314807260923887,0.7177259806279443,0.8013494187996155,0.8493132093801878,0.8674709561119123,0.8548694216924213,0.8395084367972991,0.8430722797659382,0.8420400260702436,0.8454545102121123,0.8551659724783578,0.8600126296439479,0.8559038791907492,0.8791693529021449,0.8784849589329089,0.8735781984073268,0.8791472722481481,0.8555969956476637,0.8277705032607563,0.8498873632668711,0.8996280210014698,0.9313805595699716,0.9276314311355081,0.8457832445151072,0.7455259133870142,0.6320415781974265,0.5200125349210727,0.4083802038614568,0.3142527290143122,0.20912399255043423,0.09625136755943897,0.008670198889201508,0.03933874179792074,0.14840823831582473,0.2579842034431712,0.37679041751115383,0.4857516308616434,0.5947317684556674,0.7020408183803357,0.7937819974108034,0.8358173151660697,0.8406929842341815,0.8329247372459418,0.8023725524558118,0.7503711384557015,0.6787294751274384,0.6137267716042434,0.5384703749894535,0.47472591467517633,0.46804181183059557,0.5361814361936155,0.622480213979332,0.7072645659487176,0.7826084930277077,0.8232844308254901,0.8305978632654103,0.8371648914012093,0.8301940557315537,0.8368146192436106,0.8500058892188482,0.8402325225084439,0.8296615787591484,0.8508998472644769,0.8575791322645285,0.848928193009236,0.8691561281264111,0.868821182248039,0.8782474622079244,0.8711658115662355,0.8381709036267075,0.8152073243534645,0.8304157685291691,0.8869089727748007,0.9199863074723984,0.9149595468960694,0.8606375822852335,0.7644337874442373,0.6523965520792618,0.5427724646194103,0.4242024937224933,0.31430626265245376,0.19448514321281296,0.0743114690612634,0.0,0.04831081967939488,0.15445527251001057,0.27190507419035015,0.3829803575896946,0.49859564587078387,0.6076088107414743,0.7134808511702024,0.8054959967972914,0.8303561769328405,0.8128275050340399,0.8255285057077217,0.7936724484813915,0.7436044212262303,0.6710145558285174,0.5955427717579003,0.5287361600759164,0.4789672146864943,0.4893432060344116,0.5679189606718835,0.6554997675752201,0.7355695945386733,0.8034601099549818,0.8491817223559219,0.8530360004642707,0.8429144733006138,0.8429988639578077,0.851573132524627,0.839978951826013,No
0.9684849809662213,0.9141174519474475,0.8849848818617527,0.8388178096573355,0.7659133445809481,0.7647971981013364,0.8145949905521728,0.864398345198647,0.8764214151465066,0.8703474662931767,0.8652861802695404,0.841258739893552,0.797504646565343,0.7435771844769028,0.7200830149941893,0.7072699587523785,0.7101750098193689,0.7117645633173577,0.6941061453789823,0.6575522990495113,0.621004987614878,0.6466862483061084,0.6982065962592414,0.7371995872711725,0.7765950708204987,0.7882420431094275,0.7964639800050177,0.7791037603359805,0.7209807108797093,0.6333174177625627,0.5314971294453019,0.4166398583532587,0.31199425248844515,0.24377219193875543,0.31311046583634194,0.42489948967556934,0.5293147080493021,0.6389486080584152,0.7413177743562378,0.8401269616412113,0.9161914340944173,0.8913877031048019,0.8404820148033583,0.8159976192392122,0.7601942362616554,0.7109753369870226,0.7449629811595617,0.8136923287274156,0.8632551132454944,0.8931865076593093,0.9095379046175935,0.9415685755193186,0.9406739451983603,0.9283019738830358,0.9099711061199987,0.8973478211765289,0.8786540536987788,0.8524548911282213,0.8165292261219395,0.7575452264089808,0.7208122513400963,0.7406029684194078,0.792083592774167,0.8187445995809748,0.8399426117789108,0.853939373079756,0.8617439820986408,0.8232587560440265,0.753368054881403,0.6672641506589989,0.5674367679839429,0.4612216797794195,0.3561184436142968,0.2590404012959473,0.27396560829412486,0.3812525581811932,0.48660447710592525,0.5977106723864138,0.7031770558066235,0.813843565794024,0.8966985232478777,0.8862866601451249,0.8236938610633833,0.8094029260080471,0.7715928401355883,0.6954670272971377,0.6927483866107025,0.7425865321574814,0.7953290637065629,0.8112678731769214,0.8279827982899053,0.8498376373490935,0.8529676242370567,0.8536074376804419,0.8428507291676746,0.8399298388500367,0.8282135261461439,0.8301910311478569,0.8281224639982416,0.820139820306339,0.7827851371429104,0.7329733013518598,0.7433727972326469,0.7916123054178232,0.8394666095423364,0.868781732940755,0.8807474818006753,0.9010671940849022,0.88476346602679,0.8293500175652699,0.7424280764365383,0.6436708208257125,0.5413269287932536,0.4348070405705178,0.42104897933505336,0.5157486514135448,0.6124203133477657,0.6837061379874791,0.7887433834651136,0.8924657760490993,0.9839367159259864,1.0,0.9471392395751161,0.9164332601667988,0.8860253907242561,0.8757195743108146,0.7875486623961789,0.6869334406616208,0.6048110711695953,0.5010939034114417,0.3894349147489069,0.3242967682894222,0.23726436808556972,0.13804823081504436,0.11106094025002244,0.19210303997942724,0.29182709080478464,0.3945224757515913,0.5032417558512763,0.6082912804460809,0.7089208103381881,0.7973778726127434,0.8473528977912301,0.8400014316320417,0.8205693090187887,0.817326659640992,0.768728443606395,0.7213429043890143,0.6764787068628939,0.675289277205323,0.7223139440108572,0.761620892428978,0.7717915189660385,0.7805713290687861,0.7845865068370164,0.7944435290476655,0.7880555431928182,0.8002499635636888,0.7888253779624668,0.7779771196776708,0.7641508844605918,0.7352178902025961,0.6883824806185643,0.6370864357112724,0.6065961312680601,0.6578419106606592,0.7329594018023982,0.7579329393428211,0.7725598298049929,0.7276353313271646,0.6240790508615852,0.5194333632085852,0.40867397747866896,0.304467374464112,0.19045480546600446,0.07869630592815069,0.03605870245946541,0.10567874721420045,0.20522046004456085,0.3055563218243629,0.40562482110292164,0.4918216154650903,0.590063893830592,0.6878807326304774,0.7684706444989899,0.8053537786303564,0.7909865802032434,0.7837294556928502,0.7657884324635225,0.7364816983991633,0.6820936443851231,0.6509781527969172,0.6693467242681579,0.7307502366908434,0.7722254135098185,0.7933084936508745,0.8379077102210122,0.8481060489777956,0.8621777633081686,0.8735998982246045,0.8633912167354754,0.8480329111573983,0.8323086249883369,0.7973272259834907,0.7411655960230634,0.6709260953978742,0.626811798662894,0.6576376687512435,0.7281388022007316,0.7803407101770552,0.7925537693602589,0.7957179967905348,0.724103442510839,0.6336560645283216,0.5286495399111963,0.422135139425603,0.3128815704667258,0.20764404691133231,0.09641117560743195,0.0015555176568584628,0.0,0.09802831118900546,0.20148257189208252,0.30511760891481865,0.4130867379351497,0.5164166967226809,0.6159219102873923,0.700226962065273,0.7444053090136324,0.7413208550740267,0.7211865294113657,0.691665732642301,0.6520409707009724,0.5992066585540194,0.5558133551684814,0.5744554138625007,0.6200804319459512,0.654578920663039,0.6623887025734048,0.653054359253177,0.6678704140487288,0.684201678337387,0.7209887372792103,0.7787566314103733,0.8089434514727145,0.8266901491775962,0.8299357914698962,0.8075439781793334,0.7496583743048393,0.6991767602835983,0.6751056469072116,0.7233681891823149,0.8033652146663806,0.846832598233036,0.8670537015045792,No
0.7903483768051642,0.8125560325542067,0.8010283962613891,0.7820126614292575,0.776785391895888,0.7895619428509257,0.7872234212722047,0.7883206326374164,0.8005510681035761,0.7468325699538787,0.6875800827295437,0.6143854865347769,0.546773057766583,0.5097086401761239,0.5285739745053726,0.6108663491220554,0.641892147638329,0.682600377517347,0.7308635563553261,0.7740673779127332,0.7799200183626223,0.8080758991224397,0.9110728323574317,0.9521007505105779,0.8492297477610893,0.7177307366561676,0.5737573869839716,0.44583252011207763,0.42861425112665463,0.5622302993776915,0.6818602093369841,0.7742270395006337,0.8417043581250949,0.8411934336716511,0.8504371871386396,0.7843544972001473,0.7139629376577212,0.6958876900211806,0.7220134493959236,0.7782563683237984,0.7889015559349555,0.7765965206480088,0.7540173462967208,0.7543844934667936,0.7566735247959651,0.7776236027145274,0.8003134871272306,0.8066265776220085,0.7443663471010669,0.7037473648533559,0.6357613093215715,0.5536034424879479,0.5409627729517745,0.5865282120462765,0.6490454629670186,0.7008779752903589,0.7416710947251848,0.7412918365084731,0.7768506646924491,0.8265960820178564,0.9333583045772982,1.0,0.9266382899695733,0.7940321925323448,0.6550793878896273,0.5187724167611787,0.4229872011246303,0.514624643972692,0.6487198333872111,0.7591714997572172,0.8587212432274209,0.8556625315473569,0.8557650883006955,0.8513810947180125,0.7735664706258265,0.7225256452181448,0.7211813472440238,0.7447422465520273,0.7835589474292788,0.7762850727489958,0.7683681979005619,0.7559684328850298,0.7575860509942038,0.7684481413189586,0.7573026521482893,0.7866350073100605,0.787771326798929,0.7529091353983981,0.6901761475777795,0.6201277304826331,0.5946945641315611,0.5696714941309517,0.5899921794529406,0.6069266471852734,0.6309068435470593,0.6823079034108228,0.7043171969513673,0.7488703840922732,0.7453637980899832,0.769004618655492,0.8576843796345339,0.930374106602688,0.8738393791638828,0.7466228578356806,0.6149972740479726,0.4727163032199604,0.3833980337384575,0.4750654762555122,0.6109628004786849,0.7280058077848603,0.8041963344132652,0.8318969974653871,0.8493014528125356,0.80934051431875,0.7449061809236404,0.7162922636694948,0.7273027137158401,0.7745695824240282,0.8203973561120046,0.8332843076897936,0.7900609259899785,0.7761680964700095,0.7969202726109756,0.7986660151976039,0.8199719509635357,0.801493732775171,0.7370160817324329,0.7012489877532331,0.6963854088866754,0.692171296698175,0.6971820121559325,0.7008013256476779,0.7237432438402598,0.6981782415258522,0.6458922339759114,0.6169347022719678,0.5883639840947632,0.6494275837669301,0.7219813640511958,0.753625912772312,0.7419066566152761,0.6689309507512684,0.5463585016046846,0.41113967185766676,0.27230951852697105,0.1439403466339897,0.11066034818383663,0.20285292002956856,0.3346384950661765,0.47033513113373937,0.6185491996445598,0.7327423192884499,0.7017557883916758,0.6752601039945998,0.6693895764172528,0.608085323806737,0.5919869585898834,0.5591114375873225,0.514310471502998,0.4541649896891382,0.4261719375161328,0.42427375844731374,0.49658978204638027,0.5457209887211398,0.6252250216602557,0.6861931216340982,0.6805395500872962,0.6627296478976672,0.6611205392193664,0.6579445726552078,0.6478374864577927,0.6758065758043239,0.6868143450033668,0.665711733563433,0.6224609728556216,0.5704687726928386,0.6244811510550168,0.6822140770606286,0.7501449268001936,0.7584934184136771,0.7513299582609636,0.6414696282672225,0.5103865382672694,0.37385831685622417,0.23571416826126423,0.09432594957539031,0.0,0.05269429443482654,0.17645916547329943,0.30962161549695155,0.4470994643144075,0.5742844980237711,0.6810245322672355,0.7357225942079282,0.7017568329456627,0.6636092957605579,0.6512007650379492,0.6421932459280897,0.5899861398298794,0.5369463530349492,0.47347474363710296,0.4301899303853727,0.46603648883383597,0.5346651899797066,0.590219772568791,0.6485179882197816,0.719624485965273,0.7139191471020401,0.6964733518635242,0.6717978460645555,0.6737117506760866,0.6653675899468112,0.6773206101851064,0.6857159436057683,0.7033484805690646,0.6399914161222502,0.5848180785963648,0.6163486984682698,0.6411950576788312,0.7084821641898906,0.7402524366051559,0.7197724533436269,0.641805458726501,0.5432132404706671,0.40670672966932564,0.2628973676099795,0.13002570509536548,0.009876681978593371,0.0230727359493188,0.15021465255936173,0.29676073695076655,0.42934808344476894,0.5743589364687081,0.7035603130824515,0.7228088802472348,0.6877687332337845,0.6792630357059193,0.6508770627216287,0.6127773673773182,0.5694598436397795,0.5062674987712161,0.44747614858897666,0.42472761327799313,0.45773135685434063,0.5143940552313229,0.5964127059733433,0.6609433292619902,0.7056896646140829,0.7029728245589073,0.6920668686212204,0.683439265265009,0.6910921287068796,0.6883560802448501,0.6973611254137775,0.7145457110727826,No
0.8685832170261976,0.8780177422147659,0.8654558731352884,0.8255615881403262,0.7764858977886546,0.711445971933502,0.6501074213250964,0.6296723053901516,0.6771297499650575,0.737009932176024,0.7889951088561498,0.8243444152413977,0.8282953469866512,0.8294312443806033,0.8203055347893549,0.8076923518990786,0.7913724391288368,0.7301978995593732,0.6541777485228222,0.569355738949624,0.4649651480329995,0.3678302398535469,0.2647999414121853,0.1902609895666365,0.25167034118675913,0.34806685690430417,0.45386800300059216,0.5534530615724926,0.6536365520428618,0.7504254384438429,0.8138649400875759,0.7872863415450615,0.7340298539326242,0.695207154788466,0.6468149229284212,0.6044208983862633,0.6240493077765077,0.67340801294548,0.7031931211073044,0.7226172755251468,0.7297873800001962,0.744246510165901,0.7539629801412708,0.7434778231105619,0.7531295165806156,0.7694782639849636,0.7680614602386919,0.7622308400580078,0.7199077550294231,0.6574480688374362,0.6078074423196607,0.6373532269706552,0.6997645976375884,0.7595328886219077,0.812768512733085,0.8514792039547472,0.8751889630205305,0.8736646192686828,0.8586642232306674,0.8497810179555478,0.825910996502063,0.7606660803207115,0.6650417752981856,0.5688671886310366,0.48136924598989594,0.42350411630244844,0.4959509744459649,0.5925413955161716,0.6902623900370939,0.7905240672939238,0.8740727706009701,0.858950963149002,0.7925193242970554,0.7618277300449248,0.7201359059832946,0.6550792055253241,0.637754816598441,0.6663459128048577,0.7049777752995716,0.6980495823399351,0.7077299126191576,0.696242775341199,0.6618862848891855,0.6735473952665441,0.7053945116989455,0.7141018235911711,0.7132703128029934,0.694332109943804,0.6537555016114043,0.6021244930010377,0.5459609916298112,0.4881700407730696,0.49644793466090187,0.5514432823523485,0.6214684825298296,0.6812972535256301,0.7160308600332437,0.7505128176263232,0.7575557570577347,0.7657790025088427,0.7817942091510877,0.8099628977512303,0.8072099936069894,0.753064890545426,0.6513351128018288,0.5527986176369875,0.4642773681058565,0.48604242452187263,0.5864310238698294,0.6826690899870558,0.7792401340246027,0.8728210473117199,0.9637403317574802,1.0,0.9453996443070811,0.9352028881914265,0.8900508471124744,0.840439460444578,0.8448956009677295,0.8738149291278248,0.8889996152164326,0.8940120461489887,0.8758737824308631,0.8311604379504165,0.7682021571287443,0.7644793067309985,0.7733644377046032,0.7680110466655483,0.7450120652476797,0.7117644590565466,0.7078348705883966,0.7568903295421601,0.811130194744019,0.8157576784431719,0.7899169838936002,0.7048511492173617,0.6052737400669104,0.5073968472279979,0.4013948850526061,0.30325529067659884,0.20368581400700547,0.15078660414610723,0.20809687742045435,0.31124236126463,0.40898147691270426,0.5073687046074529,0.6040029703686471,0.6733897454193833,0.6717690476175537,0.6501331693969843,0.6387692721882359,0.6305207239862276,0.608107959258863,0.5702367683232041,0.5180847892550133,0.45577530138812383,0.3915257667769829,0.3513367954103459,0.37430552257001937,0.43187638381831484,0.48590883053827705,0.5408910333438146,0.5744171395930673,0.5814950327511466,0.5778875924820537,0.5601899099662266,0.5424732554765868,0.5504391493892538,0.5711355032005403,0.5670473239114928,0.5735455982709876,0.5447121411791147,0.5118114749294946,0.49334605118709307,0.5478988359009138,0.6109405458608776,0.6487535587875666,0.6712808347881021,0.7194454473317946,0.6614875767894763,0.5643892032487363,0.4581843108833761,0.3585407352145098,0.259657962138087,0.16340152752123682,0.06441758681341647,0.026073729981280103,0.0960424906991102,0.20054903268429025,0.302615191583663,0.4003739991636466,0.49625951627215814,0.5840228469121223,0.6668335120491653,0.6950310751236315,0.7102282991305757,0.7304864643454922,0.7368408397942159,0.7114976211640704,0.6773807314870841,0.6237990657744019,0.5610511439359938,0.5040212287404024,0.47228476267976793,0.5133813854597822,0.5788024598044776,0.6214306180387936,0.6345250933974778,0.6349628939046981,0.6140504866204628,0.6095711864667863,0.6256702781936223,0.6109353371096682,0.6053949027575225,0.593097281778673,0.5693440056892487,0.5252520787923718,0.4887540415430549,0.4992664061348573,0.5495341323153817,0.592993723259148,0.6213660482540431,0.6664851217344427,0.6683149349670039,0.5717516252264541,0.47352715677737933,0.37167162497536577,0.2648502145053637,0.15887211174167204,0.06455164632103871,0.0,0.03546209621595908,0.12795673384683526,0.23019731004610522,0.32894664535839135,0.4301799592108577,0.532587370029987,0.6122134213844252,0.6577165727202776,0.6694784036199062,0.6835824898110259,0.6874317439486308,0.6847090357611085,0.673007781260853,0.6312282892104464,0.5674782362500563,0.5116354263647902,0.487086825364611,0.5205893483029826,0.5839929387952809,0.6448259761131108,0.6927895899259924,0.7357078755925537,0.7480844061446761,0.742067958616623,No
0.7935235312738702,0.7804203710723105,0.7898984413045773,0.7680039855616254,0.7379115590797727,0.7587164886529503,0.7516960611630261,0.765333082384787,0.7632087723463212,0.7736088736972131,0.7502784351583309,0.740578347636677,0.7002486063237354,0.6265999030444598,0.5517903831073907,0.48611085452153224,0.4786946533109204,0.5169917685928991,0.5926496444350171,0.6382154687713038,0.6764228634225398,0.7207650674304777,0.7536723718094112,0.796426331977619,0.8651629379593349,0.9538859353418476,1.0,0.9313927154982049,0.8259982229900902,0.7085889350235912,0.5924077361069502,0.48305701281392377,0.5132726936371079,0.634081104688359,0.7477435335366835,0.8416118521431519,0.8487694828723411,0.8243045082112981,0.8304650991176428,0.797523023461955,0.7423962685204542,0.7356742891648058,0.7697586249290143,0.775303541576823,0.7888261230221598,0.7872484647757467,0.7899334656142032,0.7742350931674014,0.7796683976605672,0.7797018834844143,0.7689790013385718,0.7709610755948502,0.736773108054896,0.749546189068147,0.7409953924857109,0.7817461912616741,0.7832783209449024,0.7737066528023497,0.7733073602817844,0.757099985764838,0.7046100258572632,0.628769976261816,0.5490007824451757,0.48264481449364016,0.48647755321263286,0.5208756152171574,0.5847359071568179,0.643602688335692,0.6868890032943984,0.7160462218089436,0.7371509984786901,0.7516122287025198,0.8211135578536828,0.9153636734252482,0.960942593226707,0.8976180046750604,0.7866513687821683,0.6714207589315802,0.5464188340421443,0.4350510329451063,0.449949804641836,0.5632400553254389,0.6817765541122833,0.7774485574642842,0.7943149523950881,0.7908909584082484,0.7829350848171264,0.7790800802000941,0.7171437476268516,0.6982643005654268,0.7047227674961798,0.7466835209304032,0.7664480510180138,0.7757111568168158,0.7944647841060934,0.8147914683855553,0.842721105232271,0.8136470192864835,0.8146905493978505,0.8296521698665358,0.800740201496422,0.7780745618206169,0.7773276716806796,0.7802975335211206,0.7534819531769967,0.7714621425239239,0.7782565242496684,0.7886640718711275,0.7726273570423134,0.7358704279558883,0.6686447137061995,0.6067462129664296,0.5564038210896944,0.5475392750142158,0.5750472711483363,0.5587522026481819,0.4780325198668862,0.3620914791032632,0.24245486805259064,0.2020352290503049,0.24911306792374122,0.36609857195311957,0.4288389948022271,0.36294172696816007,0.24699046689165227,0.20143157162851244,0.23240424080443134,0.3451712930599684,0.45494539129444167,0.5285133372773188,0.5830270414790655,0.6495409526056752,0.6961615827130392,0.6809665291605209,0.6890198092968758,0.685170283563584,0.6753001423828584,0.6745444498561901,0.7011364728354446,0.6990877099860904,0.7000354676662193,0.7306503270307956,0.73321747788227,0.7347191048251589,0.7469519938211859,0.7429066797715755,0.7213800568513968,0.6913255846374269,0.6663518476350379,0.6651629241648136,0.6224947468944704,0.5827729648013671,0.5878259272730681,0.6348875843034167,0.6968581301666821,0.7080677185839916,0.7045171810352224,0.6781802389097731,0.5715662310718144,0.4561976340203384,0.33543176527790886,0.2176799381379766,0.09363485786683334,0.0,0.017942529338561997,0.12860977258313522,0.24416582375912865,0.3724062955668681,0.502271717113655,0.6226509022573641,0.7420081456134096,0.8354658804382784,0.7919226736728473,0.7150618232010197,0.6579461748861473,0.653574638616218,0.61066349867153,0.6002680049909626,0.5717747266736262,0.5291435289251121,0.46266998686815164,0.4186943487027155,0.3755499559046367,0.3908951169010586,0.457785047582115,0.5333548231556344,0.6114602228427644,0.6778584013327618,0.7050172603244129,0.6998689797456237,0.6797443293159033,0.6826025599100607,0.667904170692156,0.6816027602614771,0.6686961143596442,0.6966384803937187,0.6973894366024895,0.6878376365017838,0.7052825009732384,0.7038869654077184,0.7039933997455354,0.6967140172161339,0.706361669644588,0.7097800842048576,0.7025113824580491,0.6762658200578358,0.6335628744826547,0.6435745264295316,0.7096283646535242,0.755899165518712,0.7281184200609516,0.6946846840710541,0.7371165650767768,0.7277340589614192,0.6100089256065995,0.4814374815166862,0.3654176532029929,0.24098106524110596,0.1279003736406117,0.060730524242558204,0.13033698636134305,0.2457692851753568,0.36873522107688306,0.4843189887629964,0.5994212034890709,0.7239294461436008,0.8375483376764605,0.8850802256078865,0.8046167619930871,0.7417352363529095,0.6767220950269328,0.636273687395418,0.6216821609611753,0.5906896476947288,0.5586221467745744,0.5010090340180136,0.4403094892678361,0.40405424693494485,0.4042889120672548,0.3924001791503078,0.4589989853506875,0.5356388157419651,0.6160006756564012,0.6656192312225371,0.6767462862953764,0.6880931644919572,0.6739196346927505,0.6543234460006477,0.6501891832254385,0.6763845777244422,0.6844961824089357,0.6762902220270295,0.7010250853132205,0.6769970959836642,0.7179225401348925,No
0.9379145383237701,0.9573435668327788,0.9614348144528493,0.9289542731451492,0.8816101424518625,0.7816780635646867,0.674855916906659,0.5678803388449776,0.5267695248792488,0.626649256543931,0.7337238162670543,0.840287031391048,0.940803358266872,0.9984891205315214,0.9950779848874167,0.9487572860788545,0.8821713006204099,0.8532694829804064,0.8972721277712075,0.9570224150486255,0.9810191720123629,0.9831886822480116,0.9682995999730148,0.931519132106216,0.9156454142009482,0.914471626074473,0.9177297846326997,0.9107830174404059,0.8875826678803045,0.8447325772003169,0.7909350594535165,0.7161519416813613,0.6589077369763676,0.6901226822352795,0.7544105652198203,0.8262446808341064,0.8798516172871191,0.9174999617621231,0.946304103981316,0.9527616431962467,0.9480690826148725,0.9120820294253718,0.8246235446978294,0.7184018967147332,0.6100988097087812,0.4989001517011502,0.41561857966486215,0.4786351018368151,0.5886272733128739,0.7017745781143447,0.8108841180405881,0.9247986637917447,0.9795918761844429,0.9616769548420807,0.9047523701939331,0.842283600959072,0.7933114848213796,0.8132248511958942,0.8626298671692965,0.8823817354430759,0.8773050706319232,0.8593286279725074,0.8613564983254713,0.865359947791041,0.8653852356019023,0.865371483667337,0.8616587102112003,0.8316893420627038,0.7733367116773335,0.70034676732296,0.6325354613136986,0.6388583766056453,0.6987168033551177,0.7660258939086462,0.8253319092951377,0.8763168272860242,0.9123995044283042,0.9374483186042131,0.9512122143173323,0.9303936926824736,0.8651098862038542,0.7675393432075954,0.6601822647955053,0.5473561868976962,0.43701239091183774,0.3796849831753084,0.4661797885472416,0.5847576103200098,0.6936027164234351,0.8057175836371333,0.9081526488605478,0.9919825520196661,1.0,0.961374547269926,0.9008438080253187,0.8486380266720386,0.871448371341943,0.9272553826355563,0.9460089835674643,0.9297662249351921,0.9101813007271158,0.8952067479171042,0.8894642171091269,0.8927159305386994,0.9002205137124424,0.8989325604207843,0.8738339450022932,0.8197291372199151,0.7459257471889047,0.6751487853902374,0.6229871987369417,0.657646324946882,0.7197544866070533,0.785645402677654,0.8462324602808855,0.8893361782155269,0.9165018241731979,0.9446175156113044,0.9445654727451567,0.9052533916694583,0.8956596269712747,0.8706249924068623,0.8407281405769642,0.7974997979294476,0.7341002640217478,0.6675024757404193,0.606813997977881,0.5662305226449922,0.5890117031257924,0.6560248649063896,0.7357172871769295,0.8015930674295508,0.8446983657586324,0.8578637177289234,0.8478139160979419,0.8324853127948497,0.8386458263949765,0.8535470181600191,0.8746115713643414,0.8932678161618259,0.8774777373351186,0.8232589837687931,0.7875727553174197,0.7987900323976715,0.8582972040137209,0.9259908342078425,0.9506019710034717,0.88315489620107,0.777785756640732,0.667653317358913,0.5462288977617931,0.4252001340438958,0.3157839827884019,0.20457595840810372,0.09367327892477118,0.0,0.010041875095773811,0.1094583577695678,0.2281342051348858,0.3370150678468806,0.4515434389434918,0.5610260939544376,0.669803792008441,0.7864114708490701,0.871213060583822,0.9048922869576681,0.8867021029717637,0.8560311769994331,0.813715872050873,0.7596837982970439,0.7001815203292643,0.6278531189433032,0.5677150946379599,0.5564709226282458,0.6114847023264085,0.6822291717861511,0.7542742075531446,0.8048572747186302,0.822624408956572,0.8230541682869617,0.8129387433237247,0.8060219351242455,0.8076952706955938,0.8209242627203484,0.8314678302110514,0.8148370245065748,0.7637997484670547,0.7240940763520771,0.7213704052755276,0.7851436236140814,0.8510226995738845,0.9109899281373357,0.886985371313953,0.7867588294437851,0.678287253459124,0.5637391176315059,0.45484536129594355,0.33502364639520943,0.21815121053294595,0.11328169558186563,0.07474250275944216,0.16135942304844253,0.269653209408534,0.38851679571622144,0.4973744896016208,0.606204296709064,0.7154783994205678,0.8203800892578075,0.8886877445394701,0.9070993964886038,0.8915620697384403,0.8649967224369965,0.8263835550251177,0.7665007298393021,0.6969274976164077,0.6306439712207443,0.6009914469336315,0.6388132975826881,0.7081184863413701,0.7754738538331685,0.8277332836257156,0.8592073510905891,0.8736924089818521,0.8630064293435087,0.8589660270723729,0.8737545560196747,0.9055307237064181,0.9289037698453346,0.9250894363828452,0.883858956256669,0.8280134166553488,0.7773832121095219,0.7846256063865895,0.8487989874178976,0.9099696370721913,0.9356483274556333,0.8626991921554339,0.7586335629263106,0.648436186660569,0.5397279065811253,0.4234193678273406,0.3161933548484006,0.20870003825450878,0.10794695602467286,0.11448679857742228,0.21851463905095514,0.33934389416652344,0.44945387074317233,0.5642578943453334,0.6706633868375818,0.7758305327973769,0.8554151581475828,0.896261844208396,0.8958275196921437,0.8733381291324553,No
0.9101107029969764,0.9107541401106312,0.9335678657575996,0.961027889042539,0.9647321186287814,0.9388454162469226,0.8883630709029988,0.8229954156578303,0.7491286242558945,0.678323912175937,0.6484635035386701,0.6975563516820056,0.7635917673895574,0.8290056481648638,0.8782888298484484,0.9157957410360738,0.9401251251024039,0.9461744668392631,0.9191401788003619,0.8445735466686217,0.752526213731415,0.6732416599962188,0.581955517710347,0.5076056277707559,0.5759796396625683,0.6878622492975943,0.7905683052802337,0.8945147080402085,0.9768529370732193,0.9944272096311242,0.9783613655009165,0.9374572600640734,0.8669799223600385,0.8486174011546452,0.8971253340671785,0.9409290235489844,0.9479241742439333,0.938088537940531,0.9219227900783638,0.925436347759294,0.9158498171016933,0.9078557341227713,0.9273938353067102,0.9586660263704971,0.9721900713144793,0.9499251498596004,0.9043123882084105,0.8333559992578772,0.7570651497089365,0.6822067038754016,0.6196018963397647,0.6381227043608748,0.7002817036782452,0.7673856258687748,0.8309049051957917,0.8704559013802895,0.9005776750437555,0.9230945642564985,0.924239241417806,0.8757638679375346,0.792710775715294,0.6984222684325545,0.6038428551928281,0.5579002548299894,0.6358974254918681,0.7230191313549661,0.8208443810094541,0.9206370599050706,0.9805394286899494,0.9791156375391197,0.958326270742148,0.8976206151806696,0.8742831692327735,0.9180462465105601,0.9607024681731591,0.9727193556011036,0.9687878954035714,0.9656936177195681,0.9505031024383157,0.9289432119732732,0.9246098968481411,0.9492873041276371,0.9819288257747718,1.0000000000000002,0.969722240779306,0.9179939411465441,0.8499790157923723,0.7761703250147505,0.7078240146247248,0.6430092907272125,0.6466290692836114,0.7040280655012066,0.7627691804704366,0.8220456194459149,0.8677830699362954,0.8955690472582962,0.9159929332733354,0.9183152635838641,0.8749513330101217,0.7946476629271026,0.7006316670685357,0.6000527961403692,0.5110969519480639,0.5559729123280774,0.6569749822173925,0.7670619069659941,0.8691055009292057,0.9604731179754296,0.9866996836820194,0.9824428209955351,0.9488887580564589,0.8809541799673049,0.8643012241676422,0.90803612683454,0.9524058487328964,0.9536419854858289,0.9264525503721737,0.8998445491302289,0.8786472475883016,0.8294457922254053,0.8092118754565043,0.8498323591461732,0.9187836461227816,0.9283655654505465,0.9041926308500983,0.8091728942565302,0.7067846678266789,0.5977432817151442,0.4947873960495104,0.38204402765599954,0.2750578304143383,0.16897557720296152,0.05840125567887311,0.0,0.06506844282951918,0.16650126235451168,0.27921652136530906,0.3910515949705411,0.4936416541945412,0.6004180166569404,0.6913625440320728,0.7797863172538511,0.8554691048936627,0.8682183169306239,0.8483323832474092,0.8165057800024991,0.7694437988699956,0.7069038110062615,0.645373823258417,0.5924567658237623,0.5737430247672874,0.6227379442803518,0.6917568045125206,0.7670812769019657,0.837340604951615,0.8989548215221788,0.9354510096427868,0.9272894542970838,0.8955671717435101,0.8700747545791161,0.8777364295563952,0.9032277578144157,0.9121000213191384,0.9185958627221062,0.9245119012928977,0.8988217150719084,0.8506416461634256,0.8126175871937982,0.8342999059977598,0.8982453774792629,0.9316210648729133,0.9069226967495438,0.8137841116017948,0.7112288400203675,0.6026376213129259,0.49660992106452384,0.38960222030893576,0.2760396279214423,0.17067616605223934,0.06600979262748474,0.017071507724104373,0.08958150956899358,0.19195444620984636,0.2969857706080443,0.4011446667201508,0.5146030001573425,0.6257029714470586,0.7181012346958957,0.8031385575566812,0.8676847531085878,0.8700317390379053,0.8537448766382012,0.8189753283357211,0.7750258844088698,0.710912319490242,0.6425388221626853,0.5822390724400133,0.5464367762921081,0.5787684733404481,0.6441418262491709,0.7205240913971338,0.8017747342131913,0.8700985139483344,0.9094969752132933,0.917067335650356,0.8904678904475738,0.8578922396081679,0.8606966680722599,0.8761205371677894,0.8816518937062809,0.8913633704879647,0.8961542556368232,0.8792269706697076,0.8295116131987192,0.7910807769502612,0.8007222213511096,0.869022169804589,0.9317726755829912,0.932589712886662,0.8610307885256179,0.7555134235011034,0.6523434186843027,0.5421177020354946,0.43426083383914205,0.329000847540623,0.21717332212839868,0.11574109917007824,0.047621643080517195,0.10069158593242533,0.2056203695623544,0.3096953013870585,0.4166588150963244,0.5222828444551053,0.6347094939737763,0.731546712626397,0.8197133060848343,0.8871403249975895,0.8928054778778625,0.8874388660369743,0.8593393817852231,0.8099834762786255,0.753791152272836,0.681894662950534,0.6204059008342597,0.5859711161971519,0.6160167053418266,0.681685917872479,0.7567524638846985,0.8291938080690124,0.8855863045605645,0.9157086548034161,0.9041142084757403,0.8737891492640821,0.8597170098409712,0.8668733915127513,No
0.9444738496564473,0.8811968117993092,0.7962799147024895,0.7017151669215353,0.6014312226902216,0.5018115897315321,0.41866666196601177,0.35976410532177105,0.4310347506269636,0.5469660249799584,0.6534316453846278,0.7608843011695057,0.860743272625228,0.943264757582627,0.9939306901115224,1.0,0.9688397836529279,0.9189328059312412,0.8719744471075579,0.8739737511900043,0.9211593533107472,0.9585924782197699,0.9632824569840577,0.9437234185039953,0.9616329648017974,0.946435123282392,0.9417917739559836,0.9430307001882712,0.9576753679791348,0.9459374138587009,0.9351776388993374,0.944407383332996,0.9462900895024218,0.9487166137715222,0.9273128619560791,0.9326984294482741,0.9255408893066837,0.9238574564926334,0.9179386119344772,0.9222999211299583,0.9194774044761092,0.9122436142790216,0.9359916167444942,0.9084592269868037,0.9065853131410786,0.9308642659731539,0.9452904326639349,0.9125763157133062,0.8661820966773002,0.8194523103581504,0.7630150501390798,0.6829501683250316,0.638666192599882,0.6591904948751686,0.7095910029712837,0.759032783684269,0.8290337051329146,0.8692896083074682,0.8881559880567509,0.9104017317295003,0.9409644873620437,0.9448847725640985,0.9316708800975491,0.9016727241374998,0.839695127359426,0.7535365695742637,0.6539774065622463,0.5630207545926167,0.5075392139262513,0.5529014219049597,0.6584980520208306,0.7742710236488586,0.8701941108751079,0.9459155102954835,0.9788532452000251,0.9805105602312767,0.9344431479951978,0.8835352931930296,0.8568137576991646,0.8890034594843894,0.9239565525986047,0.9305322226604069,0.9377234583871439,0.9566831890485039,0.9483515068606918,0.938077187913199,0.9337423377258185,0.9474290289602769,0.9659021209693863,0.9703180375563472,0.9589735782981106,0.9629930480683009,0.9423270108861126,0.9481506787066873,0.9356707969917539,0.9408791505025853,0.9315947204620008,0.9080197930668286,0.9095498083240736,0.902741506159833,0.9062611226524515,0.902728534806597,0.9074543123695267,0.9178066553724515,0.8952001396984612,0.8526267608437981,0.800434514960938,0.7294827961442398,0.671661991468445,0.6199080078240016,0.6173112647713457,0.6718820514343773,0.732278378726491,0.7913492162819287,0.8421186255118331,0.8851815265070524,0.9196786755515571,0.9332360170734559,0.9436986269145948,0.932773207602998,0.9067381288900966,0.8493639797772272,0.78275097652,0.7827999224311135,0.8474659249700109,0.8753139112058119,0.8747209903114519,0.8749119974747264,0.8564560681998232,0.815953069418605,0.7684121885792661,0.7115003390049708,0.6530417679443761,0.5920800560881614,0.5455577873502486,0.5395064887301504,0.5888046939910598,0.646333918641723,0.7100911717256619,0.7726681930607366,0.8206846126357532,0.8535020575246239,0.8420126682748292,0.835955620436375,0.8306842319702978,0.837533466621676,0.83833230790064,0.8466520778411835,0.8554677956181167,0.8611434891670902,0.8752023552371075,0.881327601520713,0.8796579838683978,0.8831194397308475,0.8764657820088924,0.8957228052710211,0.8967158380711777,0.8776786976711288,0.8736560477313993,0.8706066136131936,0.8738279536569653,0.8860386186080653,0.8683714868528178,0.858673915764641,0.8550321705535322,0.8175674927879859,0.7815844666703682,0.7686735998305645,0.8122243684209511,0.8703079752299834,0.9082386004200664,0.8849720580522873,0.8280822239810997,0.73856324464316,0.6288947306527111,0.5195937308227605,0.4141684907270542,0.2978722153253459,0.1848308542261834,0.08611431322456742,0.016078840551403406,0.04191043268685535,0.13901800431662492,0.24775332436859632,0.35249644488620957,0.45231835194593106,0.5257424823807364,0.6130125621583282,0.7174777687272345,0.8138570611120008,0.8597824211087071,0.8724519813875165,0.8739138929470522,0.8457929942866915,0.8098817959206102,0.7950954158520545,0.7478845023068046,0.6926680886766068,0.6424860014331997,0.5909343550668567,0.5677473762948213,0.5931531052980117,0.6523516621480523,0.7246839754138352,0.7756957511102431,0.8251204713852642,0.8434973107416868,0.8419196655877399,0.8327805676600266,0.8305060227823908,0.8322175928304096,0.8382459202255617,0.8438142018275232,0.8397421318136553,0.8628710616608304,0.8729114284027784,0.8605129679456183,0.8529980018307821,0.8554905960301324,0.862194078651898,0.8723020146078371,0.8666104754659725,0.8558271274689511,0.8543514063077562,0.8687759680109872,0.8736255837807727,0.8775738673097293,0.8716773750335713,0.876628837862842,0.8640010283686226,0.8221268511405384,0.8034208808509629,0.8064703815039329,0.8553241428242888,0.9063720989788755,0.9208260408565478,0.8679029252480208,0.7889872713802295,0.6803900581259059,0.5692459441802731,0.46534204602896034,0.34938196534438104,0.23271371976905408,0.11614864904847355,0.014477140022827406,0.0,0.08088549903579967,0.18400813188115173,0.29141187474274766,0.3843048219205434,0.46591945608905494,0.5650819706671513,0.6673101423030174,0.7746389688624693,0.8453670688433013,No
0.8064710950754304,0.8318965791785269,0.8612093072906095,0.8614869623849453,0.8685668711498824,0.8582346668162311,0.8518365740847367,0.8526443900597727,0.7923589353113085,0.7448886926133476,0.7575822101899119,0.7386790701416963,0.7509375077568023,0.7697825810426782,0.8441853634451784,0.884789426227858,0.9113238018096936,0.914376881703455,0.9342326102570597,0.9118676695814738,0.8936859969597943,0.8606078448975305,0.794239438546982,0.7299182153678503,0.6949983705252194,0.7276785506597356,0.7242185554439109,0.739313707453574,0.7597618639952772,0.7517641164416151,0.7611754692276778,0.7845190311682968,0.8041016029773411,0.8161257282300536,0.8368865197459705,0.8652933233019064,0.8067026364760883,0.7043616427444181,0.6082084970147026,0.5943264859318758,0.705690778517722,0.8326207277794939,0.9009002084478075,0.9522642002182646,0.97985682130928,1.0,0.9964881706104114,0.9563539808537831,0.9032228271552176,0.8756543007233306,0.8757299478884706,0.9272046275371517,0.9276953570728885,0.8987570494351926,0.8897632383680243,0.8620989562318693,0.8495480134109723,0.8020363404203685,0.8148625794104403,0.8149797407854535,0.809747653611919,0.8115660555825785,0.8128262592861466,0.8566531190272277,0.8290079123091996,0.8417311560107352,0.8338645027639178,0.8121485594311997,0.7620738646334786,0.7127345891084271,0.6998711224896779,0.7206105728791865,0.7173573580933308,0.7371321517282787,0.7626673610246861,0.7888995536884602,0.824910488562467,0.8212562388296449,0.8160645357693754,0.816330311658759,0.8332577248885737,0.8621227440691701,0.8155626885132579,0.7093410010969183,0.6278970852416483,0.7037177063605347,0.8136385052986306,0.8675866951059508,0.8826321830385826,0.9165238302147793,0.8989266348682694,0.8750182439917804,0.8424827067323664,0.801185178287291,0.790819950840695,0.8260095049286296,0.8643906619061248,0.8594015816177185,0.8691183366801143,0.859232326929364,0.8683245877924479,0.862555905621547,0.9055469728256478,0.9096371234094489,0.8973404391334316,0.8833684755310323,0.8952834350018026,0.9235920231354733,0.9410942689067472,0.9453163856514637,0.9474061655601274,0.9383983645899949,0.9202305382361464,0.8880375989872489,0.8197635805122099,0.768899799540427,0.7977655232034184,0.8046200732302893,0.821754473761013,0.8429168772351749,0.856627172261474,0.8007545585136766,0.7567797066061823,0.7311990974783669,0.7007378110639655,0.6811001891669841,0.6714445135945271,0.7007624006673634,0.7680316663931555,0.8160032404343385,0.8405948692530316,0.856886924577621,0.8370912752963626,0.8219594802032901,0.7914643732962334,0.7842333391574448,0.7673260504880988,0.8018567553385143,0.8049881609737044,0.7885920380171489,0.7640412294929337,0.7707738305328791,0.7421784338600119,0.7801049646639528,0.7690774896167403,0.7665546150303486,0.7428188934227435,0.6977376136892133,0.675492526745491,0.7035750118234967,0.7496062310837344,0.781198919992554,0.8034036775510174,0.7949953356154973,0.7609245265387194,0.7068691824740121,0.6042473243623494,0.4845370188165212,0.35440826059703134,0.22741298850529557,0.08625934565098925,0.0,0.05918432434179266,0.18995275418204338,0.3125440226590479,0.452085899988635,0.5746204700403608,0.6987195791714846,0.7308221150664451,0.7099540950535941,0.7231143496458525,0.7170780284911782,0.714867179890649,0.6995290496884534,0.6760138250659171,0.6616930134182697,0.6373862044668615,0.600964323829797,0.6026296659639314,0.5697299074218369,0.597116214635399,0.6496604346823807,0.6974452738665562,0.7324125129246317,0.7579985413775603,0.7256722407420035,0.7039560150774626,0.709786746977886,0.7114994529142038,0.7139920801058608,0.70093079069947,0.719625438745763,0.7117211411148547,0.7327924152905494,0.7607226984170365,0.7830107282724477,0.7763534431459576,0.7770101995174263,0.8182835630116534,0.7856229745468086,0.7710183948997473,0.7725517797271495,0.7993287178551753,0.8521856852911123,0.8954582352980802,0.8985807148680864,0.8716181728807744,0.8487581104019162,0.7917674900713427,0.6997502577771426,0.5853407005213267,0.461177484490503,0.3337868069894485,0.1916684041661303,0.07409399626820168,0.07255380577567294,0.17863092126685887,0.3129107817050105,0.43921716170437275,0.5710560382512355,0.6909300693336746,0.7336513829040365,0.7055432335307401,0.7037358668006757,0.6818441133462416,0.6904264386669787,0.6585337488006804,0.6482902227188037,0.6604305173363105,0.6440647660022352,0.6319044716748117,0.6117398108475909,0.5957849193303097,0.6250473400937162,0.6765353602828545,0.7440049674243818,0.7824408763751345,0.8096511752341735,0.8213115116728051,0.8055518154607064,0.7903321120801952,0.7243146724878917,0.6716009812570354,0.658353963303469,0.6526888706556084,0.6572027949897974,0.651914152104001,0.656605461086853,0.7018619257235192,0.7632838651441771,0.7637827900602314,0.7684084642286741,0.7658006440600627,0.7463493677858182,0.7254493428881919,No
0.8739453136390941,0.8302041517986455,0.7684854296168416,0.6958498311788478,0.617873320622999,0.5370085521848705,0.4585568527059013,0.37964937314428615,0.37808717427623717,0.4543856717856053,0.5388932365169866,0.6226675308054109,0.7001460892480073,0.7814251622051426,0.8587056412172039,0.9366959258598729,0.9628168743957738,0.9396023494863751,0.9288035654496459,0.894589574016538,0.8555333038124054,0.8614680518916561,0.8677081143474853,0.855409334928756,0.8541958210269619,0.8807958757441788,0.9311774196208934,0.9720628248969244,0.976051473690213,0.9684357625194137,0.9768274251789092,0.9888001832747576,0.9785839062871965,0.939660587484464,0.8843020832022491,0.8280530762968098,0.8024156213719079,0.8346159671656902,0.881191321059641,0.9258241140239533,0.9614962948338622,0.9787975330901301,0.9719025490860415,0.9391496793219191,0.8875582520871709,0.8247352539857989,0.7456504698345366,0.6611833419200915,0.5788378582615309,0.5103352373221693,0.5261091647626736,0.6024986018767847,0.686782332150495,0.7678005847315733,0.8457645465851812,0.9225152750678313,0.989671312521803,0.9968144393079778,0.9727476282165514,0.9632756553219332,0.9314663298114368,0.9011126469679477,0.9219048275846115,0.9446324163768728,0.9512338847155796,0.9526659464636685,0.9580004322743437,0.9597020542247193,0.9515695457626508,0.9340977071737436,0.9279513763901185,0.9399799957744513,0.9532791102689114,0.9461324934339302,0.9003882106844622,0.8475087963701847,0.8102723541157059,0.8328822684268183,0.8716891131247068,0.9111712298930027,0.9351724319195135,0.9439558476244655,0.9396032496144718,0.9080276072954249,0.8544182675327975,0.7821047012382564,0.7000430710389737,0.6225566191154116,0.5391028393119252,0.4606670996282306,0.3794858989017226,0.30936729571493593,0.3421888277753541,0.4254876223459859,0.5085376850811251,0.5858854410928572,0.6693906809300613,0.7534117527108398,0.8311931390047272,0.9100415846968323,0.9787840622347884,1.0,0.9714812135153953,0.976119952979755,0.9581509196705723,0.9324011137065688,0.9545700584601046,0.9811881798733691,0.9906586952954476,0.9869967244613599,0.9702948289766015,0.9431326350434238,0.936909568901768,0.9433599116611185,0.9300021301960483,0.9303079559437083,0.9386137006005523,0.9294041703301995,0.9078719894621293,0.8967757672391296,0.9011414046556246,0.9138850536404107,0.9011879461663362,0.9095182511060665,0.9363742723892897,0.9582297251734674,0.9569894260926805,0.940889384176716,0.9043472784792573,0.8969799234639625,0.9248885199151192,0.9384056478853408,0.941599065651325,0.9064331544392615,0.8296806834414779,0.7487344867354292,0.6702073024150151,0.5859296006509823,0.5017522947832062,0.4236081116231828,0.3420066425051177,0.2584598395059383,0.18110978131086553,0.10171498513975663,0.06284482151507143,0.11213385783799334,0.19518079289493306,0.2797573076357066,0.3641891344073146,0.4436745449009968,0.5237429941477861,0.606453685384878,0.6836792774458945,0.7616241377333811,0.8318737408173663,0.8861063995108563,0.9132167526700509,0.9087078812811286,0.8878777566799313,0.8518492489530055,0.8106951895959987,0.7780068415661573,0.7815443420104383,0.8267084123445753,0.8826071888494781,0.9229087262009271,0.9218390737413998,0.9057423170349831,0.90380129554395,0.9080935507156426,0.9211429483048076,0.9286984055804804,0.9243019868754975,0.9201161183757717,0.9170799119634715,0.9060473554086274,0.8717039407239425,0.8675293029940606,0.9018745226358819,0.9348973716670713,0.9454034380843866,0.9280727503392617,0.8606476194179898,0.7795866231045484,0.7022441813337567,0.6192612854780893,0.5347080096407067,0.45269422429197415,0.3748431484069231,0.29079303155620473,0.20689655338187862,0.12964630033475544,0.07115451807437478,0.10847839516684055,0.19073560140549595,0.26842751679376,0.350691830564661,0.43493539925531366,0.5133933153723321,0.5945908408905666,0.6764529159240086,0.7536908624976247,0.8280329806849583,0.8875788594896042,0.9340378939545132,0.9484316316176807,0.9329298265527582,0.8975157582164411,0.853554211395554,0.806918914329159,0.7719119796833885,0.7686873274505087,0.8141446132861684,0.8729402755730057,0.9294960192685003,0.9560754188206128,0.9501119335532956,0.9437645150313191,0.9379628244848665,0.9444224393757356,0.9127420247216306,0.8616869292999655,0.8291984422338771,0.8196126446965345,0.8249359211454833,0.8371376532971592,0.8224202574805978,0.8293588354704574,0.872461296558451,0.9020856509511178,0.9045148284671535,0.8830150514141871,0.8244052225897626,0.7500311402265362,0.6665541597186081,0.5869423278228657,0.5069901919559033,0.4225219043709679,0.3379435270618999,0.253365149752825,0.1687960389116453,0.08618573898076132,0.014099786990232066,0.0,0.06383087671428478,0.14604551485625294,0.22663733773750105,0.3056250954108729,0.38996820875845606,0.47168468157056587,0.5497178648931044,0.630822042266835,0.7075880136034106,0.7785563714298162,0.8354455033402403,No
0.860508260756621,0.85966197788211,0.8479682050780921,0.8531603153349954,0.8778465792517589,0.8776990477151982,0.8688264744712018,0.8351055254601785,0.7795875889856987,0.7129574061042052,0.6483772491172943,0.6255332554249908,0.6606022693130069,0.7144876202356678,0.761882973683135,0.7920086758283014,0.8188242967274624,0.8231499548413499,0.8250154929165894,0.8212962121933929,0.7711956477701123,0.6775399148707568,0.6575909685948531,0.7580173482181918,0.8403517823101252,0.8813912907338928,0.8614997081972433,0.8267644292662459,0.7776788947949314,0.7405482766672118,0.772776253866708,0.8338243969406949,0.880258079050122,0.8814297775332545,0.8839279402258793,0.9096466742672078,0.905517630759503,0.8592103231446346,0.8319871320106551,0.8109484720225124,0.8038122886513892,0.7910238611600349,0.7897028979013587,0.7792461186386128,0.7879219812423499,0.7767212083540631,0.7398765192742971,0.6701405603125639,0.601126737386886,0.5734115050068,0.6190153090973403,0.6724394479627556,0.7275660421062367,0.7661227147722833,0.787183148079063,0.7903135396903638,0.7887709751810954,0.8163408853983491,0.778827704089204,0.6827511791728784,0.585761793159234,0.5956671049193862,0.6953006534650994,0.7996922346999757,0.9012818470726267,0.9758914108046506,1.0,0.9665318403782495,0.9048306229291083,0.8516651352434117,0.8349659694532732,0.873063087038549,0.9132597002944363,0.9113812161218617,0.8612752112430178,0.8051496819358603,0.7751348744847912,0.7770066155991779,0.8207240823115045,0.8514311997441393,0.8692022131231445,0.88520877590897,0.8754802022486068,0.8431460771371007,0.8253127626849079,0.7958213981015447,0.7352122332366222,0.659361765709721,0.6213414708456688,0.6647024366435059,0.7222000439940972,0.7668363923326762,0.8092988227018298,0.8288262986663848,0.8364080510661531,0.8435612224197522,0.8682238661349864,0.8454598050604507,0.7485632692495372,0.6461638793482307,0.5553841517206033,0.6045145662059377,0.7191568450773445,0.8205033913403224,0.8959308254212606,0.9248843249761247,0.9040965953566231,0.8462737654786014,0.7862263373059304,0.75819147640936,0.7912968376439626,0.8485650611959854,0.8681357235862834,0.8686062823841203,0.8685973350473941,0.8652746770344546,0.8377608672973937,0.7955738014246978,0.7980040453218109,0.8021267248975699,0.8021429841448628,0.8003277068980896,0.7724413291080725,0.7246084282677181,0.6793039870178226,0.6903220633866449,0.7350092738215275,0.7983611338307846,0.8444868336899525,0.8348430274195082,0.7527326496610609,0.6411188046534297,0.5288810373289663,0.41663947160230785,0.2967091170190499,0.18999167577665999,0.09290825043643469,0.09488178409209969,0.18985788038787899,0.30419294933819563,0.4209863725784233,0.5292535171619597,0.648123558422594,0.7451842480798372,0.7699791975260664,0.7736615251317542,0.7631755410083412,0.7443199275912793,0.7030656856884541,0.6554947511562026,0.5963414292934486,0.5576506951331872,0.5601705536017083,0.6276919732993442,0.6923776976782423,0.748229343407735,0.7607434764424625,0.7985037540008855,0.8184757267605445,0.8034208596905774,0.7869373938927544,0.7545626141793478,0.7156063754787945,0.7049051422911781,0.7110856101133423,0.7399723447636513,0.8017651445886447,0.8449909055544378,0.8190894678623595,0.7757793945559293,0.7575923156082891,0.7878833151123841,0.8472355506122957,0.9097327039840626,0.9155027174306256,0.8431481669276439,0.7509233735687388,0.6476575134877169,0.540632786025975,0.42027452293110024,0.29839059804877044,0.17655306615691435,0.06226610826489409,0.0,0.049531610361978284,0.1615865828478804,0.26863131027461273,0.3872989477915283,0.49582905535417865,0.6057391501114111,0.6896060062707923,0.7170994420567576,0.7138007957167503,0.7120325476195775,0.7025799660433019,0.6610627402561509,0.607250100005353,0.5526716225886616,0.5076848516449064,0.5065303145212732,0.5603835732299234,0.6356916719933392,0.6999955123801929,0.722517179385544,0.7172900300482183,0.7156413240905017,0.7226220512394925,0.724043000671831,0.7316038410630812,0.7465576518112722,0.7702352588090537,0.8163336054598331,0.8445039327477364,0.8241584197740353,0.8142659716932998,0.8134423239967354,0.7683793140527144,0.7077138102493992,0.6602844257458256,0.671704849571614,0.7188366155077941,0.7706601199079159,0.804781121626748,0.7866371025759191,0.69860610929336,0.5894691071564577,0.47755607368801334,0.3589254486403566,0.2518226816314777,0.14015529109260738,0.1013003621725943,0.1831536959217055,0.2994477112838463,0.406522137351474,0.5228644109476601,0.6264293064465494,0.7174091865971772,0.7498599675227773,0.7501866836398592,0.741869108714746,0.7145672485235117,0.668481362810383,0.6157496085121368,0.5729805309169036,0.5524389740789304,0.5842675572513256,0.6458971873574666,0.7212118555835536,0.7765962711743528,0.8083766461346027,0.8111247340033834,0.8018157208724812,0.7837260717168957,0.7866747217075027,0.8009013397493221,No
0.753575165057341,0.6970201797918893,0.6288859118962711,0.5855764287995655,0.6125444180899906,0.6694484663244309,0.7209369797103549,0.7636017831873205,0.8032481910313078,0.8093966835339577,0.8141740972746445,0.7904891404576564,0.7388262456550307,0.6583684871813185,0.5696222324859044,0.4763683614132448,0.37399306057231896,0.31217754822581134,0.3809272747589112,0.49059668458779293,0.5908983261225915,0.6907608131844036,0.7846572147129309,0.8621810543898272,0.8662941597399463,0.8191180551312331,0.7877943358947677,0.7375245214708241,0.6865028787183054,0.7054780446274644,0.7360977222181162,0.7627214956474175,0.7668737422765031,0.7668801820183566,0.7636063646651301,0.7512778908632332,0.7417295070689021,0.7363459373461752,0.7246345921329331,0.7410197301540522,0.743661976286256,0.7534587124773451,0.7547553419976645,0.7177776767484343,0.659620043680109,0.5943279979853509,0.5932874362578604,0.6654375655014977,0.7265105222468644,0.7755585345538323,0.8215192110876537,0.8477643892641173,0.8608888989060499,0.859735936892241,0.8275819275550524,0.7611696105251962,0.6760825687101917,0.5880576654569458,0.49770047716466803,0.3946561222819851,0.3477243534004273,0.43357054937670436,0.5344524591480251,0.6434108702140036,0.7435428675146472,0.8375012614302471,0.9196855719327741,0.9454572887585433,0.9159798021556502,0.880430293525637,0.8173452145266242,0.7757469100096575,0.7896407788459465,0.8373588225914201,0.8568562955024823,0.847979964943095,0.8319528647733068,0.8229531650918134,0.8259405249372163,0.8173063424540137,0.8054156553215648,0.7949117824998047,0.7937300637323925,0.788861150294258,0.80286891047742,0.7870353078568753,0.7486962027644963,0.7005855879321696,0.6354227266844503,0.5702836444395996,0.574142914099389,0.6270119439176385,0.6898301455799503,0.7406431298690366,0.7733597700564323,0.7931747989631444,0.8061077942840711,0.7955887242665807,0.7542621172266795,0.6749153676680131,0.5842343117773601,0.4973644443385197,0.4080079619435766,0.32169274135531567,0.3425616587982321,0.44359005153982456,0.5493858372374396,0.6533508314030751,0.7567501296061503,0.8520283900119889,0.9492085719064243,0.9999999999999998,0.970050402490249,0.9254430235457074,0.8745723040716264,0.8247899244534713,0.8240149765748719,0.866990937749182,0.8867117118225887,0.8823831218334537,0.8771403546465562,0.8488748296894439,0.8065825156119832,0.8221672178462447,0.8171496392416089,0.8259054852407124,0.8066670210955202,0.7647709428047611,0.7618746644550913,0.7959296139799974,0.8547874772343877,0.9046181523843353,0.8908002100146095,0.8008036935573382,0.7028182303698436,0.610579112959633,0.5079464349040894,0.4039539199757216,0.2979164144882571,0.1939507800081428,0.08178170809244367,0.0,0.03226628129727804,0.12648182022279486,0.2252343008508706,0.3229861726123813,0.41832774181984056,0.5086390021225948,0.6061898298025661,0.6919662891782099,0.7423709483977798,0.7458286770919564,0.733698252836503,0.7106439977056087,0.6675354088335965,0.6054463180932974,0.5489697385726939,0.49871445348411103,0.4937365704259229,0.5536444184286602,0.6159413885315363,0.678766332418254,0.7238979240231809,0.73923017268683,0.7328760551243609,0.7363958044538987,0.733900785365347,0.7493524844047543,0.7654485050338937,0.7745219825924272,0.7706664403768715,0.786218926443788,0.7821642639828819,0.7770495792278711,0.7370166922601531,0.7090453773754517,0.7229175618845896,0.777245526935954,0.8379825089773585,0.8652249781133221,0.8218203105590021,0.7333762783865139,0.6346056720040194,0.5281336105498873,0.42459603720928407,0.3182292394818538,0.21862611100957108,0.13937747215366625,0.0935610408995402,0.166063190858025,0.2623285485038813,0.3599947662419207,0.45602184080514774,0.546997287070061,0.6348034839365198,0.7210390624902632,0.7875543416765127,0.8080475940382226,0.8020205102782871,0.7774485100596362,0.7277240611553191,0.6772444832951605,0.6191099641942575,0.5421635048710935,0.5050500376025535,0.5368663673967504,0.6068544398138618,0.6647535912194493,0.6957512289497794,0.6898309528858328,0.6822566290467644,0.6741280936611294,0.6667509093106483,0.6829227792771839,0.6875750588299285,0.7000263870022836,0.7050915352062399,0.7067010041579336,0.7118845326136698,0.7166342571438171,0.7045251128745085,0.6690004623429331,0.6391495935904918,0.6396392524144383,0.6905371988858622,0.7380837716517246,0.7546375891054258,0.7626450365061823,0.6850306714228516,0.5854498815712585,0.4799867745436408,0.3764699218217198,0.26647546452369997,0.16649534026411827,0.08632036352706174,0.1044093529571819,0.19937639522858208,0.29948473275906484,0.38048605361269394,0.45991318204275555,0.5516699783208503,0.6385818913597474,0.716884039643537,0.7615380948188448,0.7568536934637693,0.747777582348055,0.716054431891352,0.6728539538232081,0.6189617188633163,0.5638215309538805,0.5091716763984391,0.5105103893909779,0.5572946979399529,0.6222284173636254,0.6884599245032927,No
0.7830313278438723,0.7104831727999192,0.6082490654057793,0.4994530775084751,0.3839008513205089,0.29568421855849625,0.30031086434803456,0.3883478939992253,0.49838949325680026,0.6083633773296997,0.689127897517591,0.7466043033118828,0.7960970555516997,0.8190313816841606,0.8160796408379918,0.7680150019852476,0.6740555705757147,0.5815008398801549,0.4410756197492409,0.29819913300587775,0.3088703410858491,0.4715151153275192,0.637886429820087,0.8086253379076505,0.9548817272716157,0.9685427412559156,0.892212611671579,0.8667957919500093,0.7915694343830122,0.7050232632171545,0.7311100620883719,0.8092672503730096,0.8634315757142321,0.8776152295992272,0.855323040824187,0.8246766148517102,0.7961130422364446,0.7978259071049232,0.8089388335419283,0.8024894057241427,0.7913409190178893,0.7751640202631158,0.7599199421412806,0.754855036831378,0.7100465081950382,0.6264527599556073,0.5201138575817819,0.421153369058648,0.3417913984090033,0.35418088672047343,0.44389079947331034,0.5459548431493477,0.6421915594097829,0.7188272882182902,0.7725148640838739,0.8111485294441447,0.8076271806764703,0.78672382051246,0.7261653887071731,0.6266082360194929,0.523620526801599,0.3702502595534769,0.29780290340667825,0.4227489810070031,0.5998334701183197,0.7669078079961951,0.9128024786609981,0.9828278280521152,0.9234073682873234,0.8895243368702035,0.8241924083246994,0.7253542474257726,0.7140216317851662,0.788537585004276,0.8499366928952421,0.8625714682065455,0.8703999529514581,0.8580551571697441,0.8620275173758287,0.8401521617974907,0.8403504877051899,0.8354557997960104,0.8425988853755033,0.8356552167781572,0.8204008660724762,0.8194220992281478,0.8141916780986884,0.7500505668158493,0.6456996729393154,0.5366480592805791,0.42508485763108617,0.3387401269567798,0.35382704356580685,0.43915055167882855,0.54058747302253,0.6243718182103342,0.6944243508463064,0.7655788171012903,0.7980719123683553,0.8179519796960681,0.7975751973546057,0.7325241540948282,0.6430927301737501,0.5280779667276798,0.3755938424224521,0.2650219870607602,0.3804335770233891,0.5413434021457757,0.7145695625645576,0.8727724193408326,1.0,0.9876049895189372,0.9580765584207,0.9108631600199804,0.832831296984855,0.7359621880153586,0.7492674810721711,0.8298471941709069,0.8982400517300633,0.8880664926114106,0.879312821399834,0.8786080623090058,0.8603224846906556,0.8490730105524316,0.827464946475474,0.7502447546312929,0.7355335027382512,0.7481143059934574,0.7662480689595546,0.7689467122098774,0.7914836217409311,0.7899304313249802,0.7908260352323406,0.7545978312054329,0.6759415289923147,0.5995445482549613,0.6054392705664409,0.7023561559007785,0.7996107167015545,0.8492573123239096,0.8616942666292742,0.8016004096422478,0.6438327055697126,0.46723516900528406,0.2831086691431137,0.11162617371044803,0.019752541095629184,0.09146707853161118,0.20982548368994802,0.360126819743118,0.5109161375105096,0.6172413203066194,0.695837809294372,0.7146629139798115,0.6907655444490306,0.6406849782073367,0.5685607904208654,0.49510824510198237,0.3967943330068886,0.30183810359603847,0.2255183258363962,0.223282578755021,0.2933660735581052,0.40568470892964204,0.5179763451306423,0.635570419304643,0.7085815838496634,0.7176961322655036,0.7177790797027122,0.7260495375662286,0.7464879504403337,0.7476396615990595,0.7479422638615132,0.7576679753996762,0.765547665079926,0.7672190083837718,0.7648232911161488,0.7374813854157338,0.650303549480717,0.5771543398848795,0.570716558124861,0.6620082735808817,0.7655769154335053,0.8154396733851943,0.8184165200035336,0.6863137274016653,0.5253200636478779,0.3453876943741312,0.1615219274412638,0.009723901379472544,0.01388045968449525,0.12936407583796772,0.26138539209237877,0.4109845718548808,0.5406263968395608,0.6316761433177094,0.691705353303762,0.7261363082148193,0.7090729046212747,0.66619263514038,0.591243963381042,0.503828499007601,0.3994683877483718,0.2981476458473624,0.23091153126078456,0.22476377063691722,0.30256147966929614,0.39751604471092783,0.5046950103882644,0.6087845712035724,0.6546892403267437,0.6693985713867923,0.6795959018734896,0.687756935165754,0.6908415779742247,0.7123611270200128,0.6978563103214812,0.7120306288264544,0.7343229039800212,0.7601008036086032,0.7744138045721396,0.721960643701423,0.6333139287626173,0.5667547936706994,0.5805274544904186,0.6645983847640649,0.7449535017288849,0.8022916644024383,0.8015110192827999,0.6825954214469707,0.5486640699528671,0.39633947938287406,0.21872207545282496,0.04669165828031829,0.0,0.10595781452684072,0.23693637245907695,0.3855410993442199,0.5196767547895789,0.6170729168776043,0.703201467186072,0.7160828672162332,0.6875294642512451,0.6628614323801711,0.6016649062638262,0.5204804909446885,0.41801343435830773,0.3068904323976396,0.21695368497625012,0.18334535069400015,0.23285012952384765,0.32751314886234084,0.44843750448468445,0.5599405596699558,0.6616063423625391,No
0.8842545832518574,0.76065356384676,0.624096461612933,0.5191838144011536,0.5929016443035624,0.7116642376642979,0.8175681525225946,0.8862723164771942,0.8917890162317108,0.8601215953483163,0.7868191287385997,0.7351329040804218,0.7561276705993154,0.8315712565852325,0.8590498828451136,0.849652121377698,0.8427535936294559,0.8372765908073885,0.8388114878165704,0.8096396395261976,0.7647303920279636,0.7150795194602506,0.6858191347382214,0.6365701212507537,0.559501986621858,0.48384172474980636,0.5029133783496249,0.5970651530199551,0.6778510751735514,0.7491592857318454,0.7964701154235145,0.8238295425842135,0.8331293723238908,0.8605740426333672,0.9289506579305815,0.9594301289152192,0.8615580606528725,0.7309066001559055,0.5984116735097174,0.5787500094230396,0.6958259252239234,0.8199572095122574,0.8880253270645881,0.8888310402940558,0.8617667331011529,0.7974111679789999,0.7290372557189739,0.7383207435004837,0.8052467917588495,0.8639427362265031,0.8798845456402082,0.867018969927388,0.8727490105435471,0.8815099651728628,0.8933849861604881,0.9125107900876586,0.9260673800646653,0.8877451158422849,0.8187848989010167,0.7329309344104527,0.7084698365133413,0.7536386471313139,0.7906237627503159,0.8284549300095825,0.8475995362407036,0.8701374803366817,0.9023651773621708,0.9763757595062055,0.9672329032574587,0.8519588391143555,0.7029545826687325,0.5832261103243597,0.6452620241678737,0.7724208161088426,0.8845201151936424,0.9608953502261199,1.0,0.9740904909960859,0.8900478871608644,0.8038807632555613,0.7828194804574151,0.8429154570195663,0.8668333195243552,0.8435185327892305,0.8082184853867997,0.7818378381334607,0.7774097972137981,0.780556134564097,0.7841770868518201,0.8037364196838404,0.7650781389629544,0.7177786593489883,0.6632523323054165,0.6942465184128448,0.7602611653556601,0.835800423723744,0.8966598673786659,0.9445512628543717,0.931392082418907,0.882382065049097,0.900686985662543,0.9753903454899104,0.9380002063778168,0.8211503662781272,0.6898768515853586,0.5980639974798767,0.6943296363663882,0.8158274629581883,0.9086919244617055,0.9497202180338262,0.9545947661072294,0.8866088764870832,0.8182924485835534,0.7607571428667259,0.7946402104464583,0.8700059439789909,0.9074564472568434,0.9118189635484626,0.8930522926319844,0.8357171529252514,0.8279658116607256,0.8191065351269264,0.7839103475877303,0.7136398046707986,0.6741636274611307,0.7099479862289204,0.7831357124536309,0.8416823613610176,0.8474453881652724,0.7975231050155456,0.6716231728015347,0.5280259229221036,0.3925997008626716,0.2545694557345257,0.12247095704983835,0.09047437673769787,0.20398965842044836,0.3406020698791683,0.48155330969774557,0.6198842345284077,0.7518437810504848,0.8043702279029437,0.7847812815852175,0.8146189200459286,0.8492111056050318,0.8191234904431868,0.7597005320659078,0.6818866907210892,0.6127831071600114,0.5538814365114959,0.5660344981164749,0.6316492924879822,0.6864415692294386,0.6979443077665564,0.6952046144841559,0.7143928175524126,0.6936156958947852,0.6970156305134712,0.716106794716795,0.7475692859800316,0.7850028826136151,0.7420737448010377,0.6945338159077896,0.7225794599861524,0.7971447251965258,0.8876476081616618,0.907360484293867,0.8529391708788183,0.7446558596160431,0.6330032178168326,0.5340103530838527,0.4340765413424399,0.31659416074513347,0.1766900986025135,0.049051712667659064,0.03766636483595143,0.1641856106402546,0.30469952107873643,0.452870791220934,0.5887423513765149,0.7282971876246247,0.8346063926332854,0.8070347985064577,0.7825329452053817,0.7765722568823614,0.7512288879975961,0.7087997978377616,0.669999784181059,0.6284552274117248,0.6433294964976386,0.7085435957293558,0.7921023029260179,0.8375308233922723,0.8312002053421219,0.8098570924920021,0.7945017840061843,0.7813574116086466,0.7856823589783168,0.7779341388586736,0.7284941246121805,0.6618614356748154,0.6275598931546722,0.6701564337609294,0.744651030222176,0.7929550234854288,0.7978945461677758,0.7151576184688189,0.5846049463884251,0.4491129839950956,0.2986743220966366,0.15329027299547215,0.024909412498867578,0.0,0.12069890166190245,0.25664790317841657,0.37825166818036005,0.5014030530020723,0.6451046592980454,0.7769183489119706,0.8226028184151697,0.7744916758072842,0.744535988764536,0.7338244481700507,0.7143553260443523,0.6566634025290536,0.5778720014291756,0.49431551232378856,0.40758494322519656,0.3883866653023804,0.4600878167485858,0.5441998842960869,0.5956235403335026,0.6370526913001555,0.6849809064940797,0.7320289938320692,0.7512286924593106,0.7564587073846458,0.7748981984986463,0.7744777129871854,0.7392291413239875,0.6737194512471487,0.6374101443979985,0.6713133175951373,0.7334368156133153,0.8042837051086997,0.8178474512302616,0.7673755096348978,0.6563864615504857,0.5153635277670481,0.37836897963384164,0.24038408741150397,0.09762063319823566,0.016699499457880407,0.09908277452287173,0.23350095999704035,No
0.9324085331434081,0.902078215285253,0.8458423159710887,0.7696735048438249,0.6898236940201142,0.6036718317996613,0.5807906922462213,0.6355159439387991,0.699809056282333,0.7745620023750653,0.8609514120212284,0.9468187058451337,1.0,0.9838652903760877,0.9790627107814486,0.9510245219855694,0.9152577788229858,0.9348622420656053,0.9564086434185971,0.9022262429254272,0.85112512504191,0.8620507611177503,0.8744827381857686,0.8812709331949556,0.8887475370715568,0.8955192939026083,0.8906788178983717,0.858050887032389,0.8016361381615543,0.7422856696247745,0.7412319148242569,0.7981288952450681,0.8563691546982409,0.8962193741272818,0.9184531189843482,0.9229960876007367,0.9022964705845554,0.8515596010453351,0.7813334652454883,0.7043198293389866,0.6242078319955869,0.5405428483200642,0.49731269825682645,0.5718165688546683,0.6673053812520958,0.7561470990117526,0.8434560328624564,0.908620932758129,0.9458669785749468,0.9072080458030357,0.8763094685979168,0.8381273506492243,0.7849965146743428,0.779578395642856,0.8192932376642933,0.8183932285393368,0.806381093201206,0.7928729892618892,0.7813123736164661,0.7758724589369949,0.7663901882976197,0.7504004308996913,0.7101387625102212,0.651009592329793,0.5837258685975822,0.544327743858069,0.5805522973478127,0.6377490037152381,0.6827074788469386,0.7164360908038491,0.735520141629821,0.7313800182442199,0.6874768531416534,0.6125108808338343,0.5295407944007001,0.44768124586092173,0.369166743322484,0.3564511427604605,0.4414338069251006,0.5297972791189568,0.6230627592297052,0.7104912743018167,0.7910204748999884,0.8119330079452426,0.7835126563513511,0.7585027015798617,0.709602619953479,0.6880749962950391,0.7238074680045626,0.7524466558356072,0.7588804284371647,0.757264007988418,0.7595379234360443,0.7590180848239033,0.7583990104085262,0.7608140439395087,0.732196512321433,0.6735014451957936,0.6285300086730775,0.6520068887400988,0.7130801198101034,0.7707288191970908,0.811600743218671,0.8349392616207413,0.8469118275127901,0.8206713493907568,0.7500472056413138,0.6862139742653987,0.6076219864368407,0.5440645544048442,0.5905435731470984,0.6787376707441771,0.7389152339475636,0.8216162108119683,0.9054828433691223,0.9668375426777175,0.937849809464082,0.8614188750521384,0.7751395997725402,0.6934255646020754,0.6043694875002857,0.5181562605422426,0.4333965770390512,0.343608739150686,0.25209498103385963,0.1637805698213507,0.13461062203306728,0.20240216395364918,0.29166139897965737,0.3822338654064398,0.4672668729634216,0.519115816972162,0.5859219209797731,0.6752688037252913,0.7356647878738217,0.7942443161001961,0.7982234648248737,0.7811963580055022,0.7622760190557422,0.7140455822135433,0.6565970932059476,0.6020224329427087,0.5760871160045437,0.6135097412566323,0.6737710246048642,0.7102103506189049,0.7163050986580551,0.7156168097487218,0.7158527038334984,0.7144768502230204,0.715348015477559,0.6964333425756651,0.6482765722740819,0.6246853067286887,0.6612030192099999,0.7130561757411228,0.7435070210094897,0.7446333154300865,0.6813830989863324,0.5938305601163246,0.5003115575356635,0.4070847382194932,0.3182668727845598,0.22297079206593462,0.13327500756766486,0.04338870762749136,0.0,0.06222173279908472,0.15271561014041624,0.24244839089386894,0.33329574101779,0.4207980279751159,0.5060855861298587,0.5875129955508732,0.6563311730341091,0.6898742757002873,0.6753597747811285,0.6395324803922312,0.5918731321890288,0.5364761510741428,0.498924022815053,0.5264070752097961,0.5906723601385259,0.6524061531030853,0.7004494449466797,0.7190007017735617,0.7282056601092842,0.7347835820321819,0.750574601668713,0.7634744430029744,0.7761004946968021,0.7607656152317567,0.728620497176412,0.7532446562328045,0.8068176150576368,0.8397928501598876,0.8608067993088987,0.820966475925122,0.7306569100299743,0.642503592500537,0.54780279055771,0.45242793579255014,0.3639454689392162,0.27020167613258195,0.1802012564990868,0.15902858908778017,0.23524907773127468,0.32347553604596524,0.41379888810962073,0.5022933672420274,0.5883228323466011,0.6701323131932987,0.7476310046371982,0.8220576502840845,0.8677158427609665,0.8708068101299401,0.8509061119608233,0.8004467852033533,0.7400060601430091,0.691335227650789,0.6931245218317873,0.7479087303638362,0.8135438184096452,0.8507424530205793,0.8616695866224303,0.8536826235699843,0.8414308393866535,0.8359913289879356,0.8197170139475874,0.8043444925783242,0.8255307315720312,0.8880077547049653,0.8777022685990125,0.8779545148575126,0.916426339050817,0.937849660960885,0.9279952909843815,0.8609262492555484,0.7704192889120153,0.680398477608097,0.585572192389107,0.49730757404384474,0.4030310156631406,0.3097945406510897,0.22367978550049628,0.1857045042287372,0.2553708723084077,0.35073783795895197,0.4402797286665986,0.5298760695381474,0.6157610462204209,0.6965564277328612,0.7738151081508898,0.8438790648919473,0.8857795792993929,No
