0,1,2,3,4,5,6,7,8,9,10,11,12,13,14,15,16,17,18,19,20,21,22,23,24,25,26,27,28,29,30,31,32,33,34,35,36,37,38,39,40,41,42,43,44,45,46,47,48,49,50,51,52,53,54,55,56,57,58,59,60,61,62,63,64,65,66,67,68,69,70,71,72,73,74,75,76,77,78,79,80,81,82,83,84,85,86,87,88,89,90,91,92,93,94,95,96,97,98,99,100,101,102,103,104,105,106,107,108,109,110,111,112,113,114,115,116,117,118,119,120,121,122,123,124,125,126,127,128,129,130,131,132,133,134,135,136,137,138,139,140,141,142,143,144,145,146,147,148,149,150,151,152,153,154,155,156,157,158,159,160,161,162,163,164,165,166,167,168,169,170,171,172,173,174,175,176,177,178,179,180,181,182,183,184,185,186,187,188,189,190,191,192,193,194,195,196,197,198,199,200,201,202,203,204,205,206,207,208,209,210,211,212,213,214,215,216,217,218,219,220,221,222,223,224,225,226,227,228,229,230,231,232,233,234,235,236,237,238,239,240,241,242,243,244,245,246,247,248,249,250,251,252,253,254,Target
0.7284494518205573,0.680754713275987,0.6190097909209529,0.6453670620305898,0.6815700168653418,0.7324875771005406,0.758447628632192,0.75065957746419,0.7282815009352195,0.7079279882113259,0.710136529120641,0.7222353094918157,0.7069986433412865,0.7062155880566836,0.7061711425213808,0.6981134916437188,0.6592544749182361,0.5931517600362763,0.5195433440258252,0.42284806058256663,0.3436445517718374,0.3239628361685929,0.3905363073993451,0.45919058392537515,0.5198377207813651,0.5828172959420685,0.6310904484319968,0.6688588705970728,0.6961491869070926,0.7390276923579648,0.8633861482377077,0.9486939793110354,0.8941163445967772,0.7520513623967382,0.6135677337156,0.46668736281561785,0.4492884147719485,0.5800198788530881,0.7116605080534217,0.8024731296285852,0.7946992977800296,0.7917123116445328,0.7605701275748915,0.714401500026618,0.6504970645581123,0.6748462505979065,0.706058085756359,0.7312225006574353,0.7325550744525939,0.7238090213227846,0.7326137672413306,0.7530787295391619,0.7621659111267203,0.7820683505545603,0.7726038517359273,0.7595052010953465,0.7447454111691156,0.7061101920618844,0.6502791595776083,0.554179059098951,0.468673839874743,0.39309904379445815,0.346308676525072,0.39514152604583863,0.4669745210411911,0.5382251932419333,0.6000468846106379,0.6448862354023461,0.6895999457126409,0.7290738957099929,0.7823238831022818,0.8935971542557581,1.0,0.9826971994303015,0.8490044410035029,0.7104924194826534,0.5613773319242981,0.4876082407601041,0.5926413831691368,0.7078553129682223,0.8186177154397853,0.8555668978511166,0.8370731202366173,0.8158906097524161,0.7909595057841177,0.7112656751036832,0.7174779863253065,0.7515527987706383,0.7903113792485374,0.8116898188246706,0.8128416328512804,0.8127991863503015,0.8068977857366448,0.8006271942865721,0.7720222868771698,0.7690556395631667,0.7616497051092228,0.7530982220330777,0.6935746347597762,0.6135798820279605,0.5289149580609989,0.43333640475456825,0.3287417343008716,0.2861169326847879,0.32967623180645234,0.39942747992139527,0.4716012376982759,0.5358516343011575,0.5906717661806491,0.6261688651757877,0.656193514538784,0.7074090015142733,0.8159227359138308,0.9203640974602125,0.8807388824218787,0.7444555521457001,0.5961278828319587,0.44912038948968735,0.3541522605065124,0.4503985889811499,0.5836418454332906,0.7067595080958906,0.7485249450198506,0.7120425600498725,0.6984969531161207,0.65231835961323,0.6212062375727712,0.6312888320415215,0.6320693876971681,0.590398017984521,0.45852671014720325,0.3261653344370341,0.21906988530810256,0.08612333198009159,0.0,0.05079981161431135,0.17348732652702115,0.29006156007258,0.41142978040212075,0.565346872757293,0.6223018147612418,0.5867140060398102,0.5631196265392466,0.528896720222706,0.4705796469192327,0.41053092614245745,0.3378301386471785,0.2707724857562166,0.21750464391943236,0.19803728543916632,0.24575431271894388,0.34360982141668917,0.439938599448932,0.5251997416321865,0.613229026980104,0.6713227781188902,0.6940911899611137,0.6958048547316054,0.7086484673840463,0.7135753368816049,0.7192680450361504,0.7222693066913601,0.7298117590158126,0.7251880522993046,0.6911063229507999,0.6550428911776871,0.6013747121344224,0.6280011634750275,0.7118809128018828,0.7374206443035618,0.755864698567251,0.7462008912253157,0.6699790539521251,0.5356600988595348,0.39551366455788806,0.2565741434206954,0.1336445014171299,0.16685981771156166,0.29283632708899177,0.43674340113136356,0.5792750742353219,0.7086217800043668,0.6908333903759445,0.6459763772595766,0.6088909127236537,0.5615244144979954,0.5121159877353296,0.450672019636154,0.38127941974972757,0.309280750908961,0.26162485308165273,0.26510302571848854,0.33128406384485665,0.4120959270361437,0.5040932953283201,0.5882457012579358,0.6447770876519465,0.6750595534651715,0.6944645991474294,0.695322571088588,0.682469350061508,0.6689578401360752,0.6561437654984248,0.6425388105221943,0.6422362813384836,0.639057763024864,0.6030157551571751,0.57463075210344,0.5465815851804772,0.594685871356492,0.6739702125779612,0.7081853546283092,0.7186549515192944,0.6553605980616899,0.5187322811760247,0.37859530667775587,0.2211094626588732,0.0813042766036065,0.021134512482901435,0.10641031395923495,0.2333523394802106,0.3377984333248625,0.48161644827029004,0.6178683527581654,0.6266700498495679,0.6125225186677445,0.5803105180013493,0.5337600410069889,0.4837260967969126,0.4203855530837295,0.35343165800804677,0.28496970989285675,0.22514478270692484,0.23702282241378825,0.31120966353966306,0.40163585065502083,0.4848831605667474,0.5586427611374702,0.6087888773225387,0.6280563708707838,0.6418506316874169,0.6328964539630926,0.6342686587082822,0.626582949209654,0.623936279751863,0.6184999098445525,0.6372600864449627,0.664538623371496,0.6672259736467536,0.6370635322608393,0.5932868350032354,0.5455025854850639,0.5150489003918368,0.5632565393561233,0.633581276093441,No
0.9579716934036315,0.9506953220993881,0.9410238944681901,0.930501417475496,0.9136006842116577,0.8922443987351625,0.8680164374316464,0.8551269396237409,0.8353073334770187,0.7986403158327069,0.7331884637446779,0.66406184559896,0.6014041067268172,0.5957824213222982,0.6463506281643521,0.7033961778780466,0.7611257733416252,0.8029205505285373,0.8364693102905774,0.8582465595721298,0.8642787445790967,0.852346504586293,0.802839016653635,0.7196578623161916,0.6201866313131625,0.5170334660274625,0.4221965647527708,0.3637594453770705,0.4256022996899669,0.5257861592605124,0.6200862091586901,0.7151162331415324,0.7938952659343799,0.8803799430412749,0.942969903033064,0.9581891647954768,0.9782973505782886,0.9644747396612181,0.9534435711412512,0.9824072930304486,1.0,0.9986807870913279,0.987661890736772,0.9796269551694179,0.9665279785641139,0.9559633664696405,0.941386718264186,0.9285947781413335,0.9231843033519294,0.9372072212679075,0.9340030470480882,0.8930278390784521,0.8355683411997261,0.7711550486290375,0.7091018255534487,0.6901223161446981,0.7396576496245189,0.7917413948747165,0.8394625366553417,0.8740349051808649,0.8884759701978213,0.8994021995492374,0.8949436993522331,0.8467620183804629,0.7647455316087308,0.6712812473334426,0.5750797388971067,0.4812272400305666,0.38287741493506,0.3295053636681673,0.38396610258548725,0.460840948007589,0.5566147518843354,0.6509677098221656,0.7484060257493104,0.8415893441789617,0.9191110274279115,0.9302667158794433,0.9262749415429905,0.9027555916235341,0.8845590461520119,0.9037368640546655,0.9262508167281003,0.9203950911955596,0.9269244769136034,0.9234259297291896,0.9154939816846359,0.9078174540013912,0.8919612843397315,0.8850185143471982,0.8748702759648088,0.8808983015102267,0.8599750408641182,0.806353089289825,0.7435803291542085,0.6805325811885021,0.6321831619679554,0.6662719241552111,0.72500123402701,0.7847996419170169,0.8311487403022011,0.867538956939983,0.8994346158744451,0.9145031297979918,0.9137798874713545,0.8784464608029574,0.7976967744871368,0.7044566005556425,0.6116414193089503,0.5114295377087701,0.419864841622855,0.4057676164451345,0.49380823425543907,0.5891613873955097,0.6909974804007075,0.78388474699568,0.8804754587225365,0.9583187872030701,0.9706182588186922,0.9543322513014663,0.9230601826794369,0.9135604017318957,0.9032617514004553,0.8258179996248196,0.7246222393128052,0.6211648666972018,0.5192013511763811,0.42637339771639216,0.325614823712691,0.2317622941677413,0.13519896702050804,0.07005857170149343,0.10932060331526472,0.19982785348050336,0.2978582520748443,0.3916559147177232,0.4909300741840825,0.5868114524161392,0.6839198208729034,0.7857597480027212,0.8630327878627857,0.8785067983164412,0.8630278032566894,0.8339624712291651,0.7975317136580045,0.7519315183184463,0.6922895450379389,0.6293978178043078,0.5905661165564862,0.6035478018386797,0.6592228256566699,0.7233843821017287,0.7880678255673117,0.8317675029930371,0.8384982998052046,0.8390154877476856,0.848410490854135,0.8611237835637859,0.8690634209992485,0.8771933265535004,0.8812032882110876,0.881208296186113,0.8757808191957932,0.8496450519780177,0.8309830167522567,0.8509130940096155,0.8764596164047709,0.8727741692871183,0.8241598504613701,0.7246215061956085,0.6211882703070501,0.5215129124336344,0.4278109826588852,0.3253048647771948,0.23012846065406523,0.13378852628757554,0.04385253167159542,0.0,0.06010913793097816,0.1560223357234729,0.25268852168072664,0.3488757086760461,0.4478727900151076,0.5419539318096991,0.6448633414914298,0.7440908319590331,0.8236323879133223,0.8593934104419563,0.8556097808596004,0.8446487178693642,0.8094539412717769,0.7660985659762316,0.7115131260720418,0.655056912658948,0.622525535226889,0.645988597456066,0.7058701035346289,0.7711889503965579,0.8382367430162287,0.8861902178112104,0.8919669534258672,0.8821823988016009,0.8879739063448442,0.9023495131525796,0.9112688074026489,0.9251650035235657,0.9422317599324566,0.9545331354241631,0.9650037627115613,0.9529451118743166,0.9213373540446748,0.901759287490135,0.9215647425191906,0.9254620170614527,0.9018111822782484,0.8447740202148344,0.7526837053837636,0.6563734655421127,0.560944456637829,0.46356201989471923,0.3656556484329987,0.27058454603427884,0.16863649908261213,0.07670533336529983,0.01274954597542255,0.06178504498160575,0.1563381046830703,0.25295733118339747,0.3515926202528301,0.4459873250074078,0.5462343594349415,0.6294287984187985,0.7089478028538401,0.7873644639221831,0.8223574472631183,0.8176829599371338,0.7895332553758085,0.7561690923565472,0.7082569372477319,0.6466284338380812,0.5893854566870824,0.5430159941773871,0.5333826241022295,0.5839103390992713,0.6547981643000553,0.7207934256236044,0.7787895733048105,0.8068831597264041,0.8186399474656283,0.8424719760578792,0.8667396287944125,0.8841524295277683,0.8971957692284134,0.9112926683152893,0.9229025433211016,No
0.6110835842444766,0.6615746342211848,0.6957902325551721,0.7411131895355503,0.7166658397755059,0.5957943726454165,0.4250221031494199,0.2864568468901316,0.4250218713208307,0.6113843947184971,0.77506499209652,0.8476125914146753,0.8621427565639701,0.886016567148987,0.8931922801791865,0.9036636982945474,0.9468452372826759,0.9584796093916816,0.8717040892076708,0.750219650571804,0.5893340411553982,0.5487928480560704,0.5504308419835917,0.6518748080767338,0.7598643682528632,0.8353069263710626,0.8606873557883024,0.8433762995342944,0.8204677336936887,0.815694076110903,0.8057916677738062,0.8299128714443667,0.8369549976369477,0.8198913301725108,0.7992914302097978,0.7554127424146122,0.7011838033570088,0.6422251011916318,0.5910503794741224,0.579383711443981,0.6122008442383544,0.646366579438415,0.6843757990932993,0.7322687748613568,0.8005247205593857,0.8347398020076398,0.8967078703957592,0.9637912963956863,0.8553934198873971,0.6536818908862445,0.5342893356408203,0.6637834349761658,0.840616072073737,0.9810655371255503,0.9999999999999991,0.968421097096809,0.9579471588549842,0.9620482589559547,0.9266669204014981,0.9680078566358521,0.9453720959607868,0.8999168651986675,0.8033298957804877,0.6569741661833302,0.5220685456252889,0.5134158192689346,0.5312831925000037,0.6181959085260207,0.7175018588673545,0.7893988348916317,0.7776963890614876,0.7690849938104405,0.7725309536714828,0.7739337920497142,0.7655249688999133,0.7571946618268521,0.7545404403186238,0.7669243822566916,0.7410956327822849,0.7202479202673322,0.6718024497815307,0.6387831251523224,0.6130923502152053,0.6123436080315594,0.6246096472340872,0.6541493254269497,0.6850059793166539,0.714467329752094,0.7385973734096893,0.7903119928726907,0.764957447102268,0.6175180690960991,0.4410403710762525,0.39196114158937423,0.55443180151196,0.7409245104713111,0.8995493835983419,0.9698966862719463,0.9532816270563851,0.9502555241910642,0.9586556734555858,0.9540243480233288,0.97583109259135,0.9229020483346035,0.7922744872729703,0.6429954600133332,0.5223768485714704,0.5179325461750404,0.5701614439431202,0.6664881436264443,0.7721186328514991,0.8553430465943226,0.8615215719602158,0.8703348784122538,0.914100940118356,0.9682270978216403,0.9693423261747007,0.9717028477943348,0.9789001122484171,0.9860730453234279,0.9783598825957549,0.9140933615987654,0.8298118275093076,0.7955945004768292,0.7887772710697494,0.778646152829892,0.791840757717102,0.7554363377513171,0.6490767291892512,0.6372174394070749,0.6368011132179863,0.6165721422554906,0.6383415798958234,0.7307702747590445,0.8071799724540636,0.8431426678433089,0.8386318605604872,0.8231008548878416,0.8204377672433605,0.7849430823691854,0.7544970206892403,0.7228401162096114,0.7060340313184925,0.6533686396083915,0.5819366478161179,0.47620853299156707,0.39410698372494934,0.37820659494273556,0.36565078751877333,0.43973075476922485,0.593095428700332,0.7443091168681484,0.8315554350681031,0.8245263189971324,0.8196633022941313,0.7966348955889568,0.7641180867044204,0.7332808763782381,0.6353807702703955,0.4812944007337494,0.30313734326426456,0.11808115010483,0.036744645123022224,0.12754350013140314,0.2805091362948593,0.46355463547049336,0.5997145653676421,0.5960901514605448,0.5666082987311931,0.5440329658544334,0.5143495657162092,0.49818827127034204,0.47196650456087497,0.4710981715149396,0.48146329422237066,0.523189669428608,0.5570415363882564,0.5954252051379045,0.623386209135603,0.6120746011054417,0.6345658067421436,0.5917960728214551,0.597771497598643,0.6361514249495466,0.6371894648781797,0.629799798206812,0.5535048776829932,0.4499696502678958,0.3635538249288226,0.32121435849571434,0.35441437246873253,0.34345073194176745,0.47241581130587207,0.6279222380981171,0.7429421754740684,0.7619472235654028,0.7799916244665726,0.8028415304172603,0.8033430045501708,0.7964874212660531,0.6835155071180141,0.49821234926633906,0.3171579474643851,0.23762329765840562,0.3416593818194711,0.5064081280829464,0.6824322262502163,0.7197267467262369,0.6648675493409506,0.6403296335684949,0.5907478976171179,0.5428425468147156,0.5126531304118078,0.4847953421308384,0.43415148084611754,0.40056321935295713,0.4696701954258229,0.5274703731342871,0.5729344029952985,0.6043058379442101,0.6574291714557532,0.6483304919505866,0.6588892852913943,0.678440364776888,0.6780338987611856,0.6610613073253022,0.677135862066006,0.7043348345522134,0.6932341047318937,0.6281152646616928,0.5223324908870515,0.4391186533573137,0.3897229184675082,0.395486284235135,0.4982669135666482,0.6521350749210484,0.7604302585554024,0.7818227350595173,0.7589451668628238,0.7359622802342694,0.7286990653616972,0.7189098789416395,0.6750342638543456,0.51475753600503,0.3268930263550045,0.13367424963615449,0.0,0.04268993676776578,0.16585003080360927,0.36344526755322626,0.5494598499026608,0.5393458215555693,0.5222716284290874,0.4916677957679232,0.45494919457066096,No
0.8392130785449157,0.861690034769732,0.8664571152216805,0.8657560836123974,0.8550266458470566,0.8556060264525864,0.8455613169560829,0.8431871585227946,0.8467844109464424,0.8244377687000373,0.7883543309009087,0.7585471609653107,0.7595906822309388,0.79288113972827,0.8251449858711359,0.8502068406280949,0.8725323217481542,0.913687111042824,0.9656264608827134,1.0000000000000002,0.9392690893979141,0.843470730383949,0.7431071796243105,0.6474959535616376,0.565113509020098,0.46782463686144893,0.45918414410214337,0.5592541981111967,0.6579614587134521,0.7636985346054692,0.8620322038675716,0.9636958346584754,0.9933589319603626,0.9338216914654189,0.9010726099263826,0.8798998343460906,0.8368857646502301,0.8070557919802741,0.8461211537267925,0.8636782344567397,0.8740583114832459,0.8732113350460666,0.8684005837821054,0.8567432277998603,0.8569052675115147,0.8520636283032423,0.850204989550494,0.8475299977245407,0.8271254677864242,0.7992341536072767,0.778294383842822,0.8049523461795898,0.836082189097554,0.8649231234871684,0.8869982210948135,0.9168085010551408,0.9482827433954879,0.9713918601008136,0.9141276127975859,0.8171671061375558,0.7188194353754593,0.6143772028257752,0.5158912680707191,0.41444939677022385,0.4255656498949667,0.5318178300436454,0.634978166628857,0.7365676536768782,0.8364374458225583,0.936953115485651,0.999473266149262,0.9588573435536214,0.904348980167968,0.8831683039785825,0.8476243869284443,0.8032763742505244,0.828479977100739,0.848902994049163,0.8719592569122627,0.8703356954640726,0.8755996289258359,0.8663096150868925,0.8528566954332557,0.8471829217676878,0.8495986734312597,0.8658868085702316,0.8718467699624173,0.861207628047939,0.837079472733057,0.8059258696770761,0.8015268026280828,0.8263520445092316,0.8555167846889848,0.8786361013318527,0.9009547408648431,0.9282819136820424,0.9720450033888992,0.9822325279164585,0.908951192612965,0.8139514638858214,0.7101924497642795,0.6210580754867203,0.534761884493199,0.4437822111538787,0.485602158297586,0.5932416793553561,0.6919077274136682,0.7976679404570508,0.8957511720288738,0.979562395612082,0.9576664391995389,0.9082572169004075,0.8808901454523548,0.846041026203183,0.8034145921838227,0.8200444529238247,0.8387508561277699,0.8519821959113594,0.8486888278255178,0.8299211949592602,0.8399557133360702,0.8191823153497115,0.7873876841410288,0.7839391948046515,0.8007082414247091,0.7952608884354377,0.7796552926183942,0.7495276277603791,0.7276949201167533,0.7719654700012704,0.8187890132207116,0.8445949902556846,0.842848020544192,0.7651138871675605,0.6599233148187948,0.5613281246479478,0.4536984915777198,0.3431124766659217,0.23286788530285008,0.13444828214497173,0.09365199094502419,0.16123426942657226,0.2603431393293991,0.361547200179116,0.4549371608311248,0.541841440381295,0.6389831496986631,0.7446540606922463,0.8419812014287504,0.9031176528686948,0.8789308114435019,0.8556270487528048,0.8347433339538515,0.8067280066058686,0.7772350110699942,0.7521502233171622,0.7394191828995773,0.7644182568692359,0.8029389266184241,0.8194748732631678,0.8097419385939999,0.7998298654398728,0.795328321586046,0.797894378943812,0.810675106402668,0.8214656917838765,0.8207215005040325,0.8225589463344478,0.7999982964961296,0.7642157455566128,0.737989094963883,0.7807109306263549,0.8300371144580654,0.8465044987958554,0.8539315140057735,0.7871758609151283,0.6847327044361473,0.5946907761122244,0.5088674259126409,0.4011274922488497,0.293726600570394,0.19505650872414182,0.08715643300540532,0.000393986745179431,0.0,0.08649091937600195,0.19438402006803446,0.29309684361490684,0.40042652575633286,0.5084251329444067,0.606752315410011,0.7085789198853034,0.8084977374455937,0.8852617165815915,0.8761988251786457,0.850433313623771,0.8265576792422962,0.8021007026154512,0.7713741637519076,0.7402264273499772,0.7228954324198613,0.7441587847086846,0.7796773496195926,0.798669257064051,0.8010301529830894,0.7990057870769782,0.8046243084016529,0.8029052231032863,0.806341544727385,0.8210336813005445,0.820563319198995,0.8198380055610872,0.7959293879488591,0.7592263069348595,0.7465026791407559,0.7861255665390756,0.8339420425986093,0.8526116156263666,0.8548562950946599,0.7846030381705227,0.6834019592821512,0.574570731810059,0.4761113584926753,0.3681210204089187,0.2575335178498779,0.14784546265173248,0.05918037281577848,0.0586530204281035,0.14341300052544637,0.24812842458900408,0.3551535475572669,0.4464644075873172,0.5329947656511365,0.6333370258870967,0.7348175318654813,0.8320731930522534,0.8876781425335165,0.8555121690306484,0.8237506868033095,0.7985420771968326,0.7752812212465325,0.7382937463681227,0.7107263748956083,0.6997214307027042,0.7205261216453949,0.7599947958105215,0.789156009654546,0.7936216055268079,0.78766549814134,0.7945147253688274,0.7967385289887512,0.8040628484762393,0.8099438284886069,0.801814479134048,0.7773216471317175,No
0.9177529878507265,0.9243692071223217,0.8737648272576812,0.7913813664550464,0.6995126080731053,0.6049271785363601,0.5003120927923796,0.44601243593177897,0.5289100630960129,0.6340683881669682,0.7324021640072045,0.835827922216734,0.92016065332881,0.9941853086707975,0.9999999999999998,0.9569712169931315,0.9397061347061537,0.8925995288993869,0.9015899695184657,0.9228088734712239,0.9310952724594312,0.9233926137964541,0.9154435158754277,0.8912390742433824,0.8895978098686885,0.8687291983850824,0.8243509553227975,0.8113464840567783,0.8305127490310353,0.8647413713552738,0.8758222085398046,0.8811264333307045,0.898493245980575,0.9063036170512684,0.8578580003037073,0.7723248337849762,0.6799060412066174,0.585948727657911,0.49226687702943983,0.4819181033198434,0.5795240419290197,0.6788553952933756,0.7814998432264908,0.8781622146322652,0.941953303256134,0.9074085779347161,0.8658407818464753,0.8341363737201928,0.8307769892216463,0.8501529032218407,0.8509629826880263,0.8613396173477856,0.8659145301954381,0.8598788583008259,0.8514653878678675,0.8347160237033069,0.8033107685157714,0.7527726204177159,0.7418507676699673,0.7853040753564324,0.8233042325600997,0.8340770411781395,0.8484670194372013,0.8581396777192538,0.8541393073011807,0.7972385267551279,0.7114861379250914,0.6248549252126987,0.5345502554908559,0.4964817128613017,0.5844559914325511,0.682286144689163,0.7814800593115019,0.8723495044875798,0.8813384770319785,0.8294984248597526,0.7942715502912912,0.7806840877468588,0.7879843730286182,0.8117453510264381,0.8161001719202374,0.833055350692476,0.8421234570561065,0.8328567984389668,0.8062239506563793,0.783828789198785,0.7437992229955201,0.726112984160838,0.7674104744709467,0.8139434515406296,0.8310054238882516,0.830639605718704,0.8450122522877626,0.8263722503303763,0.7649371692906597,0.6810945081727151,0.5882090201691748,0.5022410250650333,0.43874729040628346,0.4983338642659041,0.6010396543600474,0.7003355846920629,0.7997866636680551,0.8815559527421672,0.863779362748555,0.7901399530311328,0.7736003570563128,0.7466382781397571,0.7594757534768612,0.7917321941039648,0.8091930139641235,0.8290664837615875,0.8319707876884788,0.8289112894116706,0.8250178225628833,0.8182067052532804,0.7718830489420341,0.7527606857794364,0.7457948291321588,0.7018130427276021,0.712775549070966,0.7562923817061462,0.7647735674860898,0.7605427225226065,0.7633437611862244,0.7499852220791852,0.7472416890374352,0.7166338418253908,0.6908607573365166,0.6961402948668176,0.7188559305162812,0.7371020112458708,0.6671219996987323,0.5599137995528682,0.45214255958080507,0.34940033571562457,0.24919490172159775,0.14248469951492893,0.046001076120273154,0.0,0.06870234820443422,0.170254475795814,0.27301520508627086,0.3730704924121011,0.4763402759636113,0.5748979826353526,0.669254282527034,0.7469174822440798,0.7726477710739996,0.7791247904372105,0.7749975010988168,0.735759670105345,0.6887516201770885,0.6651335082051417,0.6990631673628214,0.7409167802221501,0.7559373855130869,0.7550382241182378,0.7673009430670146,0.7626300867403637,0.7527780232180337,0.733537690910133,0.7218626719155588,0.7448325357189798,0.7777114923787118,0.7754676905579079,0.689127047531797,0.5896742114211369,0.4869923780854468,0.379222765879186,0.2714378897589689,0.16884283907346576,0.09625041964755221,0.13015884937031008,0.22497368217956226,0.329367933611997,0.42779756681109093,0.5312168046422072,0.621055932362993,0.7116758511794379,0.7805363008720703,0.7962116729150017,0.7888355634304884,0.7776134867713396,0.7401160692314919,0.6934974217469627,0.6751574901249027,0.7080793955335019,0.7577897180516959,0.7916062205250467,0.782262930780339,0.7916834574507237,0.7984947168147991,0.7914718914694168,0.7988507714654614,0.782652825035983,0.7758158365753631,0.8068463116391531,0.8361146557690968,0.7874602710686578,0.6863664790597397,0.5881276954592451,0.4827429945559083,0.37957479160568774,0.2797410620421359,0.17237274548595427,0.07046790849805218,0.00036373119381405417,0.046472044429936465,0.1429571579554414,0.24732349784037133,0.3489874979059051,0.4501866284832621,0.5574278956825292,0.6556645244196175,0.7449870051489251,0.8235579328182767,0.844855625510857,0.8339439662027572,0.8241986223479614,0.8141751588971704,0.781515962923587,0.7399222973918562,0.7386274323403146,0.7910146994045328,0.8246362964089726,0.8312903957691014,0.8481213401851042,0.8673252308388377,0.8666308436529715,0.8695773836881202,0.8581061177616778,0.8327712504419502,0.8674498525157384,0.8983734925620974,0.9034843702335957,0.848250986003255,0.7505274665981438,0.6462423363188738,0.547712598865707,0.4407436777359297,0.33459892324915685,0.2364687207651759,0.13180619583289532,0.05767720903740092,0.10016911570195708,0.20067591563316078,0.3001467760518888,0.40722483034986556,0.507346304864408,0.6059532575053279,0.6993091171537464,0.7903341637739085,0.8565930650808806,0.8499573171482162,No
0.8136159256132043,0.7980229238356098,0.7694515313651404,0.721032961833715,0.6646351302781222,0.6381266215713617,0.6571890980394408,0.648729560031641,0.6229638015475198,0.5755042489551192,0.5126974479693751,0.44902074445735307,0.4222500467197512,0.479069404445736,0.5438687453458049,0.60663903327417,0.6517388300219022,0.6796964562110817,0.7237257142344546,0.8021372361800365,0.9008233202022167,0.9962715348838755,1.0,0.8992708849413398,0.7772376598813238,0.6637755614456267,0.5574953027580101,0.4631392522675042,0.43474143994279535,0.5316230713844692,0.6238961212595435,0.6750287208731214,0.6721598047622734,0.642759453290298,0.5773566816223052,0.5256589477585867,0.5100023889928829,0.5293237666682193,0.5247861313506954,0.5335121999535026,0.5457793556575821,0.5462212214948452,0.5510186623868987,0.5797670810139426,0.5978805218579231,0.5842700745425233,0.5421377958919189,0.48262309799326175,0.4174786109270543,0.34802989652262495,0.3255663615431046,0.38018120467424543,0.456733783024835,0.5281018462298106,0.5711118051543602,0.6115245393107851,0.6550865137865318,0.7315130163912626,0.8291787772303807,0.9383455844565116,0.9560623232193359,0.8657388384530611,0.74959501980684,0.6290925645089711,0.5064759220162967,0.4103274176201581,0.44756920616361695,0.5626500039880904,0.6419626075709717,0.6471484560244187,0.6005726983315447,0.5642869773714758,0.5289466729139045,0.5508431925719748,0.5782876463756428,0.5944446847045732,0.6021850533335162,0.616365332748722,0.6098851393243874,0.6010297677729799,0.6017607233469691,0.6224304764185518,0.6366507061006552,0.6296426375020485,0.5829464237701911,0.5207922949322374,0.45632176449923945,0.39216392038479153,0.38892745268718887,0.4499188335693276,0.5167657066024605,0.5735650658297828,0.6097426155110628,0.6441764969814421,0.6948569546703753,0.7815162632850057,0.8815695723505019,0.9382220681348725,0.8699105082056611,0.7542358681314298,0.6403793185286712,0.5139374867398017,0.39655816647245556,0.37910262528650307,0.48222371422460997,0.586858161884559,0.6522261404184468,0.6711341437239815,0.6537231865670274,0.610270711477098,0.5831411198386713,0.6141769217398894,0.6360699350689933,0.6354332673840188,0.6250074032519763,0.6203579755900122,0.610915922117655,0.6145990337655443,0.6306389947975624,0.6536217508632385,0.6558893354449227,0.619188147903925,0.5569813996044277,0.48630647728502074,0.45697269256305484,0.5162798235843331,0.5719142254251124,0.5983009460821416,0.5855907052027165,0.5614201326942259,0.5537478658715713,0.5536750980283531,0.5564132141207976,0.5711814428836486,0.5670942618100798,0.5464834472257878,0.4960470500446794,0.5040050932643143,0.5629575808973972,0.5849381325090679,0.585517565471064,0.5230353648795454,0.4152341865456335,0.29605293755035644,0.16822198315118841,0.056206314852670136,0.0,0.0719221676108619,0.1846761948500184,0.29995990466632305,0.4224320444932128,0.5477615631433541,0.6612787199487133,0.7356870216478142,0.6643705721537545,0.601678537401912,0.5697470254428603,0.5281269831653157,0.48380287758339646,0.4191545397485874,0.3499598491214275,0.2953888280982553,0.280786567561234,0.34414662037221655,0.4069555896265227,0.4731792055222366,0.5386363095071092,0.564479992966735,0.5481441267663971,0.5454419865813556,0.5351322014607574,0.5374389942294231,0.5515388441429296,0.5395635717315281,0.5276511982538339,0.5262421212827499,0.5052831308462031,0.4543511442504453,0.4382434929783545,0.479791267914329,0.5235773137637159,0.5716317644336799,0.5517267219034325,0.45289033259256195,0.3426856810528851,0.22523780696889073,0.10755175964376784,0.020207651628987744,0.07227879158038908,0.1839438228598973,0.30241448200647003,0.41677014769156173,0.5415691247140968,0.6645772592020815,0.7512691070785795,0.7064276301499417,0.6202685237551182,0.5691322657905888,0.5300637579296672,0.4823148336957517,0.42658943249945525,0.3543179189890835,0.28236611960623037,0.2537651582828748,0.28118124424840785,0.34535566971029663,0.41075711827204486,0.4741705576534607,0.5205025367964216,0.5224634326045985,0.5126061356977591,0.4866723100300332,0.4751620304711297,0.4702231253655982,0.45633183377277575,0.4522982657074368,0.43951190525584494,0.46026344516800677,0.4648737548799313,0.5237657901748562,0.5869935495800878,0.6005471105816325,0.583698055811881,0.4958949885560706,0.3867854990181381,0.2744281863149456,0.15904524042363954,0.09621091659942982,0.16518408134328721,0.27894563636052805,0.40122881264417964,0.5295876751005673,0.646704639181999,0.7623265923485478,0.7812535791719304,0.7011396874101203,0.6452438009941637,0.6143877913298761,0.5834804806901381,0.5229659520297116,0.4589056302883874,0.39191141196925905,0.3381447571418157,0.3521974292428798,0.4053689375686922,0.4729873123737911,0.5265708867386407,0.5679187883649042,0.5797685875334655,0.5738737352357344,0.5843470390879766,0.6347476114663029,0.6968667903097199,0.7275507544156663,0.7454462838218658,No
0.7848350172953693,0.8086438975954509,0.8086824464131217,0.7953641892184455,0.7985517277596426,0.7560403471879944,0.7057009205582325,0.6684059894727934,0.577708010034728,0.4770190486931929,0.38035176793472525,0.38810192658523146,0.4878740135071493,0.5929313510782119,0.6865470386422432,0.716356137702606,0.6926093234735626,0.6451066577931392,0.6737974243554312,0.7261954323942232,0.7754210643181891,0.7960670657717182,0.786948091259827,0.8041351469815741,0.8097130385409201,0.8136919936281468,0.8108394471409155,0.7756915571246412,0.80038973900824,0.845773197981623,0.8232901415008156,0.7567158287215054,0.7090457618672241,0.6909788333184328,0.640519748622336,0.6048050378339065,0.5886695048780575,0.5862381055921961,0.6128821912105438,0.6492446198965336,0.661985210418778,0.6343515217236897,0.638680632302588,0.6861627911653154,0.7546982682757117,0.7982083077452278,0.8431274188517648,0.8669781352785413,0.8761494545753759,0.861537370907747,0.8539985160895158,0.8538779190449342,0.7878487785183061,0.6881804668032774,0.5829935745739023,0.5223277075259691,0.5928909789021328,0.6998183751977676,0.7793800292970285,0.7985676149822352,0.7691677375944637,0.7333920609669082,0.7660303709991294,0.7771096534999025,0.7891895678247045,0.768209374596482,0.7466970772808859,0.7022390985696862,0.6619804957995452,0.619482412037053,0.5714338033974498,0.5828603542605064,0.600771531383054,0.6173760205184311,0.6046482794100649,0.5624019763084629,0.5225385770964057,0.49303514702066487,0.4568036802217179,0.4070636161394674,0.3996815119791868,0.4451030718732305,0.4904179388682177,0.5416703086891066,0.6110509249521661,0.6726022098771915,0.7455689322114427,0.8036306368373713,0.8528793518927791,0.901529597552734,0.9678296669601796,0.9750596728770708,0.9489004618374457,0.9631731096117089,0.9549470934102331,0.9237755626333093,0.8618241219716314,0.7660110551580028,0.6673523045964806,0.5626902067535,0.5584912969274032,0.658079491027177,0.7416948237615579,0.7571130142469649,0.714871895648133,0.6590062679684854,0.6246142729943656,0.6247883727463357,0.63652304608941,0.6153344816015958,0.6067082130148154,0.6518356450774347,0.6959739036534534,0.7601722316147925,0.8111578785752309,0.8550848153425901,0.9205676802732934,0.9783073939951201,1.0,0.9626281727225416,0.8966536056809802,0.90668636957703,0.905210826093704,0.8537568103560211,0.7870668282640394,0.7363215069615783,0.6885743122345547,0.6192974166118104,0.571659583734168,0.5257961602290147,0.5265466131980774,0.5468357096272647,0.5365620718582242,0.5332797364911164,0.5878858413841814,0.645089245262835,0.6552588372150989,0.5669101479805385,0.4611528758056571,0.35058217638278144,0.2579114256887367,0.17787840015176482,0.1643596800578515,0.2510431526861816,0.35893903988017595,0.4631809723376832,0.5746683113961661,0.6776705579515738,0.7777703392518935,0.8291288014943552,0.8572643600458756,0.8633858780429517,0.87066252984985,0.8692974608276027,0.8210072569524112,0.7610603445629942,0.7105925503419854,0.6399533445682684,0.5791046634194039,0.5145037277085782,0.4507468403838697,0.3915191069887287,0.34604146969200844,0.30976021992768343,0.30979689589752857,0.35222378804751564,0.4045557297423126,0.4388361391615563,0.4674234953363827,0.5071712005139188,0.518766725340118,0.5175105487466891,0.4911187833575985,0.48795129655829106,0.5304162201053564,0.565745206564102,0.6120927414169266,0.6546533296350359,0.6902880397562785,0.7171714066962873,0.7042656090294046,0.6927596396699371,0.6577225955417916,0.6636781146172179,0.7075719127196187,0.7188895415053294,0.6459104614771687,0.5331574770527565,0.4156779826896222,0.30171972123463187,0.19942182323425284,0.13545732428761736,0.18630328814055108,0.2912644672713012,0.3945280825448778,0.48881419381071156,0.5775347582378156,0.6817945039175983,0.7603986761517989,0.7758331654660937,0.7892221558653065,0.7957835809945686,0.7817918417917018,0.7492702863561385,0.7053085161636297,0.6401164823743426,0.5845697514521682,0.5493387192447647,0.544050451003864,0.5710200411457871,0.5652141195865901,0.5255425254150872,0.5027721584355951,0.5157861001479636,0.5411901832325716,0.5715627407392341,0.6108209018239452,0.645802511197231,0.676006297297604,0.7390006248120211,0.7406567833799729,0.7083883555724317,0.7300062570159658,0.7455087884855867,0.7427014029931112,0.7333476908822596,0.7162442782830203,0.7301384200555785,0.7068296230527764,0.6516083910072732,0.6017166756544263,0.5669490516050666,0.5915301605410059,0.6431703560303847,0.6129184321003964,0.5133023387667124,0.4038432503295808,0.29995804936397397,0.18862324988280044,0.08588068922207004,0.0,0.014752461584704335,0.12016114991917393,0.23759633785425205,0.3540928431941932,0.45800879061426647,0.5550591596453169,0.6266109473606525,0.662151077290384,0.7230307561657159,0.7365990832411007,0.7339963576472024,0.7366030098282206,0.7406896637609415,0.7006980765186488,No
0.9017784939656592,0.8975450941584611,0.883798567232625,0.8836652881425731,0.8772332721795766,0.8432095432378053,0.7847467953450078,0.7174700801461711,0.6884452561517644,0.7328958920480408,0.7783513159345095,0.8264125026335263,0.8527698601811453,0.858855191442391,0.8831966187080109,0.9275702260680689,0.9050548479907561,0.8111423557913793,0.7045880001533678,0.5918918775275186,0.4846753347255337,0.5045148505817632,0.618124749596082,0.7258747177762612,0.8347250092919944,0.8907241571309745,0.8577523060699557,0.8177165655245631,0.7797300470044681,0.732674277597817,0.7434472187960934,0.7765733776687269,0.8202857965491148,0.8692569059709925,0.9069891974676909,0.9006080876762352,0.8905338027442413,0.9021997912559856,0.8960330113767463,0.8995705552552073,0.9004846807396856,0.8871969130858992,0.8654556869090433,0.8253623312210241,0.7593436505010365,0.6930104625706068,0.6594568665129836,0.7060294376827501,0.7572635727834176,0.80360069398079,0.830588906469873,0.8386808424659358,0.8653055360967881,0.9154212230412719,0.9769852299333568,0.9430840385863561,0.8436748032082457,0.7322852142357048,0.6254548925016037,0.5178867202360151,0.5060711619797105,0.5904201994486185,0.6861032842489929,0.7960837151370024,0.8968689032047878,0.9291323384961165,0.8917167765365441,0.8579644355186016,0.8100894038593034,0.8137676084250662,0.8350035340585888,0.852486404574901,0.8501418655740558,0.8605078548303093,0.8520479812388011,0.8537789961984017,0.872445274487367,0.8917647868752145,0.897842921885196,0.8981549261549651,0.8954372009584941,0.8608181833323783,0.8018025617681972,0.7352835817370118,0.684962950909171,0.7123540650245417,0.7691838062244969,0.8179224380794148,0.8588681208586069,0.8887058476405452,0.9131565006310112,0.9273144114903866,0.9968274804517927,1.0,0.9261821607664484,0.8235940833376363,0.7155813280130618,0.603924965942364,0.5282780590655878,0.5993215221990082,0.710614606730994,0.8204166277469191,0.925497041545992,0.9813589746507976,0.9415430344867954,0.9053360715524703,0.8600669307254227,0.8330036443163564,0.8567808609351295,0.8836639793347465,0.8849464752263807,0.8947959345004373,0.8876684060773417,0.8786024125764373,0.8877138158025488,0.8993513086218328,0.8993582776517259,0.8924603649228966,0.8980773511788422,0.8552362840409864,0.8056247257956839,0.8238979340987229,0.8320623434216925,0.8306750003071071,0.8271878663574106,0.8192701285918798,0.8134853885566753,0.823950776341829,0.8227709068620719,0.8209174075636607,0.788693582763881,0.7638290673223009,0.7841100997365191,0.8337143615410243,0.8560988554801066,0.8018868475984879,0.691519743036634,0.5827403637933144,0.46919067079891397,0.3607423555932425,0.2436762134342607,0.13723310104944764,0.03413809906896681,0.03559247103067387,0.13506339778548915,0.2470748577361448,0.3567273908102053,0.4731427546531579,0.5798677936003664,0.6964452451956138,0.8028087202272389,0.8902006941488492,0.867842800291712,0.8387373963978035,0.8134190860328858,0.7928695858292154,0.7513403937776517,0.69331751226134,0.6364873589930689,0.5979280251922505,0.6353699126458809,0.7001224290045931,0.7693851840169623,0.8193868931355248,0.8189583011290997,0.8187076130570037,0.8134264089310523,0.8104697256190692,0.8000568163098309,0.7850641325535688,0.7836225062760742,0.7848108084206875,0.7919981456980154,0.7711184024457913,0.7444597432664435,0.7244243111694137,0.771684652251309,0.820918499550602,0.83331642702109,0.7975032118361445,0.6961754383635141,0.5817791471973583,0.47414840443043893,0.35537701592410276,0.2358159170618963,0.12298036895381692,0.0620867741340998,0.12248891506134374,0.22814165762828198,0.345575269586317,0.4525075818281912,0.5676001089949363,0.6747282997857331,0.7855916931382434,0.8633530165532037,0.8306706252567726,0.7980684524092116,0.7786683750736665,0.7616853550528608,0.7128113517962378,0.6659677357818272,0.6083284440881229,0.5767619948625957,0.617056833101679,0.6891616712090753,0.7590318144513839,0.7984218482713303,0.8092273228638618,0.8292690694249059,0.8377158870471146,0.8369270271748448,0.8403217488669057,0.8312252982688197,0.8334827982424398,0.8266006742898893,0.7800237406723558,0.7321286955623005,0.6966455429383909,0.6629841809881576,0.6505390250316485,0.7059791957216368,0.7528223191245029,0.7772364465958037,0.7221067667091607,0.6162651836438355,0.5021304196275884,0.39174052435567885,0.2803675675734665,0.17165580818210024,0.06318951033057596,0.0,0.06452110255459109,0.17653505447983564,0.2841492181220424,0.4003845375380939,0.506846667482113,0.6169392684334434,0.7269954216081418,0.8224492053679513,0.8233903568599161,0.799786869304334,0.7867831179635267,0.7837744605503452,0.7473462654092797,0.6930735969877615,0.6442438170426179,0.6035169859284668,0.6342816454342803,0.7032147204758687,0.7713718527606108,0.8156530747301809,0.8102454332446749,0.8252976395620899,0.8232783560193639,0.8235594816797036,No
0.9772428888741442,0.9814678530980776,0.9472815780790393,0.8588332537525398,0.7572867354883013,0.6691387922100798,0.6834491645716623,0.7834686694941551,0.877709144395739,0.9603195105156408,0.9943460330534857,0.9623555392656182,0.915048201871479,0.9151938078005404,0.9473681711081394,0.9636853053482783,0.9591184637405912,0.9667722052962799,0.9688505630865734,0.9681725960122047,0.9574788789451298,0.9297440428751462,0.8762788306052969,0.8240075185677986,0.8326178769174908,0.8780670260377972,0.9147629118431839,0.9412269777782332,0.961245390660461,0.9762842234441058,0.9816150420332279,0.9524537729925908,0.8650315055831743,0.7699012051877132,0.6671440373669564,0.5812031261547101,0.6210073809187406,0.7236323940358804,0.8196713843610504,0.9196213762610819,0.9856005962576571,0.9744730436304685,0.930526321550025,0.9145177046240882,0.9438648906566909,0.9591134907117278,0.959740123557409,0.968340337510017,0.9682339774839004,0.9581251230835666,0.9426295799091304,0.9122490901596649,0.8576028481787594,0.8149968312131131,0.8388988276982168,0.8791059281972988,0.9136096395366236,0.9415061345784388,0.9580920328762634,0.9652236081747676,0.9762218013472597,0.9838834413702211,0.9199163510722765,0.8249922163662584,0.7268682364740731,0.6234411596258336,0.5877288045266014,0.677935137454537,0.778346051737046,0.8708072563117077,0.9556897085029041,0.9863917106989992,0.9506046427595798,0.9094949287567415,0.923878346418834,0.9546889142161563,0.9697926836820516,0.9774443488928684,0.9774296703092322,0.9698709211121048,0.9615608822993698,0.954143873590602,0.9294083720222306,0.87666620042738,0.8339687053512563,0.8518363830610312,0.8943021900973653,0.9301291370964069,0.9575399625301004,0.9749145919419286,0.988184576790623,0.9933951086115191,0.94995527238005,0.8602805821328647,0.7599888452891956,0.6696473151077564,0.6902406986000937,0.7823191135577015,0.8818952810876171,0.9652621447142902,1.0000000000000002,0.9664723421599117,0.9219214256676105,0.9206304491370505,0.953249324754976,0.9683664372106391,0.9599130242787675,0.9315501945108526,0.9341382949101311,0.9110511718556038,0.878333845918468,0.8741059449083763,0.9159482498260882,0.9385501344299045,0.8715650073218117,0.7756745769196438,0.6744055636700155,0.5780527000882711,0.47336271988845025,0.37490883559144517,0.27563060347108137,0.17111686520078973,0.07680025207271024,0.02715385552434446,0.09331884882151686,0.19699430447428412,0.29594043659397085,0.3947131933518344,0.500067119301929,0.6055769822878929,0.7110308898916256,0.8118007497260857,0.9041787850351237,0.947926710557174,0.9435817789672731,0.9286186960290317,0.90187288832172,0.8699563578796286,0.8272636196288305,0.7890772318457848,0.7876237907186547,0.8340388402992625,0.8902565632402915,0.9100544405400484,0.9245230444081411,0.9317497002024433,0.9359501521728559,0.9343398309241044,0.9255874685866574,0.9070787470196195,0.8729700100663969,0.8605344707375526,0.8836075064299755,0.9290147837520306,0.8932946861278184,0.8028835306350206,0.7082735435911112,0.6043448764775701,0.5034900722402373,0.4064766145725405,0.30138492016504825,0.1983507495936494,0.1030699269347255,0.021039246584214855,0.05321890840454779,0.1457277283234728,0.24982310832665022,0.35446011321118553,0.45029543602689337,0.5527591827852578,0.6581108259856836,0.7572326316067108,0.8547290247820645,0.9256674082867036,0.9263039412243621,0.9115605491258794,0.8928888824342269,0.8629012204333251,0.8268553759739758,0.7864410122118801,0.765367835755326,0.8011197016899876,0.8552118398330315,0.8998838572402976,0.9181820959953215,0.9225451002349578,0.9221601526176306,0.9171244759635531,0.9197694795884066,0.8953210189384169,0.8658540987732979,0.8748989124053279,0.9224025535478313,0.9194195630714288,0.8358891407292888,0.7396532029713516,0.6400841293954185,0.5384604911122601,0.44211830986962,0.33723890346859453,0.23172966981930432,0.12686044729813828,0.04715970849895035,0.07591359240035023,0.17021965638552672,0.2685954956948091,0.3738350444159171,0.4742787536672588,0.5716427206385819,0.6761188244308991,0.7722650573300698,0.8707289207210549,0.9301808180854667,0.932279716296357,0.919150861642221,0.8967532043536461,0.8657392374901753,0.8252323169779345,0.783449036414255,0.7725994897963833,0.8180157016175722,0.8698506142074909,0.9077112817214561,0.9228214483638688,0.9275885761189444,0.9287151371988169,0.9244136213858127,0.9225664501525517,0.9159930735551891,0.8825019577230855,0.8606572650700215,0.8791480015096209,0.9212755891077855,0.8817198592969373,0.7896687621936895,0.6895689956886997,0.5871098356813889,0.49131609878068083,0.38683012560365637,0.28742005945831517,0.18909925765818292,0.08487338500033159,0.0,0.007453135095420116,0.09705399429276884,0.20195008759911692,0.30745958489817293,0.41296944788413614,0.5184604857921802,0.6207675171583507,0.7166791262504881,0.8174711941809651,0.9036123639829492,0.931971621394853,0.9385538710510242,No
0.8832835582429812,0.8945409074146018,0.8717906965456641,0.8605649477344248,0.8875392473088066,0.9014227850674303,0.8970399315781266,0.8981362039602669,0.8678835354323424,0.8274500365220949,0.7624432931202199,0.6806447910939535,0.6491941988206951,0.6780490490589681,0.7285051062073729,0.7861644982502614,0.8284414394055224,0.85827844455028,0.8582830994102362,0.882042906018143,0.8943279728325702,0.8604791561884113,0.8018594956908984,0.6989579566952804,0.5886777520803106,0.4764965630741824,0.3804809131230118,0.3645821238598024,0.46857832144640454,0.5880879870661557,0.7095126446872846,0.8289930902870997,0.9361457340188721,0.9514890127999491,0.9328837707770412,0.902718899152382,0.8654800829766822,0.8204593623465244,0.8497139206455064,0.8940126563837296,0.9047880326175299,0.9008391690471531,0.901754556159716,0.9035136468433764,0.8955824437025237,0.8757893015315368,0.9006124165561253,0.8844256841699178,0.8665797954891206,0.8592007948550173,0.8685065900797286,0.8622076942683239,0.8636329182778719,0.8751989553453465,0.8852959694233808,0.8701774047732092,0.8683174837646126,0.8485049710486954,0.7919316529214733,0.7194650873422308,0.672524213569266,0.6691296222221399,0.723453177176498,0.7794261966627789,0.8188863942001263,0.8661642040721746,0.8872960962417098,0.8903110117954709,0.8823310083720348,0.8655088074867989,0.7991982539488811,0.7022542631885744,0.5922463284541184,0.48054930861453427,0.4295836571475986,0.5218628564271417,0.6496782220477613,0.7802615156709338,0.8918579588323223,0.9516510283297852,0.9541374636395026,0.9369109775659505,0.9099826632265398,0.8573394356813515,0.8691301858677329,0.9072594390134565,0.9249845634804412,0.9312193953009125,0.9344954183961836,0.9309534001192263,0.9497874905958361,0.9631866657773034,0.9523334655093421,0.9477141833442744,0.9567587501479182,0.9720311303918625,0.9925010640553178,0.9834993466475681,0.9874657902283897,1.0,0.9941961288785959,0.9923649288716283,0.9716932244721486,0.9148941586407675,0.8473073425179445,0.7808809552928997,0.7537774779447459,0.7914962793427422,0.8385659020967271,0.8979223138096977,0.9375800791362465,0.9716286264068335,0.9815364136077056,0.9881465719893421,0.9680658133457638,0.9257817564112787,0.8325231311391366,0.712258716061609,0.5976708131277855,0.4759503032255763,0.36003862409368903,0.24747712173178593,0.19690332500707086,0.24247939786544803,0.2859501122981607,0.4043752204759521,0.5352109361685837,0.6353705084984824,0.7133882603582027,0.8223870066436261,0.880398466437101,0.8983547755634835,0.8951741889162022,0.8671902757728964,0.8248094731225382,0.7744412933122846,0.7215287235985168,0.6742761914698812,0.6573682426299019,0.6712048448278347,0.737399068042345,0.8079042044569573,0.8680711225717905,0.9110808659064675,0.9177971033709982,0.9236610236237142,0.9025016030464377,0.8863133284936295,0.900817332714178,0.8862101346439726,0.8805857480550117,0.8646739254088471,0.871064138582772,0.8512340935202087,0.8565955038113273,0.8491356743384331,0.8431732470271625,0.8461245289569463,0.8439724841734697,0.8328279720460987,0.7934809292541538,0.7624376401444595,0.7846950050158004,0.8473521125638297,0.870995891156439,0.8697667615700868,0.8451345059123332,0.7365196250794885,0.6222343179488266,0.5285984630204834,0.41285726618162855,0.3000046208136071,0.18732545687556712,0.10657689377978086,0.15885921767404154,0.24927508137401144,0.3576165997427032,0.4745210191386753,0.5841705361547924,0.6930333282389731,0.7759722128128028,0.7933864887801954,0.8080207138611666,0.7988003309049079,0.7783820495385201,0.7432501104266507,0.7030291856586524,0.6402414248054193,0.5808725078665522,0.5639866309190484,0.5954175609166095,0.6590443644687443,0.7310336101127053,0.7813819553421055,0.7839938432327487,0.7927917565630693,0.7860546304227416,0.7865862056561435,0.7806712952170214,0.7825550124282383,0.793974503061063,0.7917941870322669,0.779335542059278,0.7840221797101496,0.8115355524132477,0.8022803470848037,0.8078351280832061,0.8130710844772269,0.8037430862951349,0.8165926783222277,0.8202335616296743,0.8311972249975148,0.8015854655073866,0.7522663610255993,0.7175917053452072,0.7663421907878885,0.817930492647108,0.8377441451356775,0.8336247136914099,0.7607084275581761,0.6421114701681798,0.5218003352728489,0.4011232163567353,0.28064611307853804,0.14962648620229357,0.033269572451543716,0.0,0.08430558607109573,0.1989052416890198,0.3175427609188941,0.43067825734222165,0.5435428041332857,0.6559275742554611,0.7561331812258483,0.8037197487334131,0.7885070353173127,0.7771931992011316,0.7670074978313934,0.7462607576604268,0.7023317381022278,0.6437174448603451,0.5890501054288206,0.5681977265282048,0.5693789593593674,0.6312272310523181,0.7179501234778143,0.7793970668853363,0.800263812014844,0.8047484412603612,0.8040278221398878,0.7969406036383861,0.7859960392443726,0.7940150804948787,0.806966036727621,0.800298966522246,No
0.9547832779193937,0.9226731866439302,0.9109815672260222,0.8622848278557882,0.8619613460900832,0.8984518237522661,0.9173354699551672,0.9254125169080711,0.9264709747379944,0.9251476567356169,0.9257941607910136,0.9122638085644375,0.8568031216000107,0.8179462099235577,0.8082469750437253,0.8039511115029376,0.796456267586855,0.784667186230604,0.7605542576592659,0.7143493676800552,0.6704223253420842,0.6797090632081004,0.7220036037467508,0.7603814860021201,0.7852403437235926,0.8034786153053295,0.8285977094324091,0.8197474476028845,0.7713764867279451,0.6984036084961378,0.594180732188534,0.4869854420351518,0.3910752815765437,0.352398755761,0.43926425039005723,0.5451614341459767,0.6429916561932201,0.7410611057463026,0.8326821919082197,0.8996070756341297,0.8867747103659362,0.8615856756447005,0.8402990983743055,0.7998554430082674,0.8259260541498841,0.8677115929461525,0.8945323386647255,0.9256253019917273,0.942543629237464,0.9627597269844719,0.9865644263256468,0.9802536297542321,0.9834279472949028,0.9637056809442521,0.9510332819867244,0.9411186805360661,0.92250912303503,0.8837380304103619,0.8277943079113159,0.7808246680977593,0.7846571741641593,0.8216444725977028,0.8516239515469501,0.8704989219307926,0.8922950561743681,0.8907616127552198,0.8663067392847892,0.8062245549408127,0.7262938182560159,0.6307621357756505,0.5258619154365638,0.4275410178053347,0.3207117448362502,0.2864248304352901,0.37995886310046156,0.47815391477642244,0.5842018531348256,0.6824987858751466,0.7630867881285672,0.8585618537146651,0.9325346900485685,0.9238037840768318,0.887856394660341,0.8642544502864968,0.8131092940529827,0.7986415612532625,0.8340413719080568,0.854095373738526,0.8571083711088376,0.858329792615359,0.85517521769555,0.8675715328710436,0.8797676646359389,0.8876212841870954,0.8922703270761461,0.872308431786569,0.8771915990364674,0.8734684663539496,0.8448294797828528,0.7929325364265489,0.7525342685887288,0.7788490640656587,0.8199377527806009,0.8594853176143191,0.88608227830575,0.9125956623483091,0.9289622085266744,0.92776917216757,0.8902267021413981,0.8151923874149851,0.7230875824294274,0.624757163960628,0.5227954721283243,0.42125492766435446,0.41300963500320487,0.5045255422082859,0.6078766968913891,0.7176705013584739,0.8217829233615865,0.9175154454509729,0.9906844814366336,1.0,0.9800096975027248,0.9483673002581803,0.9355264680185882,0.8913587839336277,0.7969596626769899,0.698613106966913,0.6004752305960048,0.4960465331388173,0.39714181559532546,0.291618872006032,0.1932480676973527,0.0906744184168844,0.06867085361579606,0.14731335306899607,0.2521162789355449,0.34994627385869803,0.4570855183210103,0.5604442239728868,0.6603123588124555,0.7563355542239028,0.8387035834866636,0.8763385504787813,0.863246534313904,0.8376192911216913,0.8128077932563333,0.7673009848627372,0.7272738156778829,0.6954597289818669,0.7129683688024131,0.7607693464998881,0.8117452022255982,0.8277144203402216,0.8194058666975974,0.8339873140052285,0.8419263081778534,0.8284770642421617,0.8097448426295148,0.8052369983254413,0.8023241580987488,0.8108562810912989,0.8025265220879443,0.7892861656119887,0.751429975046753,0.7262714315737147,0.7637392856909502,0.8182162016356482,0.8381222512635285,0.8368256668632355,0.7553317202131211,0.6562156056488853,0.5587360194491331,0.45184627899999574,0.3527207162746313,0.24758504188842156,0.13914178841589053,0.04476383459797151,0.0,0.061286261453417534,0.16187988846907952,0.2595155182342128,0.366508576444625,0.45678784916621185,0.5390962646012634,0.6354932518455594,0.7343528040817864,0.8122256194318598,0.8443105628277592,0.8339998409002485,0.8202797588443942,0.7905480831216392,0.7550948726244351,0.7223012250957579,0.7352508156334769,0.7825633184947418,0.8453660428477625,0.8762913357857407,0.8914332530464519,0.8975468348652362,0.9118809626788638,0.9256858428620318,0.9196330832873776,0.8966817111089003,0.8767904744540513,0.8472591995051073,0.8160154140712601,0.7767761709564032,0.7365471942432369,0.7560659176825131,0.8037093211494035,0.8170589484581918,0.7972805384027533,0.7085283358642074,0.6101316738859222,0.5083629937364376,0.4073848720318991,0.30821919954088406,0.21180788758258862,0.1261849393104857,0.13156626162627028,0.22218495906029156,0.3246405407687529,0.42284645803938226,0.5266957556872787,0.6238070659803081,0.7138090855151211,0.7657694365053183,0.7659384939521257,0.7480093187717354,0.725407190459106,0.6884585575742546,0.6463882710571891,0.6111665176854149,0.6184339729325399,0.6627187297711803,0.709557062607789,0.737256985072595,0.7449799989576324,0.746947242132177,0.7563566684413652,0.7645790992346493,0.7903078472132994,0.8454375122608488,0.8729839919071178,0.8771508607081624,0.8739557272571137,0.868180521824677,0.8524983660786556,0.812737116054107,0.7889322839414201,0.8269671233138145,0.8722231070573248,0.8744505145640118,0.873104597289823,No
0.9204270771023029,0.9358307361764835,0.9475321688186775,0.9220225967544571,0.925730469434392,0.9468866726544314,0.935708517109211,0.9350929938230053,0.9205396920759332,0.8840359648237563,0.8311059255763626,0.7768905412104576,0.7245972828235834,0.7226392920854856,0.7880882999476806,0.819539407820491,0.8347969515971858,0.8737861143598709,0.9131036706146753,0.9006976687028541,0.9267414448876106,0.8906034558410747,0.7702010513406656,0.6528776213586771,0.5392402805966401,0.5513029508726732,0.6712019400680993,0.788570365682042,0.900326664600946,0.9541235169520785,0.9483023806392961,0.9293765742311857,0.9133340092093216,0.8676641405647394,0.8580472583068484,0.8885612605496451,0.9019589344702768,0.9080101751020297,0.9180801130806677,0.9114986472792843,0.9009787539064731,0.9031087974520706,0.9180755960667479,0.9222430869196492,0.9501164860948146,0.9087283095559688,0.8628329404831478,0.876209441901882,0.8248260035509567,0.7659989895840513,0.7671380154082144,0.7895668040402448,0.8230242606497025,0.8627551505728075,0.8683129799648337,0.8981237843452092,0.9175757450531963,0.9291670468287512,0.958704305112454,0.8870381797100655,0.7711094954692892,0.6531971436619499,0.5367857097634063,0.5483426188156155,0.6719831118684834,0.7892744980689312,0.9040262378870016,0.9633923214928068,0.9383708701218842,0.9576242114699482,0.9296348536532526,0.862497661548153,0.8591976813937348,0.8987709000870492,0.9114970411115766,0.929471724342668,0.9191765282253308,0.9007031762181743,0.9203855238516963,0.9412198431904657,0.9192946118786485,0.9413741451372224,0.9299906395164492,0.9494438437046231,0.9110162648436422,0.8540307363818234,0.822109018957764,0.7761620630160322,0.782379451371555,0.7668072711205354,0.785858020730529,0.8179698165996636,0.8408876247374697,0.8781956217337066,0.9043445614744807,0.9084212720514162,0.9574922957455922,1.0,0.9278835695745702,0.8083086928638892,0.6883878006445823,0.5660056608830168,0.45223104677203096,0.4277867286101791,0.5453741483728107,0.6652942512888189,0.7892629230370973,0.905721056972999,0.9785485637863096,0.9810957112086092,0.9818750213919207,0.9412173726670949,0.8952559239540543,0.9139727929806232,0.9112870509114943,0.9284760393709215,0.9605754569914118,0.9717668833948885,0.940541885797844,0.9458261105332286,0.9684168498490506,0.9660398247785165,0.999304734054502,0.951115471183479,0.8996382207851603,0.876482258462961,0.8843358451486152,0.8700304581320006,0.8605135331081324,0.88661987204283,0.8748411011102282,0.8457009971631329,0.8038679381441871,0.7681619156029047,0.8212340932404327,0.874740860818009,0.8857659065482726,0.8643443476558823,0.7741945805691448,0.6848672914842959,0.5993035634881303,0.5044308425346116,0.3770402172298253,0.25852229706345753,0.13323735830228323,0.022620574334745847,0.0035376262473634235,0.10837134925397152,0.22559521823818462,0.3532898290221982,0.47534163215969727,0.5975895630615802,0.7285094458659276,0.8426077281370472,0.8515246040238087,0.8359954896285307,0.8256225607510372,0.7748116117233748,0.727278472935688,0.6931167583490394,0.6812881238801496,0.664770802091549,0.659223537218991,0.7236991749881421,0.7716459914205438,0.8229661329905658,0.8587895622233637,0.8391940204912576,0.8397480019673669,0.8200108514469333,0.8083599832033901,0.810992170454071,0.8083408645962136,0.8184020028264665,0.836123518813348,0.8166974177493929,0.8199392123536304,0.7780542340414347,0.7939594053250159,0.8498018947113555,0.866706604633781,0.8744746619487382,0.7808391845614957,0.6591812446031864,0.5375171202030868,0.41808421711658816,0.29439609736380046,0.17729962058844784,0.07935704401258903,0.10200903297286112,0.21077200148214548,0.3396530733852918,0.45910963086281553,0.5804451908006603,0.6978064695851152,0.8078195769712937,0.8354718532966245,0.8190594993461477,0.7974344495865653,0.7676684400780389,0.7319135617914725,0.7014458417226521,0.6870516024128155,0.7114066413943956,0.7648000459813709,0.7803235706340397,0.8205903759082824,0.8630807586370581,0.8497703897446596,0.8379490887001575,0.8246859652247052,0.8178982932121239,0.8235875887219541,0.821356400926494,0.8278964269201148,0.7907102910687707,0.7708344280114532,0.7724461258576047,0.8299736385352139,0.8559713909310029,0.8440697838379854,0.7611410664389395,0.6455321994200034,0.5191404215370792,0.39130979062418225,0.2737624185915166,0.1453210732152499,0.034150851790492265,0.0,0.09835682080234776,0.22895964902823795,0.3579962312869416,0.4753720637562009,0.6016804951964447,0.7180229346110187,0.8103521699957841,0.8281875848750606,0.810605252189927,0.7878203969292499,0.7494043384335329,0.7101158912869701,0.6590713126110059,0.6447812655037164,0.6600392423071897,0.7151032565491771,0.7751592639043241,0.8262981402003442,0.8495673456466553,0.8453209824032131,0.8519648313206991,0.8532372254496754,0.8509665909751485,0.832129879015155,0.8328328627141035,0.8482213817240383,No
0.9777553264834318,0.9651171368095561,0.9446801376942686,0.9130394738830863,0.8741365324357864,0.825506090974353,0.7590934050885549,0.7150882749443708,0.7363863056355779,0.7930304872175002,0.8474480574402621,0.8874722370051467,0.9016854503692333,0.8960336302765619,0.88335724364124,0.8776984009266589,0.891327830125584,0.8582029137974916,0.7733169040593622,0.6795960000789683,0.5870745761285041,0.4946080520273275,0.42817083789259214,0.4940253910513992,0.5957683175516368,0.6888255179877947,0.787565094611179,0.8483905275666304,0.8215273141369981,0.7923311344237078,0.749717233121306,0.703589243674908,0.7189999313373929,0.7407801766950677,0.7632682567966176,0.7751317743142565,0.7824900846661287,0.7839387396697368,0.7804922157327707,0.7762579764157607,0.7673564160077044,0.7510013363261494,0.7671645250250101,0.756200322224654,0.710622418985569,0.6551456104193469,0.6505920662809224,0.7071409228457546,0.7624428515896955,0.8197196325368721,0.854724775808412,0.8814459700706843,0.8941687878590112,0.8865280234509372,0.8813292721472814,0.8670591739735578,0.8954088625937018,0.9244835656187866,0.8622670066994396,0.7844030902542951,0.6947864775165795,0.5971165042392255,0.5089423965359472,0.5233551936478509,0.6123421103901026,0.7102218015320372,0.7997183033906692,0.827254980762772,0.7875692274494248,0.7543966188438473,0.707967303418233,0.6609376511614513,0.670917281266149,0.6861926629775221,0.6905492287176409,0.6815016156433813,0.6754893469740983,0.6498285653164972,0.6502822269007746,0.668289271223512,0.6722195734525209,0.6439362725295321,0.6170309630856308,0.5818629319052258,0.5304980227895986,0.46614352388021785,0.4267977186930154,0.46037672390186324,0.5188529629501402,0.579970899270785,0.6417833376959343,0.6883742928968604,0.729658962204027,0.7624152598498719,0.7882405459533428,0.8134208904539812,0.842041819534957,0.8858477910285105,0.9420085015481041,0.9137499457015614,0.8257873348897433,0.734983502075871,0.6431265630439953,0.5786940095435209,0.6389534981271565,0.7378981761011809,0.8312861339757889,0.9218379226604003,0.9625802117769247,0.9620800347542284,0.9731604103236353,0.9393009949367557,0.9589086016030548,0.9890299253598502,0.9999999999999998,0.9982006457695929,0.9815662114889332,0.9351919525134302,0.9254772235028093,0.9351295697647715,0.9276283635180824,0.908854544125987,0.8689855465374878,0.8530690228964841,0.8925947613511578,0.8903844273288188,0.8494348598537258,0.7658511410764921,0.6725076923447564,0.5736391768136644,0.4804386116060064,0.3798030385402067,0.28405289486306495,0.18656242045323213,0.08866315016236181,0.04179103249962446,0.10052588456736733,0.19511292004258318,0.2982824260918322,0.3959140451301342,0.491570377415284,0.5948289074566364,0.6953629239799353,0.7858384137173859,0.8184882349770228,0.7654643206424467,0.7395642525228341,0.714272376402729,0.6965027089555684,0.6655339712043069,0.6134310510083558,0.5640616529985174,0.5072176172959686,0.44356320652720904,0.3878871324661741,0.35671733969866337,0.38616618450150675,0.44527435816153704,0.4987355862365275,0.5415818706849265,0.5726009032132884,0.5941236816754631,0.6010827184973027,0.5806465805190208,0.5777040009450951,0.5851982272595617,0.5968983437115003,0.599348841117034,0.6162203765255814,0.5945791427561724,0.5858142923487832,0.5924609378463963,0.6506643711201547,0.7023376182799559,0.7344563591562212,0.7339529101044986,0.6504328848250263,0.5505779548637808,0.45732656544001515,0.3548859480271702,0.2513704998174331,0.14857195560647818,0.0648059348998744,0.06738135547118107,0.15449129107195603,0.2483621968615446,0.35087121975620694,0.44577118725954556,0.544191081019896,0.6426565819370456,0.7354179193624744,0.7987462035473156,0.7883792647564662,0.7958130743702154,0.8154661399233027,0.8084527095721799,0.7840043010465825,0.7447849547839083,0.7012343512967438,0.6412755881613765,0.5834337938946346,0.5459692363552937,0.5709147464537503,0.6322631956383973,0.6753221520355284,0.6778531951611566,0.6888424785174998,0.6997788612563489,0.707955794489793,0.7026951501570375,0.7107418190100241,0.7055093019551857,0.7075811124730167,0.6964749560362755,0.6748078291305928,0.6517473182435152,0.6202883742164611,0.637834527008309,0.6942286694331001,0.7301710810678304,0.723935004036947,0.6596252434388903,0.5729151104323373,0.4764786120721862,0.37379987970971396,0.2799291448273171,0.1801435567063321,0.07712397579065566,0.0,0.03207467108198481,0.12926913927608896,0.22227043087240173,0.3238369291549106,0.424651244284203,0.5178341487524165,0.6151578022488462,0.7073371324486362,0.7945531159705623,0.8125208796698964,0.7893421049628804,0.8043934518067741,0.8228374988822134,0.8198606390319296,0.8141711696967919,0.7769593063457079,0.7225632049214872,0.6696266076493178,0.6342391096116409,0.6576331301982201,0.7212843351657832,0.7752034182181251,0.81633295099106,0.8602142643421364,0.8870239348116071,0.8934311777211958,No
0.8917294711683572,0.8827417646351454,0.8801465994604569,0.8621814354362389,0.8540248417453269,0.8716631380283963,0.8644629602844434,0.8751756426490285,0.8857087532183086,0.8843221750695995,0.8752152302220286,0.8681780382650481,0.8175556118560798,0.7597344558220664,0.6990609079682157,0.6528224052758811,0.6630478326931739,0.7218019018739732,0.7629744454639436,0.7912768098190581,0.8192312916234525,0.8510630581888574,0.8953658950843424,0.9619170159867443,0.9999999999999998,0.9423537580134969,0.8574480963192761,0.7632565363475179,0.6701739443847707,0.570213504113094,0.47041121317301493,0.377074948858507,0.286644704442631,0.31372327816858414,0.41286385580485585,0.5055530322913586,0.6067504405499398,0.700987094756478,0.7932127204645714,0.878529496147596,0.9032788970744365,0.8975077909533928,0.8811418711009618,0.8301876797639778,0.8149490238242472,0.8446138880071807,0.8555456013931269,0.848423742402374,0.8510110984448389,0.8478155807631647,0.8303640304218642,0.8241563866041941,0.8346888207226091,0.8336341363337987,0.8393351198494734,0.8604305363345148,0.8507835632413301,0.8643702953801611,0.8711426890021692,0.8994885407340953,0.8871182443817351,0.8800285041427627,0.8866656606363559,0.88078257300338,0.8457862798578935,0.7906534823893752,0.7337663934877632,0.6807414181059854,0.6619834043070225,0.6951926425733326,0.7530622173383759,0.7916764653590118,0.8256245025431446,0.8501632058716753,0.8637826861169564,0.8967359107539596,0.9577242160436954,0.9986824067890858,0.9493977046980968,0.8604830896337019,0.7698177519028271,0.6715821206449928,0.5716170345260851,0.47839304038418096,0.3791911874602576,0.36131581381552813,0.44778187994178986,0.5447154009059572,0.6443025356736165,0.737247522479523,0.8256857363336836,0.893540079666223,0.9171047384261313,0.9040429978149003,0.8971564886936878,0.8475741538921142,0.8460345811962953,0.8575043849693802,0.8825013227804106,0.8900437360440032,0.8801643083487234,0.8775866833868442,0.8864270445641,0.8668707190503755,0.8643367436915887,0.8726666601654853,0.8470931572480376,0.833505697384237,0.8455015690510879,0.8383764488213263,0.8594825590139521,0.8609136497254315,0.8592037492025815,0.8478251436994027,0.8167315395918522,0.7648894079312873,0.7119680046053063,0.6400020680413137,0.6154097451641081,0.6640349298979042,0.6878922545683659,0.6725777769250805,0.6089436837216546,0.5253728010789913,0.4419709629281563,0.43084653528969197,0.4904840412183986,0.5515381623335955,0.5886505685596075,0.6545419218292079,0.7135347258466516,0.7592828714901712,0.7897484979856932,0.7811182406110981,0.7946393789252977,0.7923912123352757,0.7825632874460366,0.7809587344570355,0.7871389428041076,0.7806931986846106,0.7943494190751343,0.8026908192224063,0.8118426241368499,0.8124780356104562,0.8135422991474706,0.8125115051089147,0.8121931218555789,0.8149876462283185,0.8147881156770549,0.7879048133665514,0.7709019594854529,0.7805341259970702,0.8311253306884498,0.8485786011034884,0.8477783928779707,0.7905047463952874,0.6997145947544017,0.6026067772052606,0.5074405149214332,0.40943382209056534,0.3153210172922023,0.22145770317199331,0.12546438359428191,0.0673906981204766,0.11552129968319114,0.21348115021461522,0.306240393296205,0.4072057040287056,0.5105026024229204,0.6137305888421463,0.7114725236729369,0.8054030469486004,0.8869246266288331,0.8715305691497754,0.8270992711209131,0.8024782579247318,0.7837734245119548,0.7487844481196928,0.7423853404827849,0.705965123935359,0.6535191484378464,0.6057446142179532,0.6005682161633505,0.6219913516009055,0.6824914606839483,0.7421528802859869,0.7947643240081101,0.8332689189461491,0.8348868850457472,0.8178133426343839,0.8200274002953962,0.8131919776729808,0.8084676767575159,0.7980620311626139,0.8057785801805812,0.7839783822305131,0.7737996663808826,0.7820990741012872,0.7706813856624766,0.77127031795613,0.7798531127581392,0.7881160015686979,0.7978238007943419,0.799830820119743,0.7697770854826336,0.7493624526198446,0.7697989989956773,0.8245265287342216,0.8303255100273568,0.8043876551698121,0.8208491189101321,0.7570055378187204,0.6607356347796898,0.5679842519496792,0.465956447403411,0.3626544372122986,0.2601846970200985,0.16697307705293252,0.07031902849818472,0.0,0.03060719012753932,0.1251712366208546,0.21845282023643597,0.3207019574116299,0.4161391624820163,0.5133679744622641,0.6111283327735835,0.7059441324000548,0.8025450132532288,0.8835452868650726,0.8643489584589046,0.8163217871817541,0.7706764647751327,0.7467607823722207,0.7316673764047092,0.7214612990801366,0.6797420800292648,0.6305058274821806,0.5885410776524658,0.5964582554446312,0.6351338336207915,0.6980379121078244,0.7597359222750131,0.8115515294913684,0.8153021210716929,0.8254171852233421,0.8156338612549521,0.7984893696541058,0.7869285593950244,0.797356267763498,0.7990849137151608,0.800708047585956,0.8239197881100295,0.8090547924872806,0.8352903159169276,No
0.9726115031925568,0.9809298435460232,0.9724161323897935,0.9312583744027771,0.8662442265181693,0.7856438595916924,0.700581179282179,0.6092423970137288,0.5193318914463476,0.4320545176504962,0.35430086738713173,0.3929335121905291,0.4865347742133277,0.5813026144776956,0.674822645544324,0.7601292642383357,0.8466259982637958,0.920987536943848,0.9695590120591293,0.9733801724100728,0.9410974565513113,0.9030403341601894,0.9183596049941574,0.9480038734299561,0.9621036294933922,0.9629965064399342,0.9591854283233452,0.951928761986174,0.9610867168107713,0.9693331051424556,0.9614194379518783,0.9460517130808552,0.918759439415129,0.8744420643086281,0.8353165725319716,0.8596244501746424,0.9065181144297243,0.9483081509039091,0.9740277055055768,0.9935179524297484,0.9999999999999998,0.9829830877995198,0.9309583258122174,0.8623151626175714,0.780197484852424,0.6943524861704331,0.6082058461158242,0.5163857516082664,0.4308308329283941,0.3429722438878331,0.34633273000344955,0.436520674378835,0.5287478181208187,0.614355517484386,0.7044219118147483,0.7895728337905534,0.8717527212723872,0.9453503032252597,0.9809005839350349,0.9654058760531397,0.9218583384440493,0.9053976878580727,0.9407642093433639,0.9623079676257593,0.9682505148451181,0.9636508408308646,0.9630306499206818,0.9638360017290519,0.9728039634862189,0.9738790461857671,0.9622876207377826,0.9473912160094027,0.9126593699115626,0.8657521458022408,0.8362331719091618,0.8642087720815683,0.9113648917759976,0.949187937515622,0.970135128005617,0.9888668373136638,0.9917053362909145,0.9735481919050553,0.9201300390626954,0.8430735989864091,0.7614511763217291,0.6755756636687353,0.5888388032929943,0.49960900311582046,0.48469227260342507,0.5687542419631957,0.6550860833171495,0.7435982076787604,0.8270295047163403,0.9052376487205016,0.9679309508983469,0.9766988729045469,0.9509484164088009,0.9140055465374999,0.9275056138146172,0.9586032741324055,0.9630109703754786,0.9629462077580351,0.9577021833745454,0.9524422994362503,0.9638705333923119,0.9737843012549414,0.9641529474499102,0.9455403823665047,0.9107859962901632,0.8625281713897606,0.8236622996440925,0.8406829005276257,0.8815264698359278,0.9193440012077903,0.9402255392947672,0.9599931920958216,0.9710584382433034,0.9523760194421536,0.9318160618424043,0.9186795976144804,0.9021144300930597,0.8745704452607168,0.8333373822801751,0.7928373429811888,0.7755739203675003,0.8066952900618669,0.8557124933222233,0.8989994716838823,0.924287843625234,0.9349170400869735,0.92889589470204,0.9203934350983516,0.9205087770221982,0.9283552470295307,0.9326506233001479,0.9253688962473336,0.8930984846634866,0.8644795098043463,0.8829067848447003,0.9281536966969626,0.9261330120662998,0.8609353491776643,0.772807822745168,0.6861691766920637,0.5959293276012232,0.5092113668657612,0.4150154734025766,0.326518898836589,0.2378698522169309,0.1484178180480089,0.08178880461406535,0.10479568583535182,0.1851033003961935,0.27754985537124255,0.3674694751980703,0.45481595311057865,0.5493023496311324,0.644005457739582,0.7338077185804011,0.8166329837231363,0.8897239518997544,0.9403439564004963,0.9528242758572458,0.9383939855536088,0.9178973049577761,0.8836842668991205,0.8352528062526756,0.7993736509173908,0.7972427916810045,0.8368393992080916,0.883811230542517,0.9177441646826343,0.9317434531817914,0.9418761400443276,0.9350976313526849,0.9324777771971309,0.9267031299507991,0.9313228403165403,0.9322808824647726,0.9186413160950433,0.8830717941645931,0.8525861654430702,0.8758946909771386,0.9226847270191774,0.9244857345056257,0.8649150778977523,0.7841149532715215,0.6915479057108482,0.5968297126506956,0.5063241920319363,0.4194751564941339,0.3250933737137318,0.23187140596706057,0.1465207885983153,0.05632648141075025,0.0,0.04166822543677906,0.12732490042358302,0.21614473948117818,0.3105461111098178,0.3981884022311326,0.4878007080049196,0.5812802731021114,0.6665886519309279,0.7534932685481024,0.8405003582163635,0.9133231093192438,0.9518199811837158,0.9572462648036433,0.9418151028046979,0.913644416844148,0.8711052834199207,0.8215508737011106,0.7833924744250031,0.7948211162595558,0.840635250838855,0.8831870213903399,0.9143110457521868,0.9290684041114432,0.9276624771371369,0.9228320813402793,0.9190568430030768,0.9199693116751255,0.9211288900839232,0.92174566484246,0.9161551989249765,0.8842820687565058,0.8596923356776693,0.8812151898184994,0.9244955680756466,0.9227971524393641,0.8589260810745938,0.775820407957375,0.6882256243932352,0.6177783819260829,0.5334128331715879,0.4481516885185608,0.35521786320532445,0.2677443329336444,0.1780206339982604,0.08873831672397059,0.044025228345284884,0.0961258862496066,0.16915997180541198,0.25228315162928583,0.34396834518816943,0.4348827561738813,0.5213826944870339,0.6146709985391989,0.7002139618591954,0.7885324803014373,0.8663465015143801,0.9239239795943204,0.94323576146188,0.9307359611203119,No
0.8706723992203731,0.8654971188903473,0.8879861621298457,0.9097953947222321,0.9163588572882015,0.8899082984118962,0.8433772813410094,0.7669210064273431,0.6836127048628802,0.5991253644561327,0.525300965267836,0.5311437271167758,0.5982301100032701,0.6745911427216602,0.7497960477942067,0.810252783542047,0.8510663995449068,0.8822635130315595,0.9040530891351275,0.915756268869167,0.8738496243137153,0.7763908826413988,0.6825895867724112,0.5734285786936542,0.4525516232200979,0.3610125419066317,0.4413221031598247,0.5635495240538697,0.6842938534732901,0.8133817842177584,0.9278646452769541,1.0,0.9618880186892342,0.9373373819680744,0.9126859639771587,0.8525863684355914,0.8566893726981406,0.8898562072947622,0.8984827171957903,0.8879558646219916,0.8787945286277208,0.8726174146091306,0.8720396426042472,0.8599910288521588,0.8499327919571504,0.8700897773009606,0.8957295649763402,0.9094468205330872,0.896592711974475,0.8616045171511719,0.7969998254605035,0.7179924803555382,0.6377437454061456,0.5505131753937875,0.5154373702074584,0.5685074728030779,0.6403054306772664,0.718569567605023,0.7778330585605504,0.8266999172079594,0.8592027156339301,0.883261074371573,0.8967347307273403,0.8679544693745784,0.783883754622607,0.6722277753510442,0.548404344542043,0.43954655917153707,0.4515044156913306,0.5764707376069516,0.6835007732139009,0.782394747270899,0.8969048300711111,0.9900882326758222,0.9681367546356223,0.9272616603417578,0.9282722823119944,0.8987456836062253,0.8436152529192054,0.8639240362714289,0.9018074260189755,0.9047527952352388,0.9031465422903566,0.8968598207590324,0.8819007646689756,0.866720014124287,0.8480782749699243,0.8496557058688299,0.8614849457302709,0.884038692583581,0.9049999520599927,0.8930796889758339,0.8566275761592346,0.8158760400880563,0.736355028199585,0.6559016886221989,0.573171293314084,0.5174035468280782,0.5525813868886278,0.6184910499053116,0.6854866234275616,0.7522702782214341,0.8039586051382872,0.8468827603953355,0.864733643950955,0.8912968898234959,0.8869540190656862,0.8201881407911249,0.7097194086843444,0.5839730808666741,0.5335983474714001,0.638852397827796,0.755382531693348,0.8738317068483927,0.9572733711780566,0.938291727210268,0.9248015957178821,0.9061204852300091,0.8573818101919137,0.8504257999187472,0.896133053974272,0.9092123647234303,0.9089519821988081,0.8682526670287625,0.8342112451119497,0.8275573891942392,0.7824050561254281,0.7718220613068412,0.8239329940597533,0.8540869450007742,0.8491479564694044,0.781080441203958,0.663348120254295,0.5422874602563383,0.4191654985420712,0.2999181486729974,0.1885563483623507,0.15883397365364216,0.261947658097029,0.3903971777268147,0.5070306524812973,0.6339717920700374,0.748226841888235,0.8235250610319258,0.8147108384394373,0.7927367892988926,0.7616631534540677,0.7155691472893491,0.6536890648138898,0.5822458005880677,0.5156368373822806,0.4591941099213943,0.4636235299888529,0.5253988292005638,0.6093513255056711,0.6983626431147938,0.7651183788525624,0.8085451340691732,0.8396333053985976,0.826038143628117,0.7993478835725845,0.7774123503757244,0.7825386040957274,0.8054324734310567,0.8066974519448324,0.8245839171548393,0.8404743390880403,0.8508926968332498,0.8324606708134654,0.7812812881570665,0.7689772557056038,0.8249663095237754,0.8667442714907323,0.8580987909195525,0.8121740897874195,0.6920100604899795,0.5717919535835163,0.4485357150790459,0.31930370936154606,0.20257198814128463,0.07926291971199495,0.00021160119711094438,0.050078836582268416,0.1619733973752222,0.289494793048068,0.42068898105943564,0.5518372467580535,0.6765701479807111,0.7810755655897044,0.8296475218773418,0.8217586772661831,0.7942165241257042,0.757350548314903,0.7064851638199365,0.6369340746484085,0.5569629780058092,0.48468068667039255,0.43908968529908954,0.4558311483411006,0.5311024263746988,0.618540326282095,0.7041997547161305,0.7796104401994324,0.8241013756724933,0.8435704376583946,0.8316801444988116,0.8056263070576302,0.7947291871008408,0.7966806124322825,0.8113455942421974,0.82340688253678,0.8330168137503335,0.8331922491726829,0.8279644267536446,0.7867148254952672,0.7481039429310776,0.7971091047912138,0.8635470856179719,0.8835224399021189,0.8757602986576782,0.7862976940280038,0.6638410345222856,0.5376458726686408,0.41986801490903547,0.29097363702998225,0.17384950690309875,0.05356533489433213,0.0,0.07739841495796052,0.20060049003340685,0.318256186563747,0.44849183820196714,0.5796063194115564,0.7031843613394186,0.807615138815446,0.8498859609846092,0.835807013543064,0.808370626942184,0.7691229781815978,0.7095482667333788,0.6430513268841445,0.563263816808762,0.49271439617495405,0.4401215804449503,0.4576656044259124,0.5298188920579672,0.6094597062508713,0.6987940433233653,0.7812973793247049,0.830510560860569,0.8495066511375842,0.8331084247157077,0.8113749794295053,0.7981906480723051,0.8014552594842006,No
0.9094883521736605,0.9340961143486535,0.9379810254499503,0.8661015971594512,0.706902641779747,0.5980949362260297,0.6866812562788285,0.854014065035563,0.9652678982170366,0.9764096986288946,0.9377221537754288,0.8793717748547083,0.7927841380505063,0.7897438714672917,0.8479072128120375,0.9068441390063517,0.9280642538186958,0.9376005543552939,0.9061099724563535,0.9290295102821204,0.9147175856956595,0.911322218214214,0.9034265631345688,0.9599403725864715,0.9276000368788653,0.9124143811060828,0.911759384040006,0.8974658702605813,0.930294247480254,0.90247379799054,0.8798644436960021,0.8791718375393369,0.8717431759052641,0.8610964956595657,0.8475300240288623,0.892759854219948,0.8775303579156244,0.8795839879791298,0.8494956210880344,0.87192477999126,0.8852709760770008,0.8521212649455858,0.8868623541057303,0.9208888263459718,0.9189936760777595,0.8731447177489171,0.8347663562665932,0.7754994139003992,0.6939662104855042,0.5869911189730832,0.4852569705879093,0.40554574120972564,0.378088263769607,0.4083920463247299,0.47931705590016804,0.6009568422083902,0.6798770346422272,0.7264747289957549,0.7538830356257264,0.8083468164089371,0.8218722881259461,0.8206805146706655,0.8360507934932873,0.8633232803771467,0.9424352639245441,1.0,0.9161876697271838,0.7621053362059227,0.6012078786512749,0.47210557867090763,0.5823600013765144,0.7456263002173538,0.8799806394915528,0.9287354799477487,0.9125781334438248,0.890100851005104,0.8180034810267465,0.7438641566024655,0.7810368311463103,0.8371072514429629,0.8779164485402458,0.8797251470279042,0.8920435887261648,0.8845987494146064,0.9042819388676033,0.8859599267635083,0.8794255334021761,0.8814296558265644,0.9052282133424443,0.903312574015553,0.8884489550367052,0.883356955780088,0.8965588089367582,0.8765861226591252,0.8748936117455504,0.8784929207071137,0.8620870920132386,0.8681718087709065,0.8617014282211679,0.8595185489327877,0.8475014449560581,0.8685951747599887,0.8681863144523385,0.8893100459176564,0.9017444723789403,0.9102746906007804,0.8771752875264234,0.8567111183141023,0.7846484592362444,0.6841287616076963,0.6028124712533822,0.5051434742174647,0.43347843154093724,0.4453291208208814,0.5235001493347013,0.6035459203765976,0.6875613573319992,0.7565426773505601,0.8170454431657435,0.8741219045003659,0.8838949400133904,0.9293545538779515,0.9167014457468161,0.9011758957691676,0.9233228737660655,0.8364873440135883,0.783656989974931,0.7964127366037239,0.7796686116019389,0.7462948171441033,0.7582988848636623,0.7009979441787433,0.6296306327164967,0.5647605220939687,0.47685444921716247,0.38285558782951856,0.31703826913517474,0.29028969668760496,0.33840625979239114,0.41227541856132,0.5014443596425959,0.5988847561717501,0.6936725455541382,0.7497838811501882,0.8157522392614451,0.8031168055077602,0.7777430757085879,0.7433729093510335,0.7512683146252215,0.7384054441581513,0.7562119704765324,0.7449389479465731,0.7403939749811164,0.7515813924848116,0.7505888796806817,0.7668354785919842,0.7680744531761459,0.787711435065817,0.7787732502962994,0.7677796506307022,0.779609401805101,0.7804549996659258,0.7707482653276321,0.767362971312509,0.7648761796386845,0.7487461242224009,0.7660966144083803,0.7668493585872076,0.7537366253292896,0.7558997002543464,0.7391096340469412,0.693280055004033,0.623165121423944,0.6181505052406138,0.6903696879885066,0.7690346843295233,0.7816090832017828,0.8067850601709123,0.7081468486296316,0.5534492526239649,0.3876355688645212,0.23665408440279645,0.09089992704193506,0.0,0.08558309732919422,0.25505586236371247,0.4123130019738177,0.5827373293169877,0.7327715007505606,0.7802295257450105,0.7368385613999964,0.6974716679911079,0.6871873676821423,0.6917777551942228,0.6410064317048203,0.5892455029719832,0.5530541495567771,0.4747531879427731,0.37164178125262737,0.31334310619926065,0.2660257618838706,0.27142285166687596,0.3197442985286223,0.40109791328235733,0.5158466428958315,0.6085207920444704,0.6780109487391304,0.7486236221605296,0.7832475255690383,0.7507885711711832,0.7697529668292491,0.7385251763916179,0.7300163590188111,0.6881293890312836,0.7086804924965984,0.7453583869015015,0.7347946976759117,0.7409556445999481,0.7661188506055492,0.780414318899024,0.7685676963186223,0.7725669042026393,0.776197034398634,0.7787605218283327,0.7781339397468434,0.7980705921199664,0.780522485023603,0.7804732348076859,0.780093340573285,0.799712858887383,0.7992726996881458,0.7859803159511838,0.7939142580058087,0.777289626904178,0.7687752969213228,0.7288683302688472,0.6634439313295006,0.6242322549795878,0.6861763300681316,0.7806333010571116,0.8320300365431947,0.8424686297278106,0.7240068121510399,0.6019077224037295,0.4734655868214448,0.31626057815784225,0.14857769639272345,0.027598574561304545,0.08815893527307495,0.23325900343513517,0.40539677234672755,0.5609914942159913,0.7195975352736239,0.7860762199745244,0.7573104599004568,No
0.9505557439493073,0.9775984702475113,0.9883216076705417,0.9882621415801733,1.0000000000000002,0.9912289693623026,0.9631738433794055,0.9357998600927353,0.9370529345411407,0.9363623804754468,0.9309810362001667,0.9326181265768485,0.9449523352132638,0.9457206906812334,0.9539922005218269,0.9569794628559098,0.9462483177345826,0.9341477601467505,0.8951723437289385,0.8690188028341657,0.88604078186386,0.8965539430838392,0.902166517079608,0.9078762110015395,0.9090353130502773,0.9267541132365589,0.9353810784992744,0.9470847597426968,0.9433175892011743,0.9056445702337184,0.8444650854208062,0.7703364839304638,0.6901990583230588,0.6073065730194374,0.5229125381669666,0.4707255760498781,0.5372419415382728,0.6172333541727137,0.7067413347607203,0.7915829377303798,0.8736678915974541,0.9483239891830111,0.9802031432716312,0.9926154049735689,0.994954477422936,0.9926844867273965,0.9610315313722795,0.9394918764322273,0.960591144226987,0.9793659661389704,0.98873391057384,0.9839351961883234,0.9877361439149206,0.9890733812531451,0.9789669724190897,0.963970878932287,0.9570168630928857,0.9676381358014903,0.9787776592369293,0.9749774563796352,0.9781713662502984,0.9793666364664546,0.9688878578856219,0.9352311392106236,0.913194921250345,0.9009207522961995,0.8930292228206083,0.905421955621877,0.9096046758680794,0.9180103983946826,0.9398682912997336,0.9482412862242027,0.9414055324938608,0.9466417844459982,0.9270020769221403,0.8849189241699362,0.8184325467138043,0.7395576347352597,0.6505443515358433,0.5704643262977303,0.4806939073977363,0.4077509394937271,0.4438710395421437,0.5342618305012781,0.6254351713918902,0.7067280353442424,0.7939457526191751,0.8769327649302439,0.9391518880834739,0.9430739855164803,0.9431798892163068,0.9247106170597361,0.9034153835079588,0.8802150130568813,0.8553651215373848,0.8254184277737389,0.8602455718992708,0.8877640866878826,0.9188559857162641,0.9273031466628108,0.932888398581061,0.9430077769731018,0.9538403945492522,0.9458604813847946,0.9546675007079466,0.9489262911984138,0.9456611444326655,0.943885072474594,0.9421735538159346,0.9662692028935009,0.9719139037715243,0.9791348511400628,0.9823861841409991,0.9872899448408676,0.9600069569712038,0.9217351573723318,0.9229796616256027,0.9377128054285173,0.9485611709294044,0.9568036299572718,0.9389627807590661,0.9084934779028131,0.8830327966331526,0.8831722408867078,0.8819817158749184,0.8704917072112528,0.8714604510979236,0.9039430617468318,0.9248381752385046,0.9217275983843225,0.9148402005085183,0.9083381700782402,0.8921630377860523,0.8814812693111358,0.8770222941783097,0.8906255227271955,0.8865108568810742,0.8991332107780556,0.8741718551513997,0.8774631724456607,0.881010113595343,0.8693643902071295,0.8604988100056541,0.8381670829964272,0.8134861047923347,0.7735236155613696,0.7546866303592836,0.7958757052598113,0.8278805035129462,0.8509322079780415,0.8701515148361489,0.869219942347579,0.8801703580692173,0.8272435680791934,0.742068581655509,0.6510011642846687,0.5697733339105417,0.48225239060853675,0.3905336630677543,0.2987909941487066,0.2070483822094371,0.11580694066530639,0.03625793677383182,0.0,0.05572358641565578,0.13712651759855565,0.22282769724839113,0.3118935758528747,0.39209737828238356,0.48255682410964584,0.5678565008561851,0.6509711348813749,0.7382955523022428,0.8145141300644829,0.8656178566634976,0.8806323310548405,0.8812934828244481,0.8809298636919045,0.8683348896366219,0.8516101705062729,0.8474750000180722,0.8313643090502436,0.8260982374385011,0.8397529110332644,0.8758371489808285,0.9041066660279806,0.911885513630682,0.9105798352422869,0.9023363643410274,0.9104946326863137,0.9008191587552676,0.9016294318317246,0.9051676735735297,0.9155633684219635,0.9152853987404843,0.9258882995229387,0.9228284122107666,0.9340087177928458,0.9209583952191862,0.895450908563524,0.8831219236893213,0.9039698752496739,0.9204677835091208,0.925885650448196,0.9363412083034917,0.9208063150182018,0.8793133923309606,0.7961173388390723,0.7156630120184928,0.6270765874381452,0.535346122740527,0.4436034538214775,0.3518633679134653,0.26187898130992004,0.1818022360403544,0.09740395796274948,0.06583202122021503,0.11715451674658861,0.20094046733819382,0.28894581306497846,0.3697634316379903,0.46069577248886096,0.5489680395639696,0.6296296068571203,0.7151206066956497,0.7919210968431691,0.8622669310081814,0.8894239156904689,0.8755891935248761,0.8773064367992955,0.8677837753827948,0.8513752659624807,0.8401617951766751,0.8360004394264962,0.8223636533683691,0.8236951722006463,0.8085237953786784,0.8205149627783468,0.8638610172102206,0.8875342771822361,0.8964527704702341,0.8964972653714047,0.8884674720155974,0.8759513871652553,0.8801259455991095,0.8809011724276907,0.8713971390236599,0.8752715527151211,0.9024625009559,0.9309018175762394,0.9234133513696945,0.9321964382918304,0.9258469979551205,0.9120361026894377,0.8854496958847433,No
0.823679426197419,0.8530071432129978,0.8315705721864086,0.742437871347521,0.6416228259775969,0.5378667943903799,0.43623505101339877,0.4431911838981897,0.5468163437791258,0.6452432601251159,0.7534746613488101,0.833762942348669,0.8380061946726625,0.8354797937218672,0.8187054688952418,0.7673590639767727,0.7217147107009829,0.7138140378918485,0.7444979432211101,0.7340935088137535,0.7119492747210563,0.6994092339144737,0.7198612938734352,0.7680640940500898,0.8387268171602145,0.9002990028889482,0.9201283257554658,0.9278732563567336,0.9395367481843229,0.9519666999942817,0.9564131435662704,0.9534671209937065,0.9268569408377973,0.8851724914789636,0.8354857412902685,0.7944543153540229,0.8037626872227532,0.8494992665561183,0.8990156735952657,0.9467467952949074,0.9852657386880397,0.990278983417737,0.9799365856209237,1.0,0.9979082752315538,0.9102817936682048,0.8062587812996576,0.7067665387648279,0.6001461847704186,0.5231081798234749,0.5841048383174088,0.6922122153470864,0.7905877296615271,0.8894504566550303,0.9593515410581346,0.9519673605739309,0.935372806371161,0.9155231324630622,0.8660020283286589,0.8190419774994058,0.826012593357107,0.8755999075587662,0.9027731205886562,0.9047954651799297,0.9056368854063677,0.9199618380671666,0.9340474887558448,0.9334124079445845,0.928749167377446,0.9148382359332397,0.89898138934339,0.8933927986911012,0.8958281250375872,0.8968106544751988,0.8990701973117674,0.8837906883935625,0.8594782859297871,0.8275783071007075,0.8049947198309702,0.8252752687485128,0.8645077278348365,0.8999112451787243,0.9256955076577627,0.9315187841544339,0.9535900593952693,0.9627566170935804,0.9750872143987852,0.9035924865299818,0.8056406189449037,0.6987389087522589,0.5998865127134652,0.49082253839694845,0.4450424309128769,0.5332305083147153,0.6326149661675453,0.7401469931134117,0.8204140942451095,0.9024071763211534,0.9459141935851085,0.9396987507650758,0.942949503477247,0.9280586758876739,0.8742950893657859,0.8512035024686218,0.8963854233691158,0.9502355296165184,0.9741656475734244,0.9880285621306997,0.9828532932586924,0.9619045299416058,0.9264498195902147,0.8887232041643705,0.8850091387858834,0.9123829851185818,0.8960912269248005,0.8747882962428961,0.8802552893437401,0.8742748924450194,0.8832335429850717,0.8455015183101224,0.8251879087498186,0.8149052334568871,0.8203048540433362,0.8309672522441232,0.8495632357551015,0.8351470062915962,0.8173798035086888,0.8407145880286131,0.8837477059320453,0.9197762915983021,0.9389189452051774,0.9335788202447048,0.911818086729959,0.8621498305939306,0.807818349520697,0.7880818846265809,0.8151114860566633,0.8613617330229508,0.8861933170853034,0.8878173120880146,0.8404952053001864,0.7438108928753584,0.6409317403659784,0.5308658072050378,0.4320373559162354,0.32396538351485216,0.2171497169159502,0.1193090676170967,0.05408372533360106,0.09662617466936618,0.19345925780810314,0.29222275782610696,0.39977947680955106,0.5112199446101577,0.6226775409272327,0.7338644259774418,0.8343213347523553,0.8930642182831039,0.8954546434935273,0.8793546361043743,0.8618422554046168,0.8326267397454332,0.7952475785901929,0.7632432677498118,0.7505099305427883,0.7716280103826954,0.8067133188560267,0.8352391402729582,0.8431140020018906,0.8425607818908221,0.8428148655057224,0.8377744113646997,0.8502011809617431,0.8658086173414725,0.8793981010241736,0.8804138292774781,0.8705658298378385,0.856520112498063,0.8537157774501472,0.8458928514355071,0.8265155468742997,0.7741487331578036,0.7488283899485069,0.7697234876214227,0.8192767623381121,0.8698600615666372,0.8929675830302388,0.878498154790297,0.7971526671022402,0.6979082023001388,0.5933465770981412,0.4896499079323937,0.38737630671498247,0.2766150601344304,0.17627846922902624,0.09414859842167012,0.11318751087993295,0.2035308530975195,0.31074014337722167,0.422175384015262,0.5334858338199719,0.6369542155173638,0.7395269296004336,0.8468615990670476,0.9163906854534414,0.9239638039861582,0.9320210066890255,0.9220079208416494,0.8792731136332139,0.8344633896798066,0.7863912296746869,0.7434587236323567,0.7379703282365804,0.7624006382628252,0.8081086871989362,0.8576074921152856,0.893192137281813,0.906188075562036,0.9008389157963848,0.88932079563748,0.8736961655413249,0.8672046942844318,0.8587077537343331,0.8044428913221284,0.7357492540616377,0.6829067514125002,0.6493090489399513,0.6513025945296436,0.6649793684606449,0.6845334606001665,0.6718038257299224,0.6447461494342916,0.6699102713763478,0.7172956311623202,0.7637596654280947,0.7814717028773122,0.7748087810746394,0.7200626413262698,0.6468986543607991,0.5720272082126243,0.47684237724035805,0.3669002044801428,0.2674981803090235,0.16035714327226058,0.05206674166024827,0.0,0.06473207261258418,0.16169518486962842,0.26726181571045204,0.3666426182750877,0.47697142334172193,0.5787872964829082,0.6827277894581139,0.7705298795367019,0.7788254009801054,No
0.7133259507489624,0.7155829165441596,0.7257245620545056,0.7271930139178608,0.7229570990773562,0.7231228898717497,0.6897215732512683,0.6392153213593117,0.5809362661941511,0.514409812317322,0.46240403209532044,0.483081686723168,0.5375800171429574,0.5905663359393096,0.6329846724205859,0.6713473231321396,0.6981118158745323,0.747353802523806,0.8340490136051728,0.9300955382171865,1.0000000000000004,0.9595174353613642,0.8562715050614971,0.7404393268783367,0.6356757720396451,0.520760159716458,0.40521047590167125,0.37127141187224977,0.4726177347864584,0.5760296103571823,0.6730914723301278,0.7376089618687081,0.7344649149783322,0.6960223114745645,0.6480954648831969,0.634542478212476,0.6732467562482318,0.7184908484023169,0.7467601366336218,0.7516859592851621,0.7594004769751557,0.76246520943379,0.7409494292170407,0.7085111066057381,0.6689368061555485,0.6572824212176931,0.6519379461537826,0.6492789126425964,0.6541078215566216,0.654790716542188,0.6587506074655458,0.6222826235421381,0.5624506268269762,0.5024636312395474,0.4736497131156847,0.5090075758785306,0.5662936359956006,0.6190380999421232,0.6474271569078862,0.6645327950500648,0.6985329439723849,0.7825796251839914,0.8907936976332769,0.9626282869832474,0.9323117522726303,0.8354354478016037,0.7215231502196726,0.6138847217562153,0.5029469273822054,0.39012516129393626,0.3751355649387067,0.4729848642743404,0.577226055477901,0.6812987596456095,0.722290155211152,0.7102771611400076,0.6753948406780443,0.6347983839789921,0.6538811571197773,0.6901773704206393,0.7030880315075612,0.7056873071748737,0.6963245878407816,0.692660398537309,0.6865819339554631,0.6881180605273034,0.6956880291890029,0.704054928834938,0.7130916174360982,0.7075144792117163,0.665184958325423,0.6091440887057789,0.539525867334588,0.4797126092994235,0.4577442414554769,0.4966555760313671,0.5463872916500785,0.5923588288514279,0.6305136925971224,0.6578246787833799,0.7019666050036215,0.7811967591370479,0.8773162105131438,0.9666416095720267,0.9563163832147761,0.8574870464975688,0.7526073205670669,0.6389444631949242,0.5243254391030385,0.4372035718419345,0.47256067630537935,0.5743061634510638,0.6679640303742134,0.7248284533356135,0.7163134852922761,0.6764545487239522,0.6329312423674556,0.6489924219953704,0.6797907751342804,0.7063254192790627,0.6990965409437959,0.7035146753728334,0.6957327713754964,0.6830632105617638,0.6444556219957311,0.6276331425376953,0.6353894738493087,0.6355939714467027,0.6355141110813163,0.6271693828694702,0.5967523192974253,0.5638766179455028,0.5687955543714525,0.6211964486453145,0.6567665859058605,0.6323054382844471,0.5340758684918705,0.4304612549969482,0.3231411288100934,0.2179273203204084,0.11431604343226054,0.07147335023033774,0.14177894060337293,0.24446620495102467,0.3554090123150959,0.4618131636658904,0.5740815155466352,0.6853986532433427,0.6967290381489328,0.6321241248094194,0.598270058652826,0.565391992312712,0.5326604122696286,0.48540851802654705,0.43729187733553365,0.3918979607419364,0.38454924812590763,0.4300787185049071,0.49753490346478646,0.5648987140364898,0.6155993574150296,0.6412677952208501,0.6416684425965986,0.6358594367464998,0.6317214194696463,0.6190243951755745,0.6205855435605496,0.6260473912758817,0.6348211532610599,0.6354306711980926,0.6231618180136644,0.5929508650418778,0.5713687918404426,0.5930680544570079,0.6385060491548411,0.6428728998366577,0.5696457889365627,0.47089184451302835,0.36510898957387816,0.257630958741371,0.1402260588841857,0.04080543842556272,0.056614491830322855,0.1529795125719371,0.25456472405778063,0.367473605221762,0.4810662657494573,0.5865100017977833,0.702288105519346,0.757541998992568,0.6915614473462197,0.6313172368051587,0.6013585085302018,0.5811401720411906,0.5481111640209262,0.4906181972908503,0.4378202192199363,0.3999170859932062,0.4089944510930108,0.4640670567975689,0.5290317979318799,0.5924521025195912,0.6118661568297643,0.5895838148909829,0.5826645502117853,0.5832238899626119,0.5951220167476441,0.6103384699158716,0.6382074039962511,0.6724438900622194,0.6935261737841811,0.6935649388510079,0.6869553596767051,0.6783659664225477,0.6762362303601139,0.6329735583053355,0.5911566138457842,0.5720348280587064,0.6130811008104997,0.6597222607949513,0.6708439574462801,0.5964052861312732,0.4915266470354851,0.3868544793933606,0.281207512815969,0.16982433882159187,0.06473306132309187,0.0,0.06569808475241423,0.16859047905079683,0.27489289539299566,0.3857088427016637,0.5027660163979673,0.6086349322485418,0.7212108263059398,0.7947998721575193,0.7330138618619326,0.662085799736837,0.6314868824772448,0.6028859124534809,0.5641687856588158,0.5226320196826113,0.4629973628465436,0.40806488643903904,0.39327999848893125,0.43704815464075475,0.5015322972821816,0.5659690031149203,0.6238103798817343,0.6612182241678601,0.6583167344833298,0.6631455220611384,0.6549723088431532,0.648942101319574,0.653208009896058,No
0.8671720702526482,0.8035317315419381,0.728467524751407,0.6523855249843975,0.6075428442385045,0.655120094320337,0.7238795885895568,0.7876629494272578,0.8432917388385173,0.8786051153995813,0.8926616185758465,0.919830337505215,0.9429640252949083,0.9671653336014421,0.9294616843280816,0.8277092669622297,0.7223575098140609,0.5990289973668621,0.4850775269862866,0.36234403972462514,0.3196922403349367,0.4231014870200194,0.5347283447203601,0.6338848490071105,0.7444020450976572,0.863027148845231,0.9623416656801056,0.9737442782629389,0.938264215052993,0.9036270749369857,0.863118428591453,0.8708005176578948,0.9032292520294569,0.9180163354453641,0.9188761707298436,0.9065155358942758,0.9009638863175367,0.8949823931288798,0.9062344400821871,0.8820177324045866,0.8819122229956227,0.9006766938542925,0.9039330991220096,0.8946674588154715,0.9130524428871629,0.8977075736123648,0.8531125204286067,0.7799408241244397,0.703925616269311,0.6277842871744892,0.6151375329429869,0.676520607124576,0.7459792217893835,0.8133286108392777,0.863189132426561,0.8885789339798333,0.9163737990399095,0.9376227098727576,0.9524584330189114,0.9280242257610114,0.8308855775599349,0.719083025556817,0.6048077937398744,0.4859580398439278,0.38421222530494825,0.437215533490968,0.5619305144353213,0.6767367723267284,0.7972089452718696,0.9094876475615079,0.9969633043270587,0.9760743927798861,0.9437989904757962,0.9075462122063778,0.8853067708867735,0.902503568875936,0.9232672198381375,0.9244994783262577,0.9230473096628335,0.9022167848810247,0.899547691412641,0.9021937044338753,0.8952249241995944,0.8962100067901169,0.9029972012727647,0.9157828151246661,0.9080257610981275,0.9037160927369201,0.8783294214134441,0.8266671154529255,0.7604643173646326,0.6827850785741121,0.6002087806118817,0.6025783397573727,0.6656724065524271,0.7409409684676325,0.8019159105156355,0.8483852287950913,0.87951684510434,0.894600930343123,0.918623209046173,0.9385215912179747,0.9069981907403197,0.8168207436092119,0.7097700626996262,0.5878207328493832,0.47579303934904127,0.4576928135368288,0.573641783633974,0.7008323650505401,0.8163086982501455,0.9272079767258017,1.0,0.9652880829187582,0.931830054574097,0.8992386667585768,0.8818307928851534,0.8997221536789288,0.9130584316384014,0.9212723508442013,0.9143863205176737,0.9259507876354371,0.9118691642125629,0.8682450546211142,0.8548986573934991,0.854014917470109,0.8527958617546783,0.8517928086867683,0.8364012798252647,0.8140678584065868,0.7992903582805955,0.8467796910455183,0.8764007721575657,0.8431421774919152,0.7394394771292156,0.6181275014868,0.5038810403345328,0.38088286013290906,0.2663753586655555,0.15121471504012263,0.09442250634459626,0.16722901634027965,0.2890598211639035,0.4041566788165687,0.5268653405560921,0.6524973206708213,0.7626664164696875,0.849921090794675,0.8535193959680867,0.8472088884604498,0.8343524383446979,0.8064902738611157,0.7660478872538747,0.7052974767247155,0.6375863691246373,0.5686928644661746,0.5210236935531105,0.5392383755272023,0.6119748004187255,0.6907206395234038,0.7625159593280197,0.8180566031818155,0.8405251657162642,0.8446761238702041,0.8467033301318287,0.8260339561922048,0.8318408258230177,0.8324226009766917,0.8316263204974796,0.8282844385547872,0.8486999247365552,0.8611512810203577,0.864353504903939,0.8541107594640134,0.8274182833857981,0.8155115078533113,0.849589856963922,0.8808030717010866,0.8717101441687571,0.7765798479864081,0.6527189848397845,0.5372363006590124,0.41522844522919566,0.29714263814164044,0.17962778378508837,0.07185601170038769,0.04005996920247634,0.12715710792594814,0.251849062171841,0.37967010328804207,0.5052181754801199,0.6187639745614542,0.7339915145426579,0.8333954542238144,0.8717001703420078,0.8615443059379482,0.8575887703468044,0.8305249567717619,0.8028125339329772,0.7525256731948513,0.6788783288068267,0.6089392531558913,0.5470127793204824,0.5369021222139181,0.5923884454941928,0.6740776477677102,0.7540765472459854,0.8122574274247762,0.8354223134669874,0.8267619883209409,0.8362002125458456,0.8176082432331842,0.8222059233845047,0.8185163181789852,0.8351185342935494,0.8377456774304997,0.8440449998714801,0.8449066987385621,0.8457175077225298,0.8553135361322086,0.8408905076912805,0.8134835662438262,0.7920705182100156,0.823813449423612,0.8583736635691444,0.8613726358750342,0.7819707803591998,0.6636457190473117,0.5461248692488647,0.42361493213651835,0.308619858590792,0.18819750683357928,0.0749983842315256,0.0,0.05221242107007784,0.16263267164781858,0.28291378861361327,0.4106442865264972,0.5384676046172543,0.6632508350336255,0.772301171296756,0.864484695232691,0.8820186047084051,0.8617317682609031,0.840399268519592,0.8127603478261158,0.7733100442958185,0.7082008119550047,0.6391747296358097,0.5723181316301389,0.5371518934393986,0.5678877246157779,0.6398002426952969,0.71768433171796,0.7884013136159065,No
0.9190933498524294,0.8639181541472909,0.792459535349149,0.709667188942984,0.6307075346316027,0.5969579878746214,0.6479036950014443,0.7149594662637542,0.7880152865660248,0.8498065133508321,0.8874894251885617,0.9224481173603749,0.9333531629792797,0.9502914498259418,0.9561526261464173,0.9230347960991572,0.8384187975724906,0.7277517114426195,0.6878357916929705,0.7882470940276289,0.9091163191428868,0.9779377631307486,0.980492295749444,0.9558224333384207,0.8905875783735069,0.8583113269476965,0.9046329820322283,0.9503631346215005,0.9548448808939689,0.9624079878051495,0.9613298324444703,0.9490698833977524,0.9471495988649865,0.9525706817372219,0.9377475155174455,0.9334062022729941,0.9384804581503841,0.9340166558939322,0.9307371764783134,0.915401807115535,0.868486989253547,0.7932181395453686,0.7124782310167648,0.632061237492838,0.5867527807236868,0.6253807422948867,0.6934185226882406,0.7598047019765137,0.8236946553981594,0.8690012529703961,0.9043173428036324,0.9300199660416024,0.9414148956356647,0.9551462265195396,0.9228678845560756,0.8662590110254094,0.7695181867241678,0.6610185633272794,0.6494203161973906,0.7565745986960746,0.8709566715646115,0.9563401663613225,0.9661122563293656,0.9303644312889072,0.8707405775661607,0.8661699740520605,0.9229189050929705,0.9534909081220335,0.9514880446598442,0.9479801926983198,0.9484015994021959,0.948233567674885,0.9343772330381399,0.9314315487382068,0.9322731483815723,0.9445984051639473,0.9375002922404034,0.9248384563539553,0.903375778580688,0.8351862944536714,0.7593102526242905,0.6738461855435642,0.6106758566055901,0.6266268707685065,0.6891868354918507,0.7571881437935168,0.81998427741574,0.8624757422223635,0.8950566933935784,0.9228860527663638,0.9617846974671531,0.9784769773718542,0.9724505586717691,0.9227532447143671,0.8274012720810249,0.7171297065391764,0.5995352408273442,0.5252643945826754,0.6076402709212725,0.7228383169673771,0.837680719088036,0.9283789442140038,0.9963690146488218,1.0,0.9541951198470584,0.8932957463393265,0.8836636772056425,0.9301336121127872,0.9608384050817826,0.963539538628178,0.9588368941786971,0.951482391258772,0.9446883448694634,0.9424548709792386,0.9433271904830356,0.9077561641852507,0.8713801965462209,0.8787965146649208,0.8865378918210962,0.8821493917849814,0.8954316923740615,0.8894985288036996,0.8887096428319214,0.8663336570492626,0.8156132414033723,0.8109769809113394,0.86513389311297,0.9242971876592714,0.9149898304304713,0.8181022825978506,0.7066841047692609,0.5866527344574997,0.4739506834390208,0.34913632479273415,0.2233316531360714,0.10552356115653261,0.04824573946138688,0.11843668427327003,0.23881273193196506,0.36114165315606295,0.47337563155635465,0.5970207583350771,0.7101072617133681,0.8211502969633804,0.8971963139803667,0.9175628790127242,0.8809499109614247,0.8509956347505541,0.8180712311861411,0.7786207861011536,0.7219103546065737,0.6504040415609564,0.5828246569943283,0.529460025179608,0.5143602151973816,0.5657681064612592,0.639416012508911,0.7228961254046151,0.8063878668028699,0.8590440778043136,0.8598207405706262,0.8738062629536469,0.8747906977194386,0.8816872671048155,0.8717169825402307,0.8753199853377502,0.8749332210478133,0.8839532654032931,0.8867851826424862,0.8863738233017999,0.8699145995756381,0.8178614122212129,0.7700468090816126,0.795869934557428,0.8609021781606048,0.899571005747613,0.856506477250238,0.75025644094353,0.6354156601675025,0.5161515132060641,0.4020473022285205,0.27672031029889643,0.15091595764718724,0.035584259141794305,0.0,0.081650231642441,0.19969147052997993,0.32023814063452116,0.43355683309422055,0.5586067266800696,0.6786027880117698,0.7875827966466642,0.8627063958159478,0.8752559765986829,0.8690772663048518,0.853960782749883,0.8262331834546517,0.7862225621728274,0.7262836177293126,0.6611809983858201,0.5888402644259592,0.5300528811381788,0.5092151385057844,0.5641329208026882,0.6392420731011565,0.7232453297272259,0.8046438172369146,0.8542491903429119,0.8679300763867448,0.8691202434040433,0.876297339632901,0.8699237306612551,0.8741290418853511,0.8808661144076102,0.8911998279179629,0.8942014126365319,0.8921594621443636,0.8905067048880659,0.8696854656187494,0.8160236332857616,0.7854565405488687,0.821268971121619,0.8814599171879993,0.9156805119463565,0.8519235473567615,0.7423564097700095,0.6235133387982161,0.5107926353411023,0.3870550191972306,0.2745072467779268,0.15282167503035682,0.0367268432920449,0.025656395022506828,0.12807535297248185,0.2483940285672972,0.33642742950260196,0.44950327884497643,0.5712091088536901,0.6834485311087031,0.7970745063156537,0.8745390843173229,0.886687107192361,0.8813197346116599,0.8494609661097909,0.806569927870461,0.7702746294080005,0.7070209980488213,0.633118803106993,0.5637008204445406,0.520798681400227,0.5464285438427154,0.6166609295003811,0.698092532096207,0.7815718803119682,0.8468857967740826,No
0.9120178834495785,0.8035287227829335,0.679979965276563,0.5626351422151079,0.43417354419223075,0.3640972720977924,0.4551922923841154,0.5845914469651547,0.6925029807409651,0.7333059270402233,0.7179046350686571,0.6789396939795163,0.5992300222613784,0.5595021232891662,0.5842535054817244,0.6127929134359116,0.6233383218990469,0.6166082743951473,0.6183497777539535,0.6471719492756671,0.6709137800203919,0.6615597058956642,0.6537884327869969,0.6224324763651419,0.5640513794321831,0.4941103669158564,0.41915462794744673,0.36232396726808735,0.3974514368115307,0.4658755993723238,0.5297316591894949,0.575801218351558,0.609624972361495,0.6350319545992331,0.6939377242339448,0.789348037988685,0.8910856476499003,0.9637466818677813,0.9090581576219701,0.7978936732146047,0.6788075504333779,0.5563483292578604,0.4380297240319848,0.41035349780367714,0.5147777887217608,0.6266213824263005,0.6764530263810089,0.6923745801681958,0.720519736432427,0.6810810312877016,0.654188468763949,0.6812616600174102,0.7107263378366699,0.7076991633209264,0.677762059135194,0.6390567320591583,0.6346099440976114,0.6593180347207466,0.675203360779892,0.6768696018857501,0.659336452098739,0.6060233778394299,0.5313791517143747,0.4621908388388336,0.45976836014781153,0.5105951202442487,0.5559482240166966,0.5908792263724858,0.6262198909372843,0.6713964068252505,0.7522800117447646,0.8557770842200245,0.9507220236390981,0.9753781055596584,0.8909434122413069,0.7731907273479335,0.6423379664234692,0.5189546920410413,0.5037472549905604,0.6034457982183019,0.6799036962268015,0.7080032610720104,0.687598956915016,0.6330952984889908,0.5893269048396781,0.6175512281780051,0.6208963386124857,0.6244499498599763,0.635303162839703,0.6260131487703009,0.6331203312071518,0.6582667977740444,0.6565396571465967,0.6642405195113965,0.6385280236301947,0.5904012229567397,0.5164222510739394,0.4599842241932395,0.4537531653248035,0.5039359224848945,0.5496756211667297,0.5998775316023468,0.634431298357331,0.6600146824237991,0.7329205647003332,0.8344699117309049,0.9363260859968379,1.0,0.9476190615250046,0.8548555352943281,0.740327455982075,0.6167280197816583,0.5010998219036793,0.46247178387496746,0.5602938081099493,0.6526798433954331,0.6698141549080723,0.6872988724612688,0.6532235159852973,0.6093100061270689,0.6218239044907863,0.6394920820962731,0.6514230326862056,0.6390424913743948,0.6293488962402378,0.5924975932187864,0.562925193412374,0.5691210264321014,0.5791737374691954,0.5615434227938301,0.536028342378577,0.5695740135354401,0.6071463302863105,0.5940925097336422,0.5155053570999235,0.39712991147071275,0.2796518069554601,0.1751805438807459,0.15105748702448984,0.2427197209092964,0.3692235219394049,0.48667275189451553,0.6144089480956314,0.7316422288549194,0.8017760047078362,0.7235143780239763,0.6361411482835044,0.5861628530789527,0.5551425618613148,0.5098329175697374,0.4523255765977794,0.40554159295723613,0.37010241391316434,0.3792085046658973,0.4314436291100754,0.5097124722346793,0.5651505389494336,0.5782538037525762,0.5704294781927257,0.5764832575616445,0.5587785110344399,0.5536917534683994,0.5528547813952218,0.5608860560165372,0.5482156789296844,0.5241776653300398,0.5381568239391257,0.5969598867919994,0.6224258318395655,0.5824388944610668,0.47287007396770475,0.3565232917798138,0.23763139817295054,0.12673801860833356,0.1006793779916908,0.19692217008070179,0.31290124998950386,0.41013041743817613,0.5298686936852475,0.652359336259059,0.7644535153294671,0.7677293554897648,0.6764683103113724,0.607703314647074,0.5661254572501431,0.53225489389028,0.49401726096105625,0.46102403713068796,0.4148999451554287,0.3827674137785113,0.4119507298274252,0.47523859035728133,0.5503113674404965,0.5988578157298567,0.6026808154183088,0.6068341415838163,0.5658338618485352,0.5598133754988566,0.5785537702363803,0.619870493829894,0.6276362713371895,0.6176317995036267,0.5978035852821955,0.5852175189552282,0.6210744062770353,0.6255091867298459,0.608153727664773,0.5570921749842115,0.44367409939625935,0.3241644683826803,0.20016289311527524,0.07631742779707196,0.0,0.04681422365706123,0.15502484609538758,0.25834226898771195,0.373757004400336,0.5008844737906304,0.627028681691777,0.7430301208676311,0.780685705013354,0.6817211188714039,0.6088329449945578,0.560862460362908,0.5341061389232298,0.5107878938548209,0.45213783469812086,0.38418236805206973,0.3215435769729389,0.2611071453697602,0.2921915720040458,0.3609650904737203,0.4415912327662781,0.509887790097292,0.5636538075308271,0.5805438862576895,0.5886634036990941,0.5738163388280046,0.5525036477580874,0.5369603944159373,0.5484144280569159,0.540374973226112,0.5201009824241529,0.4892873849103365,0.49498704336577104,0.5434468723498727,0.6215988500488132,0.6573066154760565,0.6382659157478763,0.536249720866675,0.4165718869950563,0.2974207113532268,0.180112833647609,0.0935344652872554,0.13026337072969563,No
0.9386220621048165,0.9268405646349871,0.8881226261808193,0.8359996749093188,0.7415677455268708,0.6499854514230514,0.6972842624163773,0.8105196361047442,0.9155524433276425,0.967989745978298,0.9859095988792776,0.9861166235296475,0.9657086354219637,0.9709632954069063,0.9866988821622655,0.9474741923677885,0.854932327027222,0.7633579220052917,0.7716573345608277,0.7927683813909971,0.816756345107267,0.8369696621225811,0.837785680605633,0.8539858346905564,0.853639914219217,0.8321609586029206,0.8071707753780126,0.7876809642854523,0.7478056373052295,0.6970966453038061,0.6308884799492072,0.5888224131979909,0.619892720588302,0.6758844589206108,0.7143171061247529,0.7309127204674373,0.7417248606054905,0.757041205203854,0.7313647449664424,0.6973142237899133,0.6304019087743167,0.5273476936640691,0.49951758091074483,0.6077695054686778,0.7041643798336747,0.7367190227940532,0.7436796788736255,0.7362138431474614,0.716798522245647,0.6863392882297843,0.7124157755819027,0.7453961428435485,0.7525150560448184,0.749426588520048,0.7396940864585502,0.7521582676222094,0.767800698860055,0.7906385377982348,0.8064486031814466,0.8117462353676563,0.8103463137915661,0.7790592090443833,0.7108197302426515,0.641436841558376,0.605303014150516,0.643256843750851,0.697248063576446,0.7430105968640914,0.7894067979509107,0.8312309265916435,0.8703381921681221,0.9003116112016687,0.8959823814387131,0.8284414493355623,0.741255498395462,0.6418509886853063,0.6692380595832539,0.7799583996498018,0.8901958547691038,0.980745044234216,0.9869415733774458,0.9881501021875896,0.9853853691152548,0.9750970671462214,0.9704562897349676,0.9979717824829617,0.9822715998453915,1.0,0.9923130152357618,0.9878267206333828,0.9758462045117522,0.9779678765964115,0.9735829253024679,0.9680271271237544,0.9477488287799294,0.9306840076529417,0.9039915871290876,0.8402896267590378,0.783552698706905,0.7448020038956304,0.771196116138551,0.8229505307792429,0.8541543824874953,0.8809797151706329,0.8797957165654982,0.8809601732174839,0.9093253404905792,0.892001301504,0.8295106978267803,0.7349917575781975,0.6617439554444076,0.7332396908573293,0.8357905666361884,0.9131464337934485,0.8835762320035578,0.8073870999645112,0.7070787578460496,0.6096249613562414,0.4961686386426267,0.37162543618216937,0.27777367491094873,0.2440637137156889,0.30746109920553355,0.4228314396587365,0.5329745072476268,0.642706681037148,0.7476622666105066,0.8111267474601092,0.8009358548346497,0.7974777154230654,0.7848165216627496,0.766952553854936,0.7203804428623695,0.6788487651877269,0.6722301496242942,0.6956908352199926,0.748776651621915,0.8073050190588735,0.8438209501401626,0.8721092128403058,0.8922897550064701,0.8755051778754215,0.8944924944383179,0.9072883508879301,0.9028228024143483,0.9106036160528199,0.9132702740520338,0.9155226702494881,0.8922100640525219,0.8710097888116626,0.8572088404453893,0.9050867137373007,0.9134617054957554,0.9177588383541515,0.8752373813441028,0.7714067404480947,0.6610221465342705,0.5400610964468209,0.4304056174678208,0.3213639395213246,0.23339026033939447,0.26458792733116576,0.36785417079109317,0.48810094907165125,0.599545452676653,0.7146540149787919,0.8012357492828825,0.8115338380414969,0.7847645182985992,0.7380432193708124,0.6984204378017527,0.6491069602045445,0.6019487523156664,0.5460766780379953,0.5018826093120161,0.5218239538501939,0.5871515069237585,0.6613098281877985,0.7192226292545154,0.7414500756987867,0.7257429168197773,0.7134726611150013,0.7004116658395478,0.6762435349230604,0.6723047729430749,0.6675905434348746,0.6714177799980208,0.6597183679136891,0.6625408071557164,0.6476264192595393,0.6125496857430219,0.5849220280265572,0.6280385707377407,0.6611604786444958,0.6561301836156326,0.6429115541892809,0.5570495464252425,0.43637623231583866,0.3257713665057076,0.20353753532309726,0.09306330755598591,0.0,0.029280625626560752,0.13839166736698516,0.2492063992178144,0.36687069113229676,0.4763509154226937,0.5802530095993181,0.6451676107012192,0.6651899190994142,0.6561085572637215,0.6458460414490661,0.6255383486234432,0.5665343984730922,0.5126935955189516,0.5017120606783543,0.5412366212013304,0.6001166990125886,0.6688719229499602,0.7098958668182873,0.7440148270207985,0.7651013459060318,0.7746996914090718,0.7553173630425598,0.7356115258910148,0.7515174179834476,0.7383425914503947,0.7167307035873987,0.6932972091406593,0.6571595994653827,0.6985123778765256,0.8034485374604889,0.8989128173792142,0.91728793844208,0.8740063171141523,0.8578631429878252,0.9009074176797052,0.9118421933989498,0.9016723419890682,0.8719696275109539,0.7782942674894127,0.6607711849495708,0.5495042549431508,0.431340563292403,0.3194252811449667,0.2101869068485014,0.1510951028280374,0.2187176084975242,0.3378304874514657,0.4631021716426953,0.5799687443409125,0.69007538225005,0.7849098000572408,0.8278293191661565,0.8427025721258086,No
