0,1,2,3,4,5,6,7,8,9,10,11,12,13,14,15,16,17,18,19,20,21,22,23,24,25,26,27,28,29,30,31,32,33,34,35,36,37,38,39,40,41,42,43,44,45,46,47,48,49,50,51,52,53,54,55,56,57,58,59,60,61,62,63,64,65,66,67,68,69,70,71,72,73,74,75,76,77,78,79,80,81,82,83,84,85,86,87,88,89,90,91,92,93,94,95,96,97,98,99,100,101,102,103,104,105,106,107,108,109,110,111,112,113,114,115,116,117,118,119,120,121,122,123,124,125,126,127,128,129,130,131,132,133,134,135,136,137,138,139,140,141,142,143,144,145,146,147,148,149,150,151,152,153,154,155,156,157,158,159,160,161,162,163,164,165,166,167,168,169,170,171,172,173,174,175,176,177,178,179,180,181,182,183,184,185,186,187,188,189,190,191,192,193,194,195,196,197,198,199,200,201,202,203,204,205,206,207,208,209,210,211,212,213,214,215,216,217,218,219,220,221,222,223,224,225,226,227,228,229,230,231,232,233,234,235,236,237,238,239,240,241,242,243,244,245,246,247,248,249,250,251,252,253,254,Target
0.5572835976156096,0.5980769497559877,0.6542525638581194,0.6926560428540987,0.7429860408738898,0.7894472380788728,0.8159394860767633,0.8147945087540138,0.8036950962929894,0.7931537479730202,0.7935367557111908,0.8001801214091198,0.7885083247430011,0.7865128185799459,0.8109681049831929,0.8412823174258048,0.8433769158432245,0.7934628928232088,0.7211765735578577,0.6441710705801749,0.5710353902624974,0.4931738392540621,0.41624923625360655,0.3425404507552532,0.26404798871695834,0.1907107719454768,0.11421330355887671,0.04415169920604667,0.026686497338898385,0.09346985877346436,0.17285567242747457,0.2523213074086891,0.32921142461185726,0.40294587995419806,0.48205170813910225,0.5615423267943149,0.6410331312964057,0.7205236174371672,0.7987426926576688,0.8407706105136423,0.8434476208933819,0.8306154235069618,0.8045951769515227,0.7671280956737581,0.7188086018331605,0.675083693481493,0.6458115430932745,0.659429132075444,0.7078405910847616,0.7594551096777906,0.7978960817045759,0.8095776183040926,0.8049411281481831,0.7957185057156904,0.7941773100524974,0.7989413995842405,0.7815786692624944,0.7800676356603595,0.8077731950840716,0.8360382008207514,0.8404841481332594,0.8100905778037741,0.7397929479170866,0.6626782046159867,0.5896354670004151,0.5117977839544248,0.4386894328639508,0.3722645249309364,0.3136355761803862,0.24383265666046783,0.16644197510083358,0.08972452225362915,0.01921318562400509,0.0,0.06708652138952675,0.14324807260891737,0.2175144582128885,0.29676780885727505,0.37625861335936617,0.4557494178614563,0.5351162124701294,0.6102339874023635,0.6855588530893271,0.7647168783686435,0.8235817152080731,0.8286227564554811,0.8314411502972126,0.81285331858024,0.781861095503712,0.7377513910960392,0.6954708563654091,0.6621122053127695,0.6696324788493384,0.7158342246723526,0.7659751802220525,0.8069725347144698,0.8227195884364253,0.8205137060343854,0.811024921621071,0.8028564832355727,0.805838940643498,0.7933147369492439,0.7830563355812417,0.8068579756403813,0.8371058333125676,0.8378887006448552,0.808248047842897,0.7392580912367368,0.6632075063138925,0.5900373308866926,0.5130851469133741,0.43985448959008755,0.3611142400447547,0.2849949081688351,0.21062428961231172,0.13231679474157387,0.059589357513271324,0.0021714561095173,0.033282734973014705,0.10842806522698356,0.18204382867479252,0.26111408401930647,0.34060464957541026,0.4200954540775024,0.49958625857959293,0.5790770630816828,0.658567867583773,0.7380183038603738,0.8086783923119352,0.8285225946136401,0.8343933196781486,0.8215157273933626,0.7915762957716626,0.7470982738040195,0.7001629629234238,0.6614660424433059,0.6542209259787504,0.6910150861254927,0.7426226241405842,0.7858360513770692,0.8163373248110082,0.8199124638205186,0.7838625773815566,0.7341115570964043,0.6910738537566827,0.6978930961203123,0.7396624192196262,0.7843413716993344,0.8262802458574818,0.8510888040010269,0.8611792433475924,0.8800801924715034,0.9389918073741397,0.9836851902048318,0.9403373716280146,0.861976490097923,0.7839811117864108,0.7108723714796754,0.6322644432826043,0.5543568001263692,0.5261968732208111,0.5913249146410426,0.6663417723591192,0.7412589019665592,0.8145195771477847,0.878101610801844,0.8828177757575315,0.8702959052425912,0.8561964590906737,0.8218728761470304,0.8141513187247977,0.8295718244953856,0.8264239859325189,0.8353334787822544,0.8456888800685136,0.8484995483792916,0.833914147739446,0.7951068397380283,0.7449129003697694,0.7008974695768009,0.7030054277481119,0.7428869399210427,0.7867357135948494,0.8244522279763047,0.8490105787138036,0.8587759505455814,0.8844582800740832,0.9493697268472316,0.9932050741875664,0.9465793764301236,0.8678156874243192,0.7886046213313525,0.7145080741604359,0.6380717387541328,0.5586302254616626,0.48516716845415186,0.48870937033802275,0.5599504853756907,0.6380881399325686,0.7111250878216977,0.7876819347615891,0.8586745125842907,0.8990509629960548,0.8727199253397797,0.8631653257520022,0.8388998681751647,0.8061217426245793,0.8096581941186689,0.8224214731818051,0.8235233854029136,0.8301021690013024,0.8379791239355041,0.8326030797434769,0.8139113362085884,0.7710748247324795,0.7164677021152441,0.6785628098073864,0.6971431035848932,0.7418666621414642,0.787932787395319,0.825711695056933,0.8520831466108252,0.8694313500935449,0.8814890281816381,0.9372905640599885,1.0,0.9967502546298319,0.9250531656730299,0.8456050546473723,0.7661142501452824,0.6866234456431926,0.6071664947050681,0.5321912778072149,0.5130310781703695,0.5812494298217155,0.655667304669588,0.7307023585201537,0.8034689219596325,0.8739498826942922,0.9076028207371702,0.8795470970358139,0.8676192180099136,0.839183675024203,0.8128607052036398,0.813439191424139,0.8275638779349466,0.8225439628679478,0.8186942326154574,0.8274892928386113,0.8377294391248824,0.8396661794844742,0.82287653372743,0.7843489571489506,0.7360717684455733,0.6878019339548618,No
0.7748491976539245,0.8229614644312555,0.8167885668515991,0.8069088285072192,0.8204144068659607,0.840267359073801,0.8545570107992424,0.8703216811894134,0.8615060363669134,0.8507636274610662,0.8738198839770082,0.8713050032862397,0.8118134896435731,0.7292053176165898,0.6430045424879904,0.558802773846619,0.47239371728983826,0.38701248617912687,0.30177043274375526,0.2126723658971671,0.12820712222072383,0.04439844229691947,0.008537775906918954,0.07174511276011464,0.1594104267444989,0.2451274185697121,0.33008010125289833,0.41938167114704195,0.5076139539937199,0.5908920350921134,0.6792877957864605,0.7685501970982667,0.8505349262827624,0.8757519985398619,0.832017138998739,0.7995305453443888,0.762471538002776,0.7113390026359667,0.6505120297469897,0.5866907154436438,0.520997330832877,0.45863080072432716,0.44291491142136996,0.49110232422164724,0.5583720928332911,0.6301484702892963,0.6984615310908202,0.7576944923668401,0.772307234370889,0.765294565669649,0.7802676257878527,0.8004151078898165,0.8159729153573239,0.8274188320411158,0.8198318763008103,0.8110598091779644,0.8426370500867291,0.8720876036778422,0.8402691634535147,0.7624214909031857,0.6781463992329801,0.5900329206370369,0.506758658917476,0.4185040762750456,0.33138335575393973,0.24759992819087673,0.15954946072465837,0.07651709856310007,0.0013462800902738215,0.0,0.06624893613430238,0.15379038139678491,0.243252163021221,0.3327203423737086,0.42218852172619714,0.511622972350338,0.5983818961061034,0.6824373347729664,0.7711743599697249,0.8500970727920245,0.8611858928388492,0.8215760442441893,0.7854787891491499,0.7396683785096971,0.6876388750485374,0.627586482269693,0.5597575717264951,0.4937213502815341,0.4316051212209746,0.3897885108542958,0.4201604725443582,0.48634408144451347,0.5660098321992877,0.6411855758114966,0.7133701230528344,0.7750602996776945,0.8114136028079102,0.8219567664377949,0.8345910978861244,0.8470268386900297,0.8606202937133891,0.8707599863196946,0.8538158123641326,0.822895365134876,0.8186245430783721,0.8574602128661795,0.8695296574483067,0.8210067903599176,0.7394214167785713,0.6562888239312019,0.5700462831959481,0.48678063645543124,0.39877549289056113,0.3148831992320099,0.22792874055461487,0.14050023338523387,0.05917800554865116,0.026430247717825983,0.09327182432353187,0.17815392658477425,0.2671393428650476,0.35124891140659,0.4379354555729218,0.5273123271979006,0.6135320840215175,0.6970169426249857,0.774789261952231,0.8543766007789739,0.872994882904351,0.824261357745431,0.7867618740418114,0.7530395960516829,0.7031242867140721,0.6397166871778586,0.5757720969738653,0.5078135985096945,0.4585041765933575,0.4972979304291474,0.5679520647152148,0.6337777020281017,0.6939153121175492,0.753033194855816,0.7917543004772944,0.8259029963549633,0.8717714480024474,0.941477868596575,1.0,0.9712700554254474,0.8925992438376307,0.8054862749200655,0.7202398409425694,0.6348399980967934,0.5454827722575015,0.45753995658686675,0.4243572930755688,0.49754389967304125,0.5809212615133164,0.6680187562851863,0.7453390381421021,0.8189832990778174,0.8842476994065569,0.8997262738794694,0.8742255532797369,0.850249458799623,0.8739419799970145,0.8950099648253504,0.8894687263602934,0.875186218615569,0.8625059451818071,0.8506978734979131,0.8422139993699478,0.8187840955861572,0.7705677574370546,0.7032588686151902,0.6249054830611027,0.5506126842345664,0.4784029502757716,0.4345401471943362,0.477250282702957,0.5426794326580606,0.6075028474675763,0.671253076216414,0.7288343231798087,0.7779552259068372,0.821110480143413,0.8583540794664988,0.9148619824986983,0.9784237147819874,0.9609835043068977,0.8803852992326449,0.7948737757801552,0.7062012529283799,0.6227523153999399,0.535063620923512,0.4471400812831965,0.41165443481421815,0.4831675978491956,0.5715984469052307,0.6549065618342442,0.7411816902738226,0.8229259090508338,0.8925639233388083,0.9048718089765431,0.8816332035030174,0.845875490971512,0.8468124349484152,0.8504745052042284,0.8449519876222111,0.8274306250044146,0.8107174806512023,0.7914928783729214,0.7956051744943675,0.7996693595287758,0.7625512339860065,0.7003192332820636,0.6327356802353714,0.5603673099788176,0.4921571621260308,0.4849300897959765,0.542844768251725,0.6111621647750796,0.6756549933900211,0.7343200295457251,0.7846883255218355,0.8201059426562831,0.8539089254856425,0.9071824887410354,0.9779844819615846,0.997981617104571,0.9302209105465191,0.8474558342583225,0.759070846339247,0.6721658662942638,0.5882241490505133,0.4991469156455941,0.4098836813994682,0.34424116914693326,0.39210652508039123,0.48082929162580523,0.5691285413637615,0.6523960227248076,0.7398977820040342,0.822458058469016,0.8931795734993089,0.9090472988094653,0.8931561088483917,0.8808249037823139,0.8997519302645804,0.8955755109853931,0.8773613824789017,0.8623373584419016,0.8431414865914404,0.8348926770473535,0.8500017496242598,0.8565627177394697,No
0.33286572154768135,0.2629381665489037,0.20210571248513198,0.1695965744500625,0.15117773655244182,0.12513168221167215,0.07530147216336514,0.030594643528329746,0.0,0.0009159011714747756,0.04215212523793288,0.048311942535715025,0.021377302147018717,0.035821567025254186,0.09036216746768,0.1541059338683033,0.210439097671814,0.2321952631512023,0.23277364723459049,0.2268907650554195,0.23315333092578405,0.23246446036880686,0.21507314532398625,0.17173042457713605,0.14401165930599857,0.1745909876817615,0.21507616078545544,0.23207526994722283,0.2314815612132497,0.22067137534698267,0.20754233535178224,0.22663702089650317,0.29573696453810205,0.383324804913314,0.4669520893406707,0.5561470113114397,0.6395280941423154,0.7240103473315431,0.7233221819776745,0.6392572765910238,0.5633420790520682,0.4811830218096327,0.3981771513168575,0.3179407059373569,0.24134716116867216,0.17701033474730155,0.13840626431822,0.12356787140841408,0.10895018690192515,0.07656224694233815,0.033330735878113193,0.005750108466954673,0.027214901512871315,0.07727401290385338,0.13596253520948354,0.19529804714386834,0.23026180498073567,0.23502996348901561,0.24383054944047244,0.24569331210110912,0.24454336650100195,0.2340408256667328,0.20385657981282956,0.15986767962979798,0.1576338103746684,0.20781950228488633,0.2399737841986389,0.25475122105004044,0.2473613955012186,0.24305830584383425,0.24107982251266247,0.2888293555738366,0.3720292841035324,0.45825144023664666,0.5444344029769164,0.6346445739061093,0.7178830622865326,0.7945211460980441,0.7675272640948332,0.6784964118215264,0.5981102655038015,0.5193698571281498,0.437202254888559,0.3554196880109164,0.27773041530918063,0.21270729019433854,0.17473404434811468,0.1561893051990546,0.1336684060188833,0.09880795960372968,0.056563243982178824,0.02937568784682476,0.057412066326986144,0.10752455337737477,0.16779167403568596,0.22774964915786478,0.2493355921306557,0.2415010153239494,0.23760462561260076,0.2380285609862589,0.23428399774743625,0.2222159468765874,0.21424347366546348,0.18365227755096591,0.13498403194388775,0.1348668587510644,0.17811282245529259,0.2108240411274862,0.22104794449188003,0.21591791982752007,0.21000776832699874,0.19651815545524887,0.2062398432580257,0.2675434992767518,0.350345703610498,0.4402610594730969,0.5235440355159435,0.6134281587497716,0.6955123289095579,0.7251373175232978,0.6508535175113217,0.5875481298776812,0.6222753297431465,0.7046576212539721,0.7960421860129683,0.8816913023459028,0.9513635996115435,0.942904870890733,0.866194244651908,0.7814669492173654,0.6960570642500883,0.609393276158029,0.5244044754138881,0.43687114120149473,0.35004143504737617,0.26835592724509705,0.23796067323714953,0.25727539404298905,0.25847321408301127,0.2630642796706548,0.2537584496044789,0.22997987522881624,0.19204213797029057,0.19829225915244186,0.24299778132036032,0.26053957657339955,0.26731928993358545,0.27629098253561546,0.28510802151791426,0.2871897925486482,0.29337978847979884,0.27671722073285276,0.23089663098142754,0.18265912646699256,0.1262911515415277,0.08402805697231153,0.10530092517958356,0.14441833529338144,0.1761318778414771,0.19457541371322407,0.2190451117546266,0.2742580890555941,0.34880382471732907,0.4318265817179834,0.5151059989331401,0.5940673295771497,0.6696899524769357,0.7514261469176311,0.8379741119397754,0.9184973113019754,0.9821716075066884,0.9999999999999998,0.9332336661017318,0.8489938569038975,0.7748623685562157,0.701759643480041,0.6161158246021488,0.5292149894441602,0.4436258712281005,0.35516633378302953,0.28838888732961054,0.2784130599948058,0.281334093231713,0.28832987155300005,0.2846293641844808,0.25995681844470275,0.22201176656743193,0.21536725344069874,0.2597564561235757,0.2748336057071905,0.28139593991126555,0.28242648824537886,0.2749564562644342,0.2687017229096422,0.2622896481174044,0.24977108866142972,0.2033529068573885,0.14542524140233448,0.0872052661402205,0.049491986783235076,0.07488819541996783,0.11540989102353394,0.14787528059123756,0.16022635080617897,0.17894379397182925,0.2290240455046706,0.30222670411766583,0.38229668239194603,0.465860191884538,0.5476118822926559,0.6229644939599936,0.7030893426240403,0.7879064039192885,0.8731509418352228,0.9511690935217347,0.9629283837836569,0.8919511299260232,0.8077454538012703,0.7214537076021659,0.6334141560081659,0.5488233184177151,0.4604848180177392,0.3765255736991626,0.29311668992386464,0.2525209744883059,0.263293823108822,0.2732208675329282,0.27852525699654773,0.2712488253865255,0.240990255408152,0.1970842614870021,0.21241752494338306,0.2568246784852377,0.27089139183421596,0.27216171022385827,0.27455979880252124,0.27084897853979184,0.26983735541064924,0.2702698530801788,0.2689177128519846,0.23826156743123872,0.1840562910467498,0.12363793574163928,0.07531872457938049,0.08560018132886071,0.12637657873391994,0.1677273481066095,0.19169188869959974,0.20440016454924304,0.23183319487058984,0.29967705076080264,0.381077887573247,0.4635159839114811,0.5469849785501573,0.6206150319508532,No
0.7892293631557931,0.7715433588291195,0.7756810268774207,0.8042684703573716,0.834485298138313,0.8403133138317961,0.8405347186347193,0.8502168868658501,0.858196145997863,0.8618044027336872,0.8368990223191176,0.820048914180663,0.8407702571161467,0.8739364168742888,0.8930415009247278,0.8734113177250685,0.8052795985934774,0.7280476619918296,0.653090260998434,0.5721062052873226,0.49080425355077495,0.4095022464568584,0.32820031079180423,0.24723665537327666,0.17237285127635504,0.09447435239046109,0.019021953732347385,0.0,0.05969510647448317,0.1387771638329257,0.21819549565561258,0.29206622801529536,0.3724799156420938,0.44948663471798656,0.5126119537268782,0.5861506117287879,0.667079860446827,0.743672080515536,0.8195441901339767,0.8938607394828803,0.9295427827944461,0.9020942466347105,0.8765369802605293,0.8560919341543926,0.8323409234843363,0.7990391238882487,0.7683840253375306,0.7648132582884072,0.7930684118015482,0.8195469601513264,0.8263150117860644,0.8235648591499108,0.8281843043081253,0.8369253342234056,0.8453780976804118,0.8318233512201682,0.8123328616433837,0.8078072315709822,0.8393391111819076,0.8671820658816883,0.875758790105006,0.8344154541266965,0.7602249871101868,0.6804933442670397,0.6067417827971283,0.5267223132088096,0.4456674119746794,0.37035304121156465,0.29294115099246876,0.21169849693722365,0.13168831941324932,0.05859500056124123,0.006292390655140867,0.04230465540791983,0.114162035621584,0.1943356887288653,0.2756353187234618,0.3569373258173786,0.4382393329112949,0.5194720847828481,0.5966059539823992,0.6721627292100946,0.751061930274317,0.824956464688435,0.8949436321152727,0.9037734037298976,0.8802732197946858,0.860851544897883,0.8379882577023853,0.8074846637375935,0.7760382632201529,0.7617833729187998,0.7767786936195661,0.809986955385284,0.8315104535602788,0.8337257760058482,0.8275811292560197,0.8293271041654521,0.8364483218174256,0.8272479548162973,0.802185804352432,0.792241750865519,0.8188638005775081,0.8516551285559829,0.8647755914582548,0.8420706910475496,0.7816737076303469,0.7132975033486065,0.6337290536644954,0.5568783547576518,0.48105485806155535,0.39992327478186673,0.31894814795481163,0.24404819276832124,0.1661596143765286,0.08611616527479637,0.03151512780300669,0.06238786732825852,0.1379585507623452,0.2125259438060504,0.29074926278085844,0.3719260349881123,0.4485182595211249,0.5245890058905901,0.6056551761856567,0.6806157882934297,0.7420260625339642,0.8173730021969275,0.8856584207279069,0.895430739275428,0.8672455166955485,0.8491660679324821,0.8273460797353157,0.7978149706377194,0.7679040156057243,0.7504616512608436,0.7672761441572008,0.7993406096423047,0.8159260208663986,0.8170882330886476,0.8173679312002041,0.8288588210381566,0.8411614623451992,0.8423567740791492,0.8486971209941058,0.8383551633740566,0.8110913802499896,0.7878979811744337,0.8018257849560745,0.8312713789015967,0.8585316149439272,0.8784045308634617,0.8983147253575173,0.9349060240815,0.9630475197633953,0.9271624925131067,0.8585365698229047,0.7834496213309795,0.7097608301733135,0.6295787339634483,0.5502615343703322,0.5293373916598271,0.5951298745163921,0.6723807374518457,0.751714543867594,0.8241780176406776,0.8851350321403965,0.9362308959895779,0.9271398716880269,0.8947816910443299,0.8729329436020122,0.8387340967693192,0.8306428042974471,0.8533193666326363,0.8630340535412141,0.8632347727013591,0.8547093317338547,0.8581716166541872,0.8648304448889542,0.8641204419680028,0.845225455070921,0.8134450835283106,0.7965487141770174,0.810490492179842,0.8414516194595191,0.8699165307356928,0.8911287965654825,0.9100563961021523,0.9452086404763279,0.9761185203967561,0.9363475583342765,0.8585964879102642,0.784849455292174,0.7051220557877406,0.6298658384178822,0.5608226895102278,0.4989450815956663,0.5090488048207503,0.5867174381602763,0.6674291380689573,0.7416114288016388,0.8180764387579335,0.8893888125903188,0.9391994174410275,0.9185035590864464,0.8994404285899701,0.875793649080811,0.8448144359001165,0.8507829638588423,0.8723018385399312,0.8744016650382741,0.8666447223122279,0.8600049260512431,0.852256091461126,0.8545030111547115,0.8540803969651761,0.8366661852326917,0.8048012528491574,0.8009710071054713,0.8336619966927102,0.865718891796634,0.8892276332657149,0.9072519213299178,0.9355192203697397,0.9773011672624498,0.9999999999999999,0.9520669010436279,0.8804486572207523,0.8052089151504714,0.7293912408861726,0.6485901237892583,0.5739272315398752,0.5207327995929653,0.5637975643658927,0.643472234781063,0.7239617017933003,0.7978728656960351,0.8742784444732873,0.9434858395580535,0.9571491154323258,0.924013813217396,0.9076881077167748,0.8777707827487068,0.851098276896553,0.8723819988669547,0.896087321396193,0.8904951076849058,0.8806576506555316,0.8727422322348878,0.8720077813449439,0.8663357025044122,0.8409913564414983,0.8072348997914064,0.8009509895065584,0.8226197049330134,No
0.7878377011993618,0.7893096093343752,0.7852217853075458,0.7993775326497303,0.8049772841781626,0.7710897682859204,0.7093637206881658,0.6479791649495668,0.5861146647239464,0.5236889884316209,0.46283219084607113,0.39954365590921687,0.3397995932607211,0.2889365463636952,0.30138874846875435,0.36172975681273206,0.42484831424784514,0.47744090623959407,0.5358583221107989,0.6004296093798216,0.6606634910712201,0.7236907530397689,0.7753697091153349,0.7875361403668104,0.7796073147603308,0.7657204822087458,0.7442999043519962,0.711190362918922,0.6870501760048371,0.7046447593514147,0.742582941141994,0.7708422268302506,0.782035562760383,0.7865999491035505,0.7855454198014205,0.7851843647264778,0.7788913916078031,0.7804493436777131,0.795047480949213,0.8051054161852487,0.7824803117580099,0.7266573038147996,0.6652743260321312,0.605083713504498,0.541815553891335,0.47671338453855977,0.4127875555303648,0.3556444246209906,0.3379050676519974,0.38571591951794043,0.4477728471773487,0.5122867201053363,0.5723391849728203,0.6359039831666613,0.6977971545175019,0.7578045132075659,0.7986763383273463,0.7965152920326679,0.7878881973361611,0.7711121211882783,0.7439291097639984,0.7097393129843368,0.7006950480450269,0.7274925191757189,0.7645772038661331,0.7946392831543325,0.8144357871646979,0.8217980447565658,0.8285691841556078,0.8280648849055527,0.8225843217149322,0.8376808804797242,0.8468200572700708,0.8205383949149894,0.7629673212432284,0.7024804226459069,0.642622615877263,0.5799244950917479,0.5200383313961712,0.45598487576807917,0.39500496622666764,0.342248182238123,0.3546619731122627,0.4118636180024083,0.47563767894092995,0.5372205000821402,0.5989410542738132,0.6639074722107232,0.7258553849341391,0.7871357785945248,0.8469281034985314,0.8747625096090434,0.8773263213870401,0.8782385124083791,0.8626878803096829,0.8370892558010401,0.8264009189243366,0.8526801056880908,0.8961349206736922,0.9325393367749735,0.9588418709960116,0.9725359056798042,0.9741689550452892,0.9760357197627012,0.9531621220787434,0.9203456256511073,0.8907169726629935,0.8404394302720479,0.7916755667855311,0.7514553071215366,0.6998425952453946,0.6373393908694553,0.5774669065785749,0.5153117745105886,0.46607836928053886,0.4169394306591448,0.357940359203432,0.29857143538325975,0.23800164574921828,0.17816017892276198,0.11453203532986739,0.053522624955693765,0.0,0.006022268426669586,0.06189145227999904,0.12595025629553264,0.18606955658648222,0.24957358547943126,0.3146851899965503,0.3798060037627044,0.44425071811519684,0.5027919313584723,0.5514125509610377,0.5807342171987964,0.5979190398820629,0.6113436408541424,0.6016649575884276,0.5742610460220197,0.5762033958520534,0.6110950908816604,0.6509148547939885,0.6831164426849676,0.6664601172519737,0.628638634573754,0.5952107675058034,0.6081305572079827,0.6310828975095701,0.6326169572113418,0.6208607460372013,0.604153290583415,0.5767740380530864,0.5291349727382131,0.4721350245725701,0.4106980337150648,0.3496717187633706,0.2848105919391953,0.23318347900901065,0.26008645586477247,0.3198396106773656,0.3798171860116873,0.4379296055692234,0.4964659295073844,0.5566552549186998,0.6202610145414962,0.6801698611639468,0.7419724732168289,0.7876084501578393,0.8299886889945247,0.8796839638863401,0.9226904706645029,0.949578094327157,0.9840635879365183,1.0,0.9982880187654408,0.9982395420073993,0.9863505542579922,0.967019460975215,0.9360459453679657,0.8971910013050068,0.8588126660119184,0.8601154406080269,0.8845725492958347,0.8976237358507457,0.8993451936034211,0.8999032491287315,0.8843467902701454,0.8355750041660965,0.7714869512259066,0.706367141695279,0.6415628926223418,0.6007688248787484,0.6429823396143155,0.7027793175360992,0.765042597090229,0.8229886594609888,0.8644315765419315,0.8679130705664706,0.8565121186530316,0.8544546696780562,0.854875019429377,0.846214168699712,0.8420314510343758,0.8246658330051551,0.7993126761802825,0.7649811722519968,0.7329959203344569,0.7448203991060196,0.7759067138935187,0.8016005983979195,0.8143528464130427,0.8238561086944367,0.8330982948243189,0.808971118342309,0.7522939065930034,0.6924970281239742,0.6288023493803989,0.5716984358264852,0.5743076960785394,0.6343763361492882,0.6940969326018049,0.754186116689751,0.8109611142686655,0.8333766509265017,0.8235644337586048,0.8068485382567536,0.8086872392290172,0.8111724650169803,0.8113095530258303,0.8106932317074067,0.8075193946982369,0.7972384841876992,0.7714987747877806,0.7395189224554135,0.7218299082440394,0.7495187004203938,0.7786271172180022,0.7951195446856485,0.8069484706058305,0.8143053698744418,0.8004990164339008,0.7547317795222366,0.6949210356731279,0.635108092388857,0.571382231707791,0.5258324022588221,0.5613032330876784,0.6218247885011343,0.6831371704970663,0.7423542514760098,0.7947222174701802,0.8255784550969627,0.8264695387574534,0.8143520882164863,0.813554015253162,0.8124522465929622,No
0.7223270736218855,0.7365606989311398,0.7232890977112113,0.7207387124835473,0.7327225093287598,0.7409808985971661,0.7333565553655849,0.7062254824218018,0.692692392313529,0.7238946837260763,0.7621895125797856,0.7635957396418093,0.7074524223678545,0.634094436070311,0.5557864656498445,0.4793767871712805,0.4024454005498038,0.3238856295469842,0.24888412418827066,0.17009021870714536,0.09545483795211718,0.020288771773736225,0.0,0.06278669961981309,0.14276454482850498,0.21855101857615566,0.296197360811873,0.37700014963137474,0.4577321728182747,0.534330923757358,0.6111040249840104,0.6918466195684202,0.7714266363511472,0.8353518706702324,0.8209301229566502,0.7693370694206948,0.7328983374515256,0.7003829948529913,0.6650538379140553,0.6181940018440656,0.5996261771782606,0.631808229707021,0.6737454460404869,0.7181775124867876,0.7449055776245191,0.7329194977095413,0.7274477966444702,0.7456144601627096,0.7651788539716627,0.7757751338293583,0.7693354637073885,0.7415821755060653,0.7326487919777364,0.7605152609931681,0.7886832073850848,0.7762777347257656,0.7083888169216414,0.6280247344819881,0.5519845476201323,0.4746484554491507,0.3964410693610806,0.32116679085403066,0.24106161212794686,0.16579212578186586,0.08821824419281954,0.028587747987561585,0.05318656971670044,0.12689991899839614,0.2031504826716617,0.28384265873538006,0.3646854178178548,0.44393509052540436,0.518613204007904,0.5986950087052322,0.6795440239523857,0.7603945145574406,0.8405271266859061,0.8838911615942276,0.8380014889618693,0.7884449822334966,0.7498295710135418,0.7139079329483865,0.6670575195334839,0.6177529332292505,0.578638796016652,0.5851583785189095,0.6263441528784622,0.6739601132375067,0.7087537897019035,0.713278083045156,0.705261767700783,0.7136198828428261,0.7264820392270667,0.7325339458427321,0.7117878128767449,0.7025034333198602,0.7312803771669026,0.7656434298853675,0.7490266639915396,0.6828388662136388,0.6073903374419088,0.5375185086253148,0.48025657182626735,0.42606693385357775,0.3644877066783704,0.2871869903712909,0.2089000378640563,0.1337508158961963,0.05768873858422352,0.008936411267576272,0.051290755221831685,0.13082812380665088,0.2116774606042885,0.29252562076387556,0.3724400092133856,0.44704639753609665,0.5265333884870625,0.6073768141035588,0.6873571812171798,0.7619848397305938,0.8390807332543025,0.8606306282014414,0.8055998590077885,0.7579380687561569,0.7247205638721897,0.6888148358230476,0.6409554969501711,0.5904981022813657,0.5572462226924283,0.574533106468681,0.6203317740304776,0.6661914129882612,0.7031852750082576,0.7085516539721669,0.707589849082748,0.7201532893538479,0.7352247043630568,0.7536968921148587,0.7609948042145319,0.7473803103228768,0.7315226247589562,0.7321341145832417,0.7341575691192112,0.710038212119649,0.6695295562345575,0.6208800612530617,0.5905619769833964,0.6222830977936679,0.6719307271198923,0.7169342443469663,0.7499642047528677,0.7854526280849502,0.841480109108543,0.9064705069284963,0.9580019000022318,0.9283654774476807,0.8499358212559595,0.7727677253944291,0.6965505904457948,0.615863749591364,0.535621428514868,0.46845277658089646,0.47916304923402764,0.5548587778486801,0.6296205208369295,0.7044037969523586,0.7690572057396304,0.7959562582035978,0.7841312157301644,0.7476544490106892,0.7282291466027154,0.7506804079185342,0.7584695533608748,0.748289288785316,0.7323523170661735,0.7320400750824089,0.7445982100056127,0.7322456721806513,0.6975404436465636,0.6495638472486606,0.6092129508873453,0.6164632748585909,0.6637655655957378,0.7108566445714574,0.7523502228119753,0.7867843828024071,0.8331425049110802,0.893358599974431,0.9592423142423819,1.0,0.9547316913683291,0.8795108368828161,0.8036637789900268,0.7230388559400581,0.6429242138790815,0.5682121748118903,0.4890283426385985,0.4081867826527231,0.3278828358301208,0.2823940306596403,0.3402973602879594,0.41681682002409326,0.49342269500006186,0.5708285770701985,0.6465506960367521,0.7223146512303972,0.7909990817620708,0.8196048383723696,0.8090737517425465,0.7774584631206128,0.7635145398430302,0.7879219805095364,0.8012483977550068,0.7954090193953983,0.7761767729729746,0.7576329634693849,0.7568326166419422,0.7706061747318452,0.757079264244607,0.715777176975395,0.6726605091893233,0.6315141231239328,0.6417761234236815,0.6893382712265704,0.7223755886005953,0.7555578583123358,0.7923087458203347,0.8515857041467491,0.9184173784448549,0.9603053237912128,0.9197222144122471,0.8468001156814672,0.7679922895643764,0.6871958855547401,0.6093110689188918,0.5337273673409814,0.45319150681977416,0.3826707218103903,0.40453670740426484,0.48308196433381967,0.5586158434081926,0.6358314821975225,0.709545185769839,0.773692398696134,0.7987905705116053,0.7807725439908567,0.7402906856782628,0.7263693606479001,0.7515065839567004,0.7658191650950953,0.7628292978126866,0.7541359998951472,0.7462138333768452,0.7619645740990143,0.7572752742211534,No
0.7709537898413237,0.7740984973184002,0.7762154255648106,0.7770323402724157,0.7763908270242559,0.7658431704426574,0.756073409201028,0.7738247742966444,0.7759473987225023,0.730343659157918,0.6705605716654655,0.6101232455396721,0.5530093979400594,0.49193113055698184,0.4302827181991294,0.3686385067348114,0.30812943506737206,0.2510348669017332,0.18999410962185287,0.12834831804405766,0.06752863281530114,0.012883286354207657,0.0,0.0529487546655667,0.11225338984095218,0.17004629830241763,0.22705904442723085,0.28103103520727796,0.34225102923037226,0.4038918407380499,0.4633633143191937,0.5119005241401025,0.5699455145308023,0.6315657197333917,0.6932151807762343,0.7546449585238089,0.8123769255344602,0.8686270019222302,0.8734931873350511,0.8281691307350303,0.7924612428726598,0.7744783226517922,0.76497677733914,0.7473654858896324,0.7175607359055562,0.6812597221222936,0.6539463227682667,0.6639057558267292,0.7009209396955831,0.7374970536630625,0.7614611644128166,0.7717494630601918,0.7665330490396096,0.7611644856637461,0.7656492495149354,0.7715619709864296,0.7782815203093254,0.785873739773896,0.7867710913311641,0.7780629375757533,0.7627002152298097,0.7724219345829351,0.7846959220572411,0.7451332031488425,0.6862757511237783,0.6260735125361756,0.568863575913743,0.5076719113809385,0.4460230340697547,0.3844862119203853,0.3261575387614977,0.2673230579439529,0.20573602767692822,0.14441139567166728,0.08718992770561101,0.03986258052797825,0.04981114694640909,0.10661499312196071,0.1661936740190466,0.2238447935925545,0.2852541566255345,0.3469035921486073,0.40855316264188685,0.47020273313516653,0.5318523036284459,0.5935018741217257,0.6551514446150051,0.7168001957760601,0.7779666119016508,0.8351405555822624,0.893663002078321,0.9092870845330163,0.8633226669033918,0.8202958288952273,0.7924505953452732,0.7841188412410527,0.7735445850933353,0.7495546762228171,0.7173217269046825,0.6830830805564936,0.6694182961943924,0.6940065650241154,0.7302264104103788,0.758408210833206,0.7692875809584665,0.7652365298971533,0.7626347979863437,0.7669176210470814,0.7753250175106172,0.78140025214199,0.7862171892623344,0.7882274753478207,0.7762048077155632,0.7559453410541792,0.7581866951281646,0.7790382786529699,0.7509761916375379,0.6941175214377346,0.6328932936581873,0.5753181434096666,0.5156196304956566,0.45399218770236877,0.3923565357123477,0.3323607430758369,0.27499652552717097,0.2137044800988009,0.15206241311249696,0.09166698954035335,0.035108892979041406,0.000997208923968873,0.04214533230375367,0.10203534039040801,0.15927099623481417,0.22048671500371836,0.2821356571903934,0.3437852276836743,0.4054273990213025,0.46578015998573447,0.522939831689319,0.5840734152419536,0.6457221044472274,0.7073182673091862,0.7663027312271158,0.8242342479013463,0.8652942116212012,0.8344187874560662,0.7917523382473624,0.7687881195335804,0.7553448602681037,0.7408106254264994,0.7235485887553965,0.7408548593589817,0.763187679658742,0.7761523572620812,0.7880835552415142,0.8134565631463802,0.8589044179411351,0.9162008577294705,0.9667923872465078,0.969630276556652,0.9190940948395301,0.8595472613008015,0.8007818051275222,0.7424082068693867,0.6808655769885559,0.619315205516332,0.568522128162035,0.5838698840142016,0.6367532932450175,0.6979835653973747,0.7564604586000958,0.7973323963658685,0.794754987164026,0.7771113929553142,0.790249804485569,0.8042703963534641,0.8073361946004805,0.8011328786849676,0.7975148326608854,0.7908820127707599,0.7849001494153642,0.7833911223859082,0.7901096059168036,0.7863105408826865,0.7700525803555041,0.7410995864511551,0.7038984356780418,0.6971546126853734,0.7301629179644928,0.7632278063192135,0.7875205981409235,0.79988064994052,0.8112827903249249,0.8419545657196708,0.8899284475255993,0.9436200622661868,0.9946967174584671,1.0,0.949446603506175,0.8899528602869515,0.8322580178394081,0.7727313423013598,0.7111099585288088,0.6505852631654128,0.6233219093804889,0.668094230454368,0.7257535661366534,0.7776543850800874,0.8097311945848857,0.8039333399913382,0.7862824000582294,0.798227085316511,0.808871859181236,0.8051797950516313,0.8008910548962296,0.7951202125767309,0.7877796845971745,0.7819580479224657,0.780732974063377,0.7885011117345895,0.7893270517679518,0.7772726429167633,0.7542514565191221,0.7197238653583091,0.6833813968946163,0.6873556412049162,0.7205160466180924,0.7539541297251102,0.7775074326032321,0.7892373270792103,0.796694065842775,0.823658290662032,0.8708978078671381,0.9242521979253318,0.9737024092366506,0.9740650219392177,0.9234410617923914,0.863182402580617,0.8015413319966755,0.7398917615033946,0.6782660493750903,0.6229902633381266,0.6277008868261542,0.6736986789001504,0.7327760240097185,0.7850529765216145,0.8042636797296967,0.7869506289532551,0.7773675996923479,0.7931188904896771,0.795668927176818,0.7951819272525362,0.795747773280223,0.7922957819574736,0.7896314827526776,No
0.6984951951572349,0.7117426591660931,0.7126732100833821,0.7065688486830626,0.6871503850266885,0.7013195402322554,0.7390020066280869,0.7439828208370745,0.6826755168638428,0.5985572885957684,0.5079738611879763,0.41769461962848653,0.32050719050099175,0.2293253298239779,0.1357158840868118,0.08650901383279641,0.14124119767261645,0.23291226448628377,0.3329718058456097,0.433285890816242,0.5323845221765355,0.6229436671932616,0.7202581735527189,0.8095172412830729,0.8451392147008112,0.7823168278228392,0.724839982015961,0.6843760312952718,0.6572631560127145,0.6381995357525805,0.6079045543532249,0.555938718638527,0.49666069257694345,0.45967799534217346,0.47496995522493957,0.5349693982720607,0.5987941650017958,0.6600765723852848,0.6935226964371679,0.6989176551786331,0.6842246021544092,0.6640606225510954,0.6537237236558064,0.656441221122382,0.664693072918489,0.6757687210237722,0.6805041511882164,0.6629320165936579,0.6587025403728168,0.6863766112553773,0.7324782823065774,0.7259007409882907,0.6578391495611895,0.5751641245761479,0.5012846728867819,0.41277411945852593,0.3179299299762455,0.2253609381787951,0.12838476218131767,0.06249263802013938,0.10191901695262806,0.19945288625212854,0.29081150583986837,0.38732450922553574,0.48095165418472874,0.5749888368268372,0.6741268019631537,0.7647932911883231,0.8521010697221485,0.8391450722790508,0.7670912204789018,0.7182363669380221,0.6927642841373236,0.664215298164011,0.6278337592793795,0.5752045150552336,0.524156917310816,0.4859475553428636,0.4990959296817652,0.5617470428584397,0.6301976791857513,0.6981573857344301,0.7305499136676656,0.7422121159339705,0.732402564141222,0.7102687469219047,0.699133293869209,0.699462308892089,0.7109574352596713,0.7172936256164897,0.7074005477708833,0.6839482182080048,0.6888039759814297,0.711414467012965,0.7403481536082082,0.7150440621263308,0.637447063592204,0.5468309485392957,0.4550621376096995,0.3647721046696015,0.2690762565177989,0.17807025036000756,0.07879260784938857,0.0,0.027165867428669888,0.11503828278218098,0.2147848689525611,0.3099760322383811,0.40252702380476557,0.4981489153930925,0.5714449855524439,0.6635582259891859,0.7601944608420215,0.8471725423172078,0.8599361678591262,0.784993181517551,0.7180942213860961,0.6831139415666498,0.6599816294053797,0.6302816861540281,0.5836290064157159,0.5309771982629747,0.4723927476088037,0.44570385039289806,0.48132505299342254,0.5509349434721453,0.6169083178895793,0.6749240705241404,0.7121183686811723,0.7237714337468562,0.7097735125090388,0.689992856056296,0.6831082485237958,0.6908177880046391,0.6985344039976165,0.7092947356687287,0.7255527976893326,0.7478969369607154,0.7378272532590173,0.73183838892244,0.7242984295920836,0.7304512962433749,0.7500238610804877,0.7605675348285466,0.750052249847126,0.7239043978378004,0.6700864941329823,0.6020785716841324,0.5348376587095418,0.49823889102434116,0.5437615636578312,0.5986155345728708,0.6466560798564862,0.6848840149085762,0.7090323913326861,0.7400485945797886,0.7935125065030839,0.8685227067862733,0.954428376016742,0.9999999999999998,0.9497284526112615,0.8602357286404059,0.7685375741105467,0.6693725919086335,0.5782005630304601,0.4837126865906989,0.454965464175739,0.5379877327862526,0.6371465473729587,0.7218121709821681,0.7787110089462599,0.7836453534147714,0.7516930239703232,0.7279337126795691,0.7311580647238005,0.7480492788739059,0.7583185820890919,0.7546021964883021,0.7431689100484713,0.746779522327927,0.7605835535876666,0.7837507656764469,0.7857013226438998,0.768464885477772,0.7365852651720506,0.6741732816158532,0.6086552428370895,0.5451348835381709,0.538378128234706,0.5843666017095808,0.6387411513631995,0.6862481560490588,0.7143603713915028,0.7430176135194875,0.7747032673763854,0.8448793891200814,0.9246852513203259,0.9853695310979094,0.962356711859156,0.8787896087473579,0.7814975427651232,0.6812289028321004,0.5848239846211258,0.49386918754578324,0.4383952078929809,0.5062962031066351,0.596750565475012,0.6831287632852445,0.7546287573093349,0.7870754621778941,0.775054327111308,0.726919488674443,0.7016049432614688,0.7173342476246345,0.7260890625144991,0.7187714220487738,0.7081569094511864,0.7006776025793287,0.700074490720709,0.7252140759957519,0.7398804042596898,0.7460782528553771,0.7323082324430705,0.6852490017496999,0.625975200368311,0.5632320273966889,0.5065020437242391,0.5208959966541384,0.5767205591871691,0.6330722992883457,0.6738524693804198,0.6966726227052062,0.7264260639348448,0.7739886908611717,0.8440877806694422,0.9230190521424058,0.9752861634208851,0.9309576160610511,0.83895992505803,0.7465405367031288,0.6533878462074514,0.5592259338217567,0.4789388811781321,0.5108546990725513,0.5846950345341233,0.6704897695864569,0.7478939661929409,0.7930496848926578,0.7937425688877153,0.7577018307475292,0.7411020804592845,0.7554787165140271,0.7567177493631358,0.7541395708267731,0.741113670566212,No
0.9304570343050298,0.9083485364383539,0.8856492263868914,0.8651330574111935,0.8507123790714175,0.8179354764517164,0.7794199031796327,0.7368646254604272,0.7251699890829388,0.7623206142028569,0.8154878603749667,0.8612017321195409,0.8856988898695117,0.8920139584526081,0.888268198945789,0.8809182892628338,0.8824834303619216,0.8871692165456642,0.8650141412420564,0.8505657689311761,0.8661496530448238,0.8941937594898954,0.9057653782455946,0.8437370630543117,0.7646507727321543,0.6839483284284527,0.5977161782672333,0.515990367852365,0.43813315826065447,0.3686502192679466,0.28777307580328815,0.2099029454971435,0.12564462619175676,0.04544511743188995,0.0,0.0521081292221135,0.13744111353460142,0.21816347460185215,0.29887985930066985,0.3784235112663099,0.44950385785839875,0.5345540551408221,0.6138286278544476,0.6961563165999658,0.7812165767660473,0.8569827019576659,0.8972045372961646,0.8924733571280652,0.8870699572022505,0.8723733782499468,0.8415104055829126,0.8090534041186395,0.7696682681269964,0.7555199834491972,0.787722003992475,0.8409038343986102,0.887839886586653,0.9234036016310423,0.9374564311454556,0.9381438053457254,0.925721394507214,0.923466907001363,0.9289381747037317,0.9323769252781653,0.9105132134591258,0.8953535844260447,0.9114889395211467,0.9426276123282864,0.9339269897547307,0.863211581842011,0.7825031747494902,0.7044093521533712,0.6206069289430483,0.5350289571135267,0.4576035724986951,0.38694616088941136,0.3096084436957445,0.22332700937798267,0.1399982488295941,0.10526392456421219,0.15916932794082883,0.2377487884677274,0.3238353762492425,0.40815272752554943,0.48606760134456284,0.5715238251886363,0.6579393155896416,0.741516210067614,0.8198324643464316,0.9017302211188605,0.9345050862752793,0.9243836284978533,0.9110607895007719,0.8912717810480559,0.8697667267534468,0.8346198075333549,0.796864991912654,0.7808018227446489,0.8092785057696896,0.8568019293046607,0.901656862091383,0.9291589359639061,0.9384915633647795,0.937155021307345,0.9289083692073692,0.9338017221659298,0.9343559410272981,0.930847382908552,0.8978957038779496,0.8910916409327745,0.9110441652783607,0.93752018984142,0.9127999283523958,0.8322382921591076,0.7538752406704423,0.6704404126115249,0.5884000052327838,0.5088838430145026,0.4228927677374168,0.3425579854960994,0.26137673891198765,0.17585135806699448,0.1019777366086303,0.08573274742501891,0.15321207829402672,0.23907693301145794,0.320148605452111,0.4005902954157019,0.486863208893215,0.5719695249031571,0.6497449594899647,0.7345494162611241,0.820948608007736,0.8988275539776025,0.9211687370454733,0.9132115389606663,0.8955007404264645,0.8816871734358049,0.856590350369171,0.8209628436958216,0.7794518257373231,0.7480602045654325,0.7580860269490739,0.8053762516074239,0.8568794820384342,0.8388836605711043,0.7949052755466346,0.8026448274174487,0.8460221389750844,0.8801860399475203,0.9071678172637119,0.922075684311003,0.941121962586523,0.9534532721130649,0.9650050627382811,0.9381579589653439,0.8664220177801911,0.7833492830296303,0.698732668560031,0.6296082666468168,0.6423080193396591,0.7236154503092418,0.8079279137872475,0.8853070312975899,0.9595235768143096,0.9933158215379465,0.9712794358034822,0.941907176950801,0.9282187134260822,0.955488791084607,0.9664162407099943,0.9661573341939922,0.9632811176433993,0.9693006281813736,0.9749521546499003,0.9717539468108896,0.960894609746193,0.9310271081094006,0.8887800684116838,0.8425959778363366,0.8264637072715841,0.8579156928595031,0.8951469744718901,0.9183672466890163,0.9370813516654641,0.95090463730588,0.963577424141655,0.9856742114241364,0.9782350394215464,0.9112566093379004,0.8336701352897098,0.75078861911156,0.6644213074410372,0.5892778877397975,0.6136009383775367,0.697540600762421,0.7761762650772224,0.8592931422913241,0.9434702045138583,1.0,0.9932291500960009,0.9599893361462914,0.9337072347163009,0.9392110462411873,0.9630636099390864,0.9632254723481761,0.9556406282551875,0.9616340434937121,0.9664865550440174,0.9664791181517967,0.9591381722908217,0.9328846897998009,0.8900366483633795,0.8358858295301141,0.79123246202853,0.8079741176997459,0.8469277202043144,0.8795334778031474,0.9059910157352049,0.9181936140643032,0.9301093278291854,0.9379575416631545,0.955942174069017,0.9304367125825019,0.8561414767778186,0.7761941534597836,0.690065477305152,0.6211393203563926,0.6572832283930334,0.7417780493227499,0.8204565349915236,0.8970611613102641,0.9582970328865765,0.9579081793266278,0.9242304197433373,0.895592385249601,0.892696286902741,0.9140965916240444,0.9194565098760465,0.9119117161398429,0.915663024655667,0.9200104479051425,0.9198319273930105,0.9111196744323109,0.8819634153721718,0.8311281122575043,0.7777252827134304,0.7730910362166572,0.8159237032294997,0.8530889306531388,0.8868560868597952,0.9078538522366733,0.9246480928373149,0.9484532218687856,0.9667318403380449,No
0.8838062199211484,0.8925957000840145,0.8761846153995251,0.8620421025432577,0.8904125058966047,0.9208176761819146,0.9234693883976174,0.8618018535564737,0.7764568165409543,0.6840703475337923,0.5972624944134232,0.505803002883768,0.41422781356878724,0.32749574035535434,0.23459350356739683,0.1482511583221734,0.06720152362356491,0.06258192487758352,0.14124330882728764,0.2331947137745799,0.3195283851721501,0.41291464502559905,0.5072803388193586,0.6016474776461737,0.6957804017615813,0.7839288357400752,0.8716953831953537,0.9137433704173127,0.8867102369304124,0.8597429762842591,0.8303821386024225,0.7907517319876439,0.7334224876059515,0.6714169922238736,0.6126962250737708,0.5688414073578386,0.5835359401606656,0.6431053854319709,0.7155935147219453,0.7906142373255581,0.8463743441183526,0.8730723555002345,0.875633343585117,0.860341452866649,0.8651227778422795,0.8737518844426301,0.8794657196817709,0.8827467260747696,0.8906376571286215,0.8942205610027393,0.8925572939401768,0.8927771064946247,0.8960655983784181,0.8827879189547229,0.8644175087473921,0.8810177751164107,0.908395630281018,0.917131964532489,0.8946981426628412,0.818337899722737,0.733313028702829,0.6423169773975114,0.553515571025546,0.46439406526465155,0.3702639049314137,0.2810075173116896,0.1923424797468588,0.10129875318720305,0.027261565680301802,0.04393522125058402,0.1272688197708146,0.22120209969120352,0.3124246689427569,0.3994169477217736,0.49327295519033776,0.5873776598723496,0.6750610143582244,0.7534838408018317,0.8206689800469685,0.8928069662911134,0.9009453192756339,0.8657712893465282,0.8370601796919596,0.8063477890785339,0.7598040090647983,0.7014898723125428,0.6377103460068537,0.5755671082472801,0.5374976623076663,0.5618055782933661,0.6295190043347866,0.7012311881392891,0.7684411488210366,0.824055581222911,0.8463725587315293,0.8392796832905495,0.8280651769445565,0.8337920958252273,0.8405164894675287,0.8492688279961477,0.8505829242553741,0.8517460335229977,0.8563542365535334,0.8556292505805821,0.8517835743207746,0.8305257368060227,0.848040509175623,0.8818769396102678,0.8934527050229722,0.850654455206295,0.7686801301920833,0.6789892423414535,0.586908087478676,0.5005091888896557,0.4087930176014659,0.33135070794959687,0.24976059120366234,0.15755501566105556,0.07065661909200782,0.0,0.03067271220040102,0.11811578961921587,0.21211149731412304,0.30000274671913607,0.390120785160342,0.4843726541158099,0.5747885318747098,0.662421506847083,0.7550356237559731,0.8406533086983076,0.8989423426897895,0.8695088363374327,0.8372060495726757,0.8082238764421777,0.7761268466415264,0.724625883326374,0.6663139208302437,0.6297885359307748,0.680033363382423,0.7417749595977686,0.7940840829438282,0.8328678007730627,0.8585285827726564,0.8880204637733448,0.9322695345510815,0.9839867821482765,0.9607372485295064,0.8780452428549684,0.7917323271371165,0.6985743253569844,0.6110498498817903,0.5205042298254473,0.4276136778122873,0.39042152294553134,0.4668336114890642,0.5475863461078915,0.6341913999012244,0.728128935566381,0.8153082381481268,0.8931309520493568,0.9317903115108802,0.9306975702244337,0.9082126646815257,0.8806898696156588,0.8875456478318141,0.8941741238827258,0.8910405889357914,0.8885385476860005,0.886041868876294,0.885732692007939,0.8798402573830154,0.8714143293635016,0.8654150895061948,0.8724869665410956,0.8844611802156094,0.8722557819459805,0.8273716788097215,0.7657132684214195,0.6927536595723022,0.6189354762373936,0.5757347127230338,0.6098958130967279,0.6767516577517335,0.738808152925342,0.7932123558560781,0.8390647499295577,0.8680964283264282,0.8959754965200507,0.9355984688672884,0.9955900308980085,1.0,0.9272539203178244,0.8416251718245399,0.7496097559721854,0.6633880876838837,0.5706777323833153,0.47663109976088924,0.41356791562266804,0.47303316652171656,0.5658633358663933,0.6521130496275723,0.7439629407422367,0.8295418440886658,0.9076549558507029,0.9514371426528375,0.9530458526911848,0.9373752527794829,0.9100014484772828,0.9118936151894214,0.9312698017081048,0.9286921986839579,0.9321989095205653,0.9279669680301103,0.9242266812239587,0.9221479394517612,0.9134314597793401,0.9044435664628786,0.8958097643107908,0.9028059774471932,0.9124188020156615,0.9011576727284402,0.8636863405126577,0.7983265562131895,0.7273517043686547,0.6578744132857016,0.6133262598588335,0.6485157394128666,0.7066238865627664,0.7648549642285677,0.8219422965209228,0.8614947557273626,0.8894193349000034,0.9172373993532644,0.9567416955350195,0.9992971333820034,0.9577817936430554,0.8724377902561106,0.7863293568149105,0.6930927947920639,0.6019402534591581,0.5150797836894486,0.44444363809622633,0.4900292331315218,0.5831803801614911,0.6740725200597851,0.7611531730399913,0.8489919585150064,0.9267386429944592,0.9638141525431961,0.9551172735583252,0.9318298499790186,0.9035863284732027,0.9161389459620645,0.9253913413274281,0.9166026514550604,No
0.07301184330383848,0.13393067881183596,0.2274356356734517,0.32447940109801876,0.41347742758240225,0.5004734676460045,0.544804271894944,0.5927257928484306,0.6359546309631026,0.7172460489601331,0.770155151491585,0.7651091147114748,0.740711146446682,0.716503716999362,0.6845142810192559,0.6481935047046252,0.6420963583095802,0.6752727815995572,0.7185196809050085,0.7338444968144966,0.7291326688945117,0.7306312688167274,0.7207520398201361,0.7200636184389744,0.7200632140851351,0.7200632140851373,0.7200623427659734,0.7191587244307098,0.712212283261112,0.6943002784391927,0.674847173978459,0.6674442563559544,0.6789785984934369,0.7152822283361933,0.7352555060515145,0.7694121186664842,0.8012593488350706,0.7212661810321386,0.6320093061930203,0.5352991323303367,0.43940342472956395,0.3495189054091812,0.2505194107435651,0.1575880421470064,0.06873165827001926,0.0,0.012229709091468921,0.09812586884553309,0.18886919367857158,0.28828068655619443,0.38807116829276866,0.4876546062595346,0.5795586642414605,0.6632388539750624,0.718012505662446,0.7202839903281713,0.7049897848907309,0.6793069595989776,0.6542467380322625,0.6253268680399588,0.6312823174393856,0.6726169312792272,0.7126976738341289,0.7198934687314944,0.7133584266368262,0.7059399684470917,0.7133173166218256,0.7304495372479813,0.7344823703385224,0.730561168553368,0.7207285364463041,0.7242126462361052,0.7226981794575202,0.6911184386303404,0.6810544020464562,0.6924238596024481,0.727051524109247,0.7473349757135161,0.7785598734623216,0.8074121158209806,0.7313872615768808,0.6403063008579233,0.5408487383455673,0.44106287257123,0.3432158745143479,0.25436305254460034,0.162983555982942,0.09819791192777605,0.12210742904426741,0.20650724146038213,0.30014209365883926,0.3938976925892481,0.4851093206001025,0.575624057404482,0.6684518482541204,0.7281265704782816,0.7278508982433682,0.7094727474512896,0.6851019252251276,0.6580594192493212,0.6389407656078934,0.6539938346629524,0.6941854674082584,0.7273381741739962,0.7208394354053391,0.7073172890430102,0.7058887440610215,0.7162157976650305,0.7327947236871828,0.7285815995011138,0.7110525733169264,0.7001527613655742,0.7033883947349646,0.6918047847139488,0.6641286874847188,0.651777460983824,0.6592284379359943,0.6924662653660008,0.706716266563157,0.7197918144582602,0.7709342060333881,0.7442831445088021,0.6570417934018553,0.5645988012503191,0.47243839719468594,0.3772712788835282,0.2871847943859289,0.20000504673023545,0.18427257352109017,0.2606228962809578,0.35688878738147656,0.45665806973677414,0.5552859367490819,0.6443470142083751,0.7351230941867013,0.8242029305243572,0.9088425797366693,0.9459011144075218,0.8891366185400043,0.8062852491897075,0.758285086520313,0.7433021912784841,0.7146696813821296,0.7223755928141453,0.7479888485866732,0.7441335232514739,0.7412224307315389,0.7556560986359262,0.7724620152549635,0.77184570573155,0.7690446393392443,0.7477528831069771,0.7415802846173838,0.7539646727017892,0.768367809233518,0.7697446780948343,0.7378045540948053,0.6967890063219846,0.6927035821593028,0.716734455600621,0.7414607244358642,0.763075181935029,0.7739187024543925,0.7642905385800405,0.7192209219198689,0.6389666034192754,0.5486450308668527,0.4522929854851254,0.3635537877182977,0.30928879114235985,0.3741350685737954,0.4700000012383132,0.5665547813102911,0.6559049754943818,0.748577154879067,0.8361626477771007,0.925801381690333,1.0,0.9714986092108253,0.8903082084997651,0.8122554033632241,0.7828234103373282,0.758843661235137,0.7300247233427033,0.7421064030181124,0.7704115388917483,0.7726128072597511,0.7710015998003925,0.7696302023846471,0.7725677254284404,0.7732434533247048,0.7739151274957039,0.7607824881933705,0.7432876199764347,0.7502848061665386,0.7547474085285177,0.7545051289344333,0.7395147937666491,0.6945624524367844,0.6666016222801083,0.6894483502665505,0.7147693282976748,0.7403310395491869,0.758475541525149,0.772688896118852,0.7584904584898027,0.6974916772041939,0.6153864707371697,0.5239729472391832,0.428573656421221,0.33848642812244,0.24812058915779245,0.2574637182341135,0.3502037797802551,0.4482946497111002,0.5371822384139988,0.6336077827957212,0.7223900787159905,0.8129127270328547,0.9033929244616328,0.9781425175710603,0.9636637109037003,0.8827549624400599,0.8057617214031692,0.7687358408175768,0.744853518680817,0.7199656443637306,0.7205402929544973,0.743774317095629,0.7546034560914792,0.7548278077650847,0.7594308791691642,0.7615859366017435,0.7551456269764936,0.7627315624663034,0.7659773610082019,0.7733065042264058,0.7818187387296645,0.7781300994202862,0.7737373492615727,0.7385255657309098,0.6972034595759924,0.7015667576806042,0.7388497575939565,0.7629201391068534,0.7946627595770757,0.8195431077835007,0.8377273417824829,0.8088504253744739,0.7414709052874526,0.6533835702971862,0.5586725576532481,0.4662856768761148,0.4336534655519779,0.4870684897140407,No
0.5717691526655159,0.611989006058086,0.6664459992776325,0.706344685859874,0.7544689281466835,0.7956477717409699,0.8212952856582315,0.8109950140567858,0.7912858053125097,0.7941963033194609,0.8092703029525029,0.8122698425029969,0.8009378488294977,0.8022155943921058,0.8253830659831055,0.8419504511057899,0.8087014718251503,0.7405650135017171,0.6639109570506451,0.5920568009533033,0.516510029603194,0.43885201159349496,0.3612149126088614,0.2864902103131669,0.2140205770227217,0.1366214077988558,0.05997901930165461,0.0,0.017328438175545857,0.0916020690766921,0.1643745677121904,0.23874565741876108,0.316365579867365,0.39386593821930704,0.46683909163798887,0.540989498449237,0.6185983605899431,0.696253244018543,0.7716498744503429,0.8435655111984633,0.9112980200920887,0.8989680720997623,0.8484729716043314,0.8178584903508302,0.7953230814872386,0.7663238498992478,0.7294855718017937,0.6874510663604482,0.6628071699764378,0.6776511973447746,0.7214366778456353,0.7659963588094442,0.8016342026800477,0.8244393781570886,0.8204366298264433,0.8030990893669435,0.799394954873104,0.8060392615778119,0.7972219408573743,0.7772435272910193,0.7867738448555764,0.8081327636787278,0.8031345274694922,0.743745266616387,0.6707550830245873,0.5957614610467908,0.523622905985695,0.4463205735468768,0.3686500402207138,0.29216472369194235,0.22070125181464217,0.14408495018090894,0.06667228346169818,0.0014814396678219932,0.007208508680331627,0.07593873951702534,0.14996708521460478,0.22293660028691042,0.3004323189775112,0.37778373500035434,0.45004079982107725,0.5250210343442355,0.6026651662190753,0.6803394887771014,0.7580103619322339,0.8322518519177632,0.846240419965771,0.8064113922485886,0.7829530586549908,0.7652387470781671,0.7342374453420398,0.6941465748617329,0.653453728114432,0.6446863198869318,0.6736223665563456,0.7222224609938753,0.7657905492758402,0.7908739534225729,0.8040614627989912,0.8034431308979005,0.7991842356886626,0.8048540886957479,0.8124064768640772,0.8054149108723293,0.7972743999860786,0.8145264905006581,0.8361369257518437,0.8100693461949419,0.7408811807329564,0.6691565734375492,0.5936856177805298,0.5166377542128081,0.44494298514666986,0.3691332646406046,0.2914704540245763,0.21432755008308302,0.14257070591394116,0.07646488910556926,0.0804981192186851,0.14052472445269515,0.21143343654987212,0.28846619773313054,0.3639746376452786,0.43585208025880007,0.5130412853212302,0.5907152704409268,0.668389592998954,0.7460639155569789,0.8234910199543876,0.8785139623791901,0.8523189683123479,0.8231176578664189,0.8060869897074353,0.7800947048189982,0.7434860089143361,0.6995577307949931,0.6706439349209826,0.6774021876842299,0.7180628236681447,0.7687938267345628,0.8033143042495009,0.8249302440110279,0.8413413215480011,0.8521730432644862,0.8364562956735683,0.8081897603805416,0.7621519829801865,0.7172394067430442,0.7023066767697382,0.7342959686896843,0.777555044710846,0.8084717349692522,0.8335647445620203,0.8521285486408477,0.891518600593204,0.9538367372686983,0.9986626884003452,0.9643941603002789,0.8940016142245336,0.8171147425424866,0.7449171986775195,0.6698554835847755,0.5922096935713469,0.5165740798044426,0.4958279035417067,0.5581489087570736,0.6349786433169141,0.7093917093143373,0.7814623829652468,0.8455012530560478,0.8629530362538141,0.85006311434283,0.8315385520738409,0.8351055895232425,0.8433012276414423,0.8351979162586555,0.8324419124600856,0.8277768862463647,0.8327032632505825,0.8332454488914846,0.8215144923713532,0.7900256297236431,0.7468009525618099,0.6991267064345864,0.6700493754965781,0.6938415307455782,0.7348474193022644,0.773180663688671,0.796837552543792,0.8136301075725288,0.849754342936169,0.9079778545765039,0.9650788803995419,0.9571025219756074,0.8908591476166602,0.816583812651075,0.7442586027599999,0.6668963223678722,0.589756129498984,0.5180700515066375,0.4585754787888351,0.49353699710517007,0.5696760687302639,0.6413476985331498,0.7167397966333099,0.7874767015973997,0.8350582724543311,0.8451110101865417,0.8318233550195985,0.8110421798683357,0.8191516989850752,0.8336819339371851,0.8287631857721626,0.8244107025607826,0.8390052023835309,0.852074729187612,0.8437457415409072,0.8162445941637609,0.778242887007954,0.7314550159804004,0.699305517943903,0.7198197152658209,0.7589408559909067,0.794591945102184,0.822891743693393,0.8432634455619817,0.880525486486125,0.9400664627595473,0.9977698436973582,1.0,0.9379638313946433,0.8615756330906065,0.7839052521878044,0.7062309456860781,0.6290180868984002,0.5803869098036446,0.6293011991318881,0.7005964792704394,0.7753300071688259,0.8430006455644706,0.872523909532335,0.865025062311035,0.8400829755377134,0.8315140780530624,0.8415048450359343,0.8402988155148071,0.8259995657255944,0.8177050355705285,0.8304286524256835,0.8475873537872908,0.8481939161229636,0.8224537765342516,0.7816711045167039,0.7373009590143204,0.7001121951186383,No
0.5241957122043363,0.5545244104902723,0.5432732892524496,0.4795233315937807,0.4080255295039058,0.3401790402443986,0.2723860130214093,0.20366198413692949,0.1754608959300269,0.2245499759215247,0.2945838596756456,0.3603491396081555,0.4313910311726882,0.49950615360073913,0.547495753596234,0.6060852758442313,0.6771405116280088,0.7490546856183659,0.8209397709946115,0.8838679403095232,0.8700467983867365,0.8205068600987621,0.7879036413658943,0.7729734918716119,0.7602979349825357,0.7433170835116408,0.7167423838325592,0.6790147156885479,0.6452991427587925,0.6325971589633518,0.6565676423510226,0.6920058569679709,0.7242241262930816,0.7405957130088346,0.7371132883803685,0.7271150495905888,0.7407956039941638,0.7577247806517639,0.7676419524793329,0.7807819581188576,0.7902113953570532,0.7979260421024558,0.7879052195985302,0.7509537067143776,0.7065614726373067,0.6926864358306054,0.7027610879677232,0.6875887850911452,0.6313924232083586,0.5654774418900873,0.4958062231676742,0.42490192708100494,0.3591711820351312,0.2884576550321529,0.2165653051828963,0.14699931904693675,0.08081867324098435,0.019101931855855625,0.02117872905185969,0.08067525794489694,0.15191362323270963,0.2215941662056743,0.2878116372285653,0.3592918928237492,0.43120552581445615,0.5023362644342947,0.5681374531981677,0.6385738688690642,0.7104828432297606,0.7823897067230648,0.849228610190664,0.8484910257215631,0.7928441593855017,0.7461707481781826,0.7246512506487562,0.7233488410934507,0.7236329571180816,0.7064273355817644,0.6762575067836504,0.6376601870783206,0.6046968197089516,0.6009866938174805,0.6292922361224232,0.6638643072828386,0.6931435411846233,0.7029355837084829,0.6891519912549112,0.6778751342007322,0.6853797456167877,0.689693041314506,0.6894439023720106,0.6832121314400704,0.6791903654016037,0.6790293222886584,0.6634093206854416,0.655896493929463,0.6719879933955427,0.6858530497145753,0.6823288311431285,0.6356809893544607,0.5643839604218267,0.4930310789557305,0.4270484422594193,0.35701317134298916,0.28592284921967515,0.22013316861395416,0.14967708221778098,0.08142837710503514,0.03125383994341169,0.0,0.034644698900259896,0.10036736905620225,0.16857906977905934,0.24041883614917492,0.3117874985750446,0.3778147793474286,0.4477923754822023,0.5196206760331122,0.5878445502604094,0.6552852608842884,0.7262677663174745,0.7597368089474174,0.7195119937826936,0.7184919985929176,0.7596563435804088,0.7948576229728247,0.8083870851804796,0.7960780641059205,0.7638897954385061,0.7278208719532232,0.6918388845054425,0.6712446798457602,0.6885057146853634,0.7208156475860176,0.7436497704300778,0.7480604671295773,0.7390231020914796,0.7325128737806564,0.7498003826988991,0.7661083525401159,0.7750348441182623,0.7818274851610009,0.7832584298841742,0.765172137502517,0.7336594209720059,0.7110214924264512,0.7285273679652918,0.7666880948155591,0.8047759425907864,0.8369856111594797,0.8565101951340067,0.8513165866975235,0.828994694137872,0.7941038310704688,0.7732963434161712,0.8242748715260945,0.877427771369688,0.869334599389492,0.8101353569246751,0.7403668900737769,0.6700877260882417,0.6042308372292459,0.5330119434366177,0.4612038041405061,0.39340541577544197,0.3301315615864904,0.3327162169174184,0.4008253452770768,0.4719594667511805,0.5377689508128692,0.6078958756914065,0.6742139508260484,0.7292813006147835,0.7291147927090847,0.7146953761681346,0.6922850340243426,0.6889044281018523,0.7065265514170843,0.7111568083371712,0.7123479911942224,0.7175199211354765,0.7202715825215916,0.7190828554171173,0.7090352683703179,0.7118265084150536,0.7294594650550098,0.7321269888992467,0.712666521700165,0.6809745171785296,0.6474033419513473,0.6349000967849513,0.6654438887826736,0.7051620698887683,0.7344331479645246,0.750824221721932,0.7541213645700459,0.7573929233216087,0.7881333481106417,0.8439578922347549,0.9047556855086093,0.9554512249758781,0.9378711017184272,0.8755548602691824,0.8081613683530041,0.7407231734327292,0.6696250307243631,0.6037546648160413,0.5334983323024495,0.4617441362846221,0.4095111116068738,0.4463662933956548,0.5130586369267408,0.5828028290514785,0.6487864578827222,0.7159596824477189,0.7587001340955769,0.7387209444429376,0.7327568227231366,0.7313684598712232,0.7678616033142366,0.8092238152844343,0.8260343444583188,0.8220632531444744,0.8156693799419213,0.8050094315532682,0.7941636871681704,0.7844555631721827,0.7680892815983352,0.7676650733055878,0.7744572507909125,0.7632279959994538,0.7355876743391146,0.7015914303670253,0.6711977799126617,0.6788441419862058,0.7134763838050148,0.7511935131756965,0.777120758437322,0.7898830195044749,0.8083887432213662,0.8236003170439935,0.8617821134413132,0.9210240234458121,0.9805415023819856,1.0,0.9513101038936197,0.8818122104098368,0.8146761716940015,0.7461378816331249,0.6752005946574896,0.641207095321488,0.6902591862875512,0.755671507630394,0.8138592453608039,0.8247566574584387,No
0.826766058320408,0.842930391870576,0.853016233809694,0.8323998872646994,0.7660400507558043,0.6892554546042853,0.6119764501829974,0.5319558180901884,0.4543913616108178,0.37281754415967,0.2949295677020019,0.2139206853134457,0.1339391860860188,0.058884088812656,0.041013296898896046,0.10673982456558423,0.187887137423371,0.2695528959602039,0.347159245686735,0.4292978498432201,0.5122024978362272,0.5926448363831571,0.6708046596699746,0.7466912040433344,0.821811891122828,0.8982094373673055,0.9240766398545368,0.8660184358389322,0.8083334358458907,0.7770130732367764,0.7453529259258531,0.699721047291231,0.6476705478282361,0.5897392516363695,0.5357274789878059,0.5265791973935057,0.5799308276953354,0.6431028566080761,0.705604478597194,0.7632526905470991,0.7915101839345478,0.7847057162150277,0.7741070253008653,0.7820041480203774,0.7919922008303693,0.806321908472035,0.8117152500247591,0.8087874425114776,0.7945757851103104,0.8174871635752108,0.8432455620515746,0.8289817303359661,0.7660572876659129,0.6862271891493688,0.6053743697545675,0.5276056664933568,0.45305832249980177,0.38252683853005126,0.301183258807093,0.21983724929766996,0.1421208365492383,0.06196381888056285,0.008119446454223633,0.03612010878488314,0.10185168685184715,0.17792718885099884,0.2605085340238626,0.3431648071872156,0.42149337472692444,0.5019581336352779,0.5848648391808655,0.6678059626292536,0.7507470860776406,0.8335617743078603,0.9103370892613671,0.9306122649433239,0.8715879844007912,0.8145079374673303,0.7774258687665168,0.7468431940149507,0.7014027171237442,0.6458639700319679,0.5865717684978373,0.5370341188355419,0.5255143129720177,0.576298744622225,0.6410690810069031,0.708954894685683,0.7642299738489007,0.7948714920675035,0.7896675588233388,0.7812412240211284,0.789705440633433,0.8037319351496559,0.8119128272963396,0.8102992546983852,0.813873336775707,0.8075519917727687,0.8046206309393162,0.8293509182175143,0.8347352996476651,0.7815480507766062,0.7065233787655607,0.6285888957171708,0.5507363302311485,0.4699848276040057,0.3897023949411023,0.3112466697252488,0.22870715101093314,0.1497587750701161,0.07065965529903068,0.0,0.0014138078807161558,0.07694091373978146,0.15984605247340128,0.24278717592178917,0.3257191358641303,0.4071578906038858,0.4822103757751856,0.5539148111258527,0.6352650091936776,0.7167952325050428,0.7944399041573709,0.8756035933767687,0.9148055072983523,0.8652107469729977,0.8110309031200642,0.773580698960513,0.7376795528790041,0.6937177552340879,0.6392134294126666,0.5809397645124477,0.5299888408869371,0.5185448356561351,0.5690029585900471,0.6377189971159094,0.702165865461541,0.7597930657093095,0.7955322981786341,0.8141846542461497,0.8197504647345284,0.7883424438265796,0.7340399640352884,0.6669503544143445,0.6020544503195215,0.5546081293137137,0.5820330259148361,0.6396213242710422,0.6934354173940718,0.7409451854235443,0.7793648443236376,0.8141388605732816,0.864474439779823,0.9299677494237899,0.9918164010276393,0.9887637046162385,0.9144001517659972,0.8322858046168107,0.7546800757224816,0.6730286618429449,0.590172161608963,0.5104927294015209,0.431475612890641,0.3488116696766616,0.28480715682572705,0.32378506777125354,0.40488362121631977,0.48245698272913556,0.5629039913507357,0.640367931655639,0.7184863206021088,0.7940275660337377,0.8535352636821762,0.8647549966817241,0.8482301897570921,0.8278881085174252,0.8363772518719061,0.8344191756243875,0.8318869898999017,0.8257383597609456,0.8115853535038291,0.8050766691060887,0.814782125861399,0.8177459492579784,0.787821979143972,0.7327238167528436,0.6685849440852849,0.6040609334882903,0.5566828964385213,0.5823766041283209,0.6389809219751419,0.6956938062789422,0.746627021300494,0.7837639608877762,0.8127116527258942,0.8643599073819552,0.9312342588713989,0.9850407531552201,0.9627602828935597,0.8887066506234307,0.8073143544002805,0.729719295480729,0.6476139180929705,0.5652223854703289,0.4881918242505016,0.4455556849734746,0.501754884488465,0.5817874932098155,0.6595844783976557,0.7376015921651082,0.8113862141220465,0.8639389055885851,0.8702061642718404,0.8502752973988907,0.8234076834425259,0.8298065736554885,0.8353322909866636,0.832833204835163,0.8154433444071856,0.8001524675634155,0.797773934968639,0.8107851436545968,0.8105348258868246,0.7777597715885267,0.7227105312658122,0.6688781548203213,0.6051377328457632,0.5592239946952493,0.5916873794479365,0.6517505844484688,0.7057510086057133,0.7516777840978599,0.7880919709405154,0.8160756419088036,0.8665229309041707,0.9359374326917533,1.0,0.995344369348238,0.9246001143746021,0.8456083185796626,0.7632169036537795,0.6852268627522076,0.6043091045192883,0.5213899584538391,0.4413246159336031,0.42573846661537823,0.49787757658609794,0.5757271907939658,0.6561357710988176,0.7331805959523392,0.8080213066099569,0.8646346342131621,0.8758230135412699,0.863919415523714,0.8551418584847741,No
0.0,0.05196546731973076,0.11170688332063221,0.1717003658583942,0.23169403942792638,0.29162758068226297,0.34912057000407054,0.4062305184213958,0.4661238309296036,0.5261175044991356,0.5861055500579762,0.6450669735767742,0.7010850979112738,0.7605485211672917,0.8204166700540535,0.8773583360129308,0.9343315877304418,0.9780721941921771,0.975251433568096,0.9568265987359905,0.9286988635642772,0.8914367812790571,0.8500219988243659,0.8041892456974191,0.7684637571702355,0.7717370512518936,0.8109079746829299,0.8531481294140288,0.8914660078012272,0.9163309945537981,0.9221155215287705,0.9074396656713275,0.9012647003719794,0.9046368647032806,0.9024017927576543,0.8876341468260748,0.8783723245836411,0.9023518141902127,0.9005005644302645,0.8527312203473515,0.7975117049282319,0.7397576097218579,0.6837178435441584,0.6311194393208991,0.5782957174689028,0.5201158485049923,0.46042568183256605,0.40408593878953136,0.34568488959879945,0.28570986415624133,0.2263749620296428,0.17040501188981,0.11126829280416321,0.05160923161269804,0.005931549675620873,0.026985531468913047,0.08541888465134878,0.1454110032830177,0.2054010249339387,0.26454446184176655,0.3205126277521683,0.3798427902605969,0.4398344520525049,0.4996938596190366,0.5565768154623197,0.6143146781780859,0.6742642598559039,0.7342263421370424,0.7922073705845416,0.8488732564860623,0.9075520068300503,0.9477327239217299,0.9452939447340349,0.9279025872122785,0.8998342675487,0.8627581491192308,0.8218812120185122,0.7796139739819075,0.751878787092551,0.7728206188289524,0.8179434384445582,0.8593814008645254,0.8924117316093155,0.9129418454161354,0.9212412277013652,0.9113879113888738,0.9078982824321049,0.9111276051910144,0.9044434192015269,0.8838408791951297,0.8828792406849751,0.9098790436641473,0.9026089416548311,0.8546331863269507,0.7964716570397458,0.7365218764133937,0.6783610940010845,0.6218390999465957,0.5621553551172458,0.5049980595536256,0.4475540059750444,0.3876967068065726,0.3303193932844935,0.27309590300548986,0.21319023496211226,0.15367069502938535,0.09827409643185926,0.06523832208413072,0.10107798521979829,0.15927456453060174,0.21180088488969712,0.2671324747166567,0.32352874174761825,0.3832766563437216,0.44327012584965453,0.503153142685329,0.5601785259433245,0.6177608305849482,0.6776999251056641,0.737693598675196,0.7976872722447289,0.8576797005467292,0.9168987812125072,0.9572866420044278,0.9506449431094114,0.9373113902913747,0.9159926862748943,0.8788228221666322,0.8362606792280517,0.7948021613541464,0.7621556660652743,0.7718661265804748,0.8142240010501502,0.8564354296949038,0.8912811519280434,0.9082548295565536,0.9242226237567472,0.9289683623355273,0.9191941634025196,0.8917418891595152,0.8521185626677511,0.8103992978261566,0.7895201305539726,0.8225391956798884,0.865384805878293,0.9045901115820165,0.9380212983854386,0.9545536631402366,0.9694266440199956,0.9865483073573396,0.9690779301178553,0.9144478435162322,0.8569175756851428,0.7999393389923172,0.7400637728031667,0.6801036196635551,0.6221735861343615,0.5663832509099508,0.5406967189384349,0.5837312623048377,0.6362661132500971,0.6944724522613671,0.7505552073120327,0.8086684312226745,0.8630571241142702,0.9131390581050087,0.932525222524061,0.9123884584153978,0.9011818295095243,0.9215546833779759,0.9258709824542684,0.923684376487806,0.9241033656318705,0.9354389253478133,0.9382873312859661,0.9220453480856176,0.8990721317063566,0.864239572371675,0.8200163595770982,0.7836410895672492,0.7977216835787708,0.8415274860009397,0.8816291341328573,0.9172475511987975,0.9436013738234698,0.9598993683081679,0.967010233229069,0.9441360892531655,0.8903700512989158,0.8305217780019188,0.77052812099846,0.7105417978197927,0.6516909869657034,0.5956269115003534,0.5360974637223442,0.47671748973882283,0.44579758592663643,0.48810722649558674,0.5477743852859719,0.6072869043344965,0.6633325967115657,0.7221482121185231,0.7795144658502301,0.8349478980895516,0.8878344202940853,0.9266723344254628,0.9252417349480261,0.9011481085823242,0.9082796154956815,0.9186225711339365,0.9193300955387064,0.9204874872619183,0.9316638911489228,0.9386856302374663,0.9255101140596799,0.8972593381344568,0.8594960677536714,0.8174076317519157,0.7880415637475265,0.814419778696052,0.8580026193244737,0.9016900510039765,0.9384836933302442,0.9672970316260575,0.9873391726822183,1.0,0.9818370904761942,0.9304134504657885,0.8745524042474081,0.8150818568375088,0.7552158629515326,0.6982859865892485,0.640600214218287,0.5806532541592969,0.520661339069864,0.4626855922227626,0.4502175186552797,0.5032442565256814,0.5630029318462826,0.619522522721548,0.6776812749651017,0.7376501092415837,0.7975872127659646,0.8551158766991938,0.9095436989459447,0.9524644183250702,0.9687539972065345,0.9485637821657036,0.9161777994585942,0.919001358514274,0.9350643460322146,0.9324494129148153,0.9311753137477929,0.939173275659281,0.9447764249034055,No
0.8527486583815932,0.8425540086442173,0.8260407373966799,0.8299224047539747,0.8464482458614434,0.8600397376217114,0.8689909242165627,0.8747530129827353,0.8619097635343048,0.863215398027596,0.906552805128043,0.9246388671421596,0.8827835068251763,0.8072336534322361,0.7272752671290167,0.6516632760200819,0.5708496113115137,0.48926548862111463,0.4104387536481574,0.3340131620572956,0.2526926280337197,0.17109293809147752,0.091770560878917,0.0199336551338386,0.0026755199804662233,0.06953538490951683,0.15099304094754795,0.23260216283187707,0.3123897762726784,0.38814613858317104,0.46915257995545345,0.5507721584149944,0.631956517710134,0.7079847184537366,0.7872924096441151,0.8647756098054601,0.9125000730856455,0.9382450578738876,0.9428765247584162,0.9088774059618078,0.8566429051637096,0.798794077724483,0.7433183049148205,0.6973522991091369,0.6980054325682353,0.749099440356683,0.8136127629964262,0.8711140330905466,0.9254678155458155,0.9687351987327556,0.9770763676154194,0.9575742261684569,0.9486325953490405,0.9596069988658086,0.9602051411393148,0.9484751534517367,0.9319982832767556,0.9060234500232153,0.9219625415441514,0.9466156658965571,0.9213251750705161,0.8518766580491234,0.7710567846525956,0.6943638629771921,0.6158571996673322,0.5343380975571,0.45619717868655363,0.38961227649191266,0.33343103951887754,0.27127028241115747,0.21142271894917586,0.14150968085209703,0.06313401071640812,0.0,0.02562332091143804,0.10431170637954157,0.18592628043257398,0.2670701350982493,0.343030989198267,0.42248229794103787,0.5040813258697271,0.5845345404499948,0.6600731925001154,0.7405779947964876,0.818933928795691,0.8807636565296558,0.883607666316173,0.8557672204908456,0.8185913231592475,0.7768019190185739,0.7204874848805635,0.6622638014914269,0.60834893073438,0.5804015120940474,0.6141415602444206,0.6749068733586691,0.7434353844567293,0.8062536950450317,0.8633385510058155,0.9094876014395269,0.9226655246902392,0.9048490732008901,0.897443003569533,0.893739102464992,0.8578496402849146,0.839090961272485,0.8384892185493465,0.8309534954864087,0.8158546368195229,0.8390077887950339,0.8712778078247795,0.8598519846850986,0.7935674370641476,0.7134535591748575,0.6378982214283323,0.5576243468516925,0.4767279810179831,0.4010603036324083,0.32108205890980124,0.23947018323574287,0.15784920326522822,0.0763069696737736,0.005220522583686771,0.013979392696998327,0.08480639838043347,0.16423308651951218,0.2452687274400397,0.32109298714104384,0.4007670167754305,0.4823499072764905,0.5615437675104743,0.6376836910512452,0.7187119829971126,0.7948347690010159,0.8495975126612435,0.8495892167452396,0.8260323956687338,0.7894795586389706,0.7402120564605194,0.684954811935156,0.6250152326005333,0.5723261286596651,0.5616166272074418,0.5897264980870734,0.6122994244660763,0.6677061458935886,0.7278002536701441,0.7807998157333941,0.8237395978058891,0.8568147498608117,0.8774044171298833,0.8766172256531138,0.8341146166487897,0.7609021589330046,0.6810492058794276,0.605460990316998,0.5246520821643709,0.4431504912580134,0.3795636643754666,0.41705427547233476,0.4919223851152207,0.5716800992223755,0.6531180235256305,0.7301944050065402,0.8082717101958593,0.887133520492915,0.920538627816844,0.899701836842738,0.8761328550308488,0.8505326839367627,0.8601046894620544,0.8626541760275567,0.8631100900467273,0.8916474671364295,0.924789870292516,0.922229184949667,0.9283537127406786,0.9481900494799099,0.9479299524990455,0.9152660023309792,0.8659787715122288,0.8046700437652178,0.7381156580086189,0.674137592298827,0.6219295457229107,0.6362637868329856,0.6920884130163268,0.749262413218922,0.8016248316316731,0.8446602520393584,0.8796015477253557,0.90623077253857,0.9183117279558458,0.8874082626044267,0.8114383410187503,0.7308738582698785,0.6553464050259311,0.5750625395285841,0.5105077066678153,0.5442316381397861,0.6245581187914141,0.7058440841753305,0.7821226175398478,0.8610749400996219,0.9389981417110825,0.9917232900677008,0.9806794308853993,0.9620995277954106,0.9387025708562312,0.9554185616531886,0.9739529119379543,0.9834429302011395,0.9891304459545905,0.9795753888851321,0.9814555702436704,1.0,0.998593608661673,0.9649977610418955,0.9150786848873497,0.8576324892684767,0.7977451306897633,0.7390017715524312,0.7343701150872283,0.7854787679067939,0.8399947001025764,0.8959191798183138,0.944834475429141,0.9738542224241259,0.9696014551381723,0.9438731041623026,0.9113105716180548,0.8389159963444631,0.7629640177486684,0.6836304201639484,0.6020316399821138,0.5222919156745512,0.49601322244638346,0.5642390246094392,0.6456776149992783,0.7233572769163746,0.8008089941207753,0.8805488073535249,0.9522722283314485,0.9764082054905255,0.9555884493322288,0.9276409121611952,0.892868794899628,0.8989936802668906,0.8990900140858519,0.8882712478884344,0.8753044826920523,0.8593245223650895,0.8550037889034116,0.8728897398072356,0.8800405993036425,No
0.7551061235968299,0.7298057677019301,0.7004358452621089,0.6608606893496074,0.6179257016583823,0.5712568530102242,0.5385858902214429,0.5191624983013592,0.5231894850588021,0.48969500066377813,0.47171439277979244,0.5018166000165476,0.5473793649632728,0.5928165090869377,0.6388579719193042,0.6850397206434711,0.7163785493991626,0.7250635825110454,0.7263188846246424,0.7216232213127876,0.7236376011884496,0.7311905671598904,0.7404608390435381,0.7508589925928579,0.7603074843546649,0.7695499102361563,0.770585060601928,0.7705869578692885,0.7706027402841538,0.7721114439463339,0.7740390880379642,0.7709417589086096,0.7728189328600323,0.7746110340425774,0.7690110471637763,0.748486391856837,0.7265687471875788,0.7426509491927997,0.7831950863980279,0.8058162433126521,0.7767478755183954,0.7148958921152375,0.6508572309991687,0.5823034605012316,0.5179749047030382,0.44804812581647235,0.37728874510766475,0.3129035914167686,0.24309260424708934,0.17150623123151387,0.0999343066902263,0.03339378859158426,0.02013054484275212,0.0778982410713942,0.14315275217622014,0.2114202545725865,0.2829801365000999,0.354572147925154,0.42541509551608025,0.4898355103376717,0.5595343105725066,0.6311193463520288,0.7027108278849181,0.7733465134729542,0.8357382370295918,0.8561451772590789,0.8154335319862758,0.7851745371731231,0.7620386366223841,0.7455142657077194,0.7249331076676246,0.6976563211735676,0.6602594028209077,0.6172041966822008,0.5760802480492868,0.5319668964002333,0.48664796837529556,0.45966037191478626,0.4693302006132267,0.5086140424301382,0.555886598208533,0.601593350606286,0.64788114319135,0.6854246822666055,0.7028136746876776,0.7019233813958661,0.7025653608274152,0.7106237222693021,0.7208497422057762,0.7327561648648926,0.740768867703542,0.7446829496484402,0.7505595943994974,0.745936564620586,0.7412541316187302,0.7448654328281266,0.7521335691655413,0.754002089801245,0.7596928397009521,0.7608303326921606,0.7649542055825689,0.7635440880653408,0.7381056123417891,0.7252665758849715,0.7496153494998641,0.7877440514080294,0.8028741960770784,0.763750569166695,0.6998962580630521,0.6317767796600782,0.5660344337381027,0.4982012957174864,0.4297656910809382,0.3645174925062722,0.2932681284800709,0.22167526844555785,0.1500823474134625,0.07877347403202661,0.01583714080857357,0.0,0.05002795408688521,0.10414123408784659,0.16144326451504099,0.21985976384072403,0.27733225871075384,0.34074472541412115,0.41110276438013726,0.48269297818955526,0.5542723367589566,0.6235138148682648,0.6881996552677414,0.7592374706054927,0.82830180947794,0.8450288187199366,0.807390312929225,0.7826151093118892,0.7636448009958592,0.7540328442149267,0.7715664969143208,0.7911460318643402,0.8092317825304338,0.8348435499118201,0.8784036624922049,0.9362024781745857,0.9622624993317785,0.9184640274395817,0.8516780605693772,0.7804405588111776,0.7149324589451287,0.6467649797372927,0.5752089984280098,0.5037718896424992,0.4511892944551954,0.48783154590484723,0.5584337836157456,0.6243283459362701,0.6920542738718434,0.7631698741341417,0.8203367222484292,0.8392978690361665,0.8283595364354233,0.7945404170181625,0.7632969133751644,0.7782366480191525,0.7984690777230192,0.7988262118048857,0.7920425579455699,0.7906734695607682,0.7846250486928217,0.7820180331938829,0.781396738133785,0.7724172905063502,0.7720750156019358,0.7738294641046977,0.778698305366829,0.7738163237094735,0.7674532605254707,0.7664288812658389,0.7561388439883365,0.7433507341834018,0.7356684835594718,0.73521449514104,0.734908406710405,0.7251016150303173,0.6955812925559068,0.6521670690670429,0.6081053656383182,0.5623648963658292,0.5146393076035356,0.4885655087930636,0.5147046175927019,0.5622279158473678,0.6069202646263083,0.6478147297996921,0.6874926851271577,0.7260327729745484,0.7526067181993148,0.772060828203516,0.7920468080481586,0.8125763821563778,0.8441649092372672,0.8934392226222398,0.9547612571285804,1.0,0.9762687503819005,0.9124796231045917,0.8481803692704482,0.7784208911956119,0.7068365461745663,0.6360857437435075,0.5753869474775042,0.5720193067347243,0.6241956844455612,0.6855721857675152,0.7559567316685067,0.8128562096052903,0.8327214670497611,0.8253079948165245,0.7954811503556349,0.7658587837465165,0.7850866939994281,0.8056297909984684,0.8075037291048126,0.8092677217617321,0.8045637233386398,0.8036605166231368,0.7999044597244565,0.7989794645775155,0.798857732219475,0.8037244290463761,0.801814226913323,0.7949897867638607,0.7845787163213542,0.775768586518462,0.763031813017772,0.755134344398416,0.7531177903806809,0.7521872055735452,0.7546950087956728,0.749184434065135,0.7299564981160398,0.6910535202479673,0.6459964078397427,0.6008273374079698,0.553600462326181,0.5189939954524745,0.5395626155328839,0.589433780065374,0.6041364727634757,0.6368908658960384,0.6683289696777632,0.7042064798862313,0.7392589003534136,0.7666595529797948,0.7865849114204229,No
0.5662065147843254,0.560054853889637,0.551765555401402,0.5418112210939519,0.5227782983634792,0.5079310585881189,0.4825357859114936,0.45197328179920837,0.43137250397824767,0.4322314813585513,0.46071071871267755,0.5024189499178311,0.5461929149510605,0.5811350070225447,0.6012803968837439,0.6049993144446482,0.611985656943866,0.5977617842041243,0.6103642426512972,0.6155539565052688,0.6225369583375355,0.6250466283245875,0.6240748725818557,0.6332436610755618,0.6391398882817418,0.6425139481794189,0.6409017567927908,0.647032311322415,0.6606082243557283,0.6860595183840796,0.7132181164038387,0.720082898401593,0.7279333435970889,0.7008554650766883,0.6316543420435148,0.5540263716498142,0.4844657709549014,0.40978858489068637,0.332318851588459,0.26322726674351915,0.187857274602371,0.11317137072345096,0.06617891705756707,0.0942894520034625,0.16671948692054928,0.2446973516303077,0.31581927287733835,0.3887030724497935,0.4668573660335493,0.5449375477726004,0.6167197803694753,0.6889245981062919,0.7670233177927377,0.8374556452453252,0.8194131178593771,0.7565850130690477,0.7177341811623592,0.6980596577889349,0.6818001743164455,0.6692744028121893,0.6500119443195944,0.6261955910004164,0.5983150231286352,0.5701281274299144,0.5323536579628596,0.4918123728454724,0.4683156529089407,0.47842406304926377,0.5170621278527867,0.5588275622363297,0.5945413947185993,0.6126512550573213,0.6050099537043547,0.5874934035458528,0.5835119769164259,0.5903906381159201,0.6071912070333052,0.617149521545173,0.6291410489415765,0.6398097055315282,0.6408108416439784,0.6409469885027466,0.6448244065910866,0.6354306011658066,0.6274085279933128,0.6204523346385866,0.6349976553849721,0.6401977683248636,0.631118470333617,0.6133029505161545,0.5601300461131615,0.4920457682029138,0.4145438428163326,0.3363246764468617,0.259373033945383,0.19072828657344965,0.11514181240605348,0.0467653949895217,0.0,0.036477288609909175,0.11153999516443336,0.18014042944525666,0.2568592247383654,0.33507764120540595,0.4130543654852743,0.4837336904052407,0.5570727158637772,0.6308995016265835,0.6721701565449634,0.6373784152098809,0.5952885016951373,0.5764775938863884,0.5651571449772732,0.563322280849399,0.5509293062695899,0.528333316849251,0.49709237893482183,0.46913788544348334,0.4372701536432746,0.41848464813928277,0.4262684364923235,0.4595798870852976,0.5032889673332008,0.5421402332544749,0.5634147498860604,0.5609757111953291,0.5485370164736245,0.5427816880011485,0.5546643446070025,0.5676948978950269,0.5797467434774928,0.5817002425362927,0.5892317207533646,0.5976275568680343,0.6267113894173615,0.6226912512424316,0.6204881527746047,0.6188310570241884,0.6012351729614462,0.5886215770191192,0.583952496570521,0.5938126567923481,0.603565429106703,0.6035200124677169,0.5814209492473832,0.5440906720894925,0.5030785544878502,0.4644979292125808,0.4645816471333222,0.4963719186396962,0.5266049050609636,0.5594737566740451,0.5843354199783446,0.6007607522133374,0.6042779798723565,0.6027245551745122,0.6190685070005453,0.6519712970792673,0.7047259423687466,0.7686636472761668,0.8144313198936335,0.7813540924477655,0.716414122268654,0.641479943848491,0.5661099517073416,0.49701836686240153,0.4195729414278604,0.3551175828717088,0.389063807309153,0.46142672424254294,0.5301125153465469,0.5958919880604119,0.6466030459647698,0.6648752046418884,0.6759663063118662,0.6830774947600531,0.6705858366692758,0.6668818836953612,0.6681874247881339,0.6794095134831808,0.683936733182356,0.6801416505701565,0.6717078958205287,0.6699517039094263,0.6669112186492978,0.6590126115778945,0.6498606403728278,0.6354343381246321,0.622813641199653,0.6319085951353773,0.648872773098579,0.647043665347417,0.6383493392651258,0.6060183733269306,0.5650324489508527,0.5252365893818076,0.5176023596398565,0.5502849155953926,0.5929638692892911,0.6230646677613605,0.6510010224628637,0.674364614032364,0.6934685701400249,0.7098088475225446,0.7268271434762428,0.7451694191819771,0.7804143213804104,0.8369983057547448,0.8882827811754057,0.951376439353995,1.0000000000000002,0.9747791221982751,0.9101409778744152,0.8340441780295655,0.7572782371287972,0.688697528366099,0.612086299158576,0.5351724960366966,0.5076669456556451,0.5668803735498573,0.6392921803072655,0.7076170469907599,0.754223430979984,0.7597497420262906,0.7512816540124072,0.7457660543104321,0.7241246040255873,0.6978132234787073,0.6790100304390922,0.6812832603678263,0.690141533510473,0.6848758250911857,0.675093473678628,0.6609371319896755,0.6668839175651298,0.6571057133712539,0.6577547254498508,0.6532887603728679,0.6460926412568744,0.645893117176245,0.6449872620865962,0.6283639561734498,0.5992200124794416,0.5604395943880329,0.5165387978931208,0.477442231846267,0.4724214033225258,0.5011504882190454,0.5289971613705264,0.5533632543369793,0.5765686215031021,0.5870160721497333,0.5903870901257278,0.5960622358492145,0.6133949050841851,No
0.9207966931740196,0.924233860252964,0.9246874290253954,0.926441019112778,0.9314327542832715,0.9298143018176094,0.9187120863266439,0.9057441125677369,0.9304987548977793,0.9532953432102144,0.9625483508363047,0.9406152866398964,0.8768371990104994,0.8041863282271958,0.7298061056365913,0.655706233986873,0.5867334264277474,0.5152618773569583,0.44090732035736035,0.36711470687143943,0.2988660907990487,0.2264123966413173,0.15519415594707398,0.1099579205511988,0.14357760889316873,0.21343383728787801,0.2823194573323643,0.3563996049308301,0.4306162180553932,0.498567399838337,0.5567917104267511,0.6279973757918996,0.7017361947403354,0.7699591746663174,0.8421777796252831,0.9023609213542111,0.9227231344068588,0.9094727669437465,0.8922900708847575,0.8685404550016428,0.8350649437133079,0.8097745481476745,0.8088803756515036,0.8467359314288735,0.8942421500920789,0.9311232756072095,0.9364521348486975,0.923613655724321,0.9100765804081995,0.9076112979738203,0.9138450782016861,0.9146948940711875,0.9150437415552243,0.9155791225322173,0.911185330271785,0.8909581214376013,0.8878190136759189,0.9143224002134421,0.9305909742873214,0.9324029866455167,0.8924899990590262,0.8257593489372791,0.7528745033597141,0.6847669897737824,0.6119919757588602,0.5399621483869529,0.4855630713662028,0.4363544821994091,0.3867654553642258,0.33692749813085077,0.2803036515837095,0.21220660833611205,0.13815529766984658,0.06883726888836894,0.04317268725829171,0.10049498540706481,0.17406905367125947,0.24227273520934145,0.3148511013821287,0.38920891876290475,0.46112271210586353,0.5297486252499354,0.6037406298119453,0.6774372723758223,0.7455862133734433,0.8168384698518575,0.871957902905162,0.8940259288407647,0.9105276546630762,0.9069840183204082,0.8800047817769149,0.8456003123231594,0.8152451811019253,0.8152741744010453,0.8559339147238044,0.9074186148322091,0.9471242350898709,0.9589750966181073,0.9471925599842129,0.9331416533599258,0.9316276825034157,0.9426469336143167,0.9452842538587681,0.9482660916557307,0.9530370679320405,0.9368391139534772,0.9011496810009573,0.8928270124179108,0.9187212960658245,0.9399538820219656,0.9305211016515899,0.8826993434426461,0.8155429761465883,0.7460619822373243,0.675884386145342,0.6016222544872353,0.5296559238966415,0.461072185831254,0.3870921115214395,0.3129290245948454,0.2436722628949778,0.1725363722611286,0.09915111207344784,0.032349489589460045,0.0,0.05292691476155842,0.1203712403755467,0.1851140307573027,0.2510807235380854,0.3247548350681885,0.39320419086991043,0.465368791114366,0.539712740929941,0.6113218577693967,0.6801065030924461,0.7503617575793843,0.8136567974666874,0.8552406660307602,0.8692183057425439,0.8909574569557751,0.918169423150185,0.9102124659251355,0.8905596920233781,0.9236370386638476,0.9511734437176714,0.9423108863765689,0.9134787045509071,0.8929943698206896,0.884932399088579,0.8512554471284496,0.7966737930098008,0.7284497021760624,0.6573423717001795,0.588320693965399,0.5142730612457328,0.44585288082105345,0.43451578306260885,0.48900259371212196,0.5604991099084601,0.6348756669946768,0.709120391537356,0.7789238975188483,0.847568493124773,0.9144011996015483,0.9645111377238565,0.9695820647221361,0.9699005249219651,0.9407571733754866,0.9237787877486353,0.9527517070088048,0.9767842966188115,0.9808789929925043,0.9790443386360489,0.9729414859608009,0.9677694864508765,0.9616365413468858,0.9596634157042604,0.970628025256984,0.9844336052018964,0.9859268233904152,0.9691063278123445,0.927131030245275,0.8754733059948548,0.8431140933226732,0.8636074713680278,0.8987426275338567,0.9259815734748255,0.9416364009264097,0.9346489985500276,0.9239114615348295,0.901535343652648,0.8562649360428086,0.7868411583037246,0.7125243990164659,0.638166273550398,0.571032143340605,0.5774990048308445,0.6478833459040204,0.7213088706289138,0.7893196677521347,0.8617314854517185,0.929260543593781,0.9838391402107024,0.9765361533285483,0.9574494228109626,0.946812918728848,0.921966638894507,0.9218179412509783,0.9373696953787328,0.9412176788040639,0.9447373126510982,0.9447997921281776,0.9377365816427846,0.9338802957865006,0.9348375207902456,0.9506713948522231,0.9645716652721196,0.9639030641327496,0.9345751466548787,0.8903291832276042,0.8468832164000849,0.8403187078838664,0.8698775188542515,0.9001451104098431,0.9210641695732068,0.9390947188522533,0.9474389571236616,0.9315813705149197,0.8810793297502871,0.814261295484702,0.7464988156373146,0.6736814462633157,0.6075786567162219,0.5492908423864958,0.47746686364046276,0.4485489066713654,0.5102265433460454,0.5843516438775277,0.6537003124577861,0.7247187444033073,0.7970536905979632,0.8652236117567412,0.934282348674527,0.9934555911186632,1.0,0.9843660283585675,0.9732125922009668,0.9447962303227039,0.93601444695551,0.9560928542893151,0.9592531816754243,0.9554212933122469,0.9543799077569796,0.9494193065941142,0.9468580461750075,No
0.6737781119017218,0.6670668813174431,0.6745521356273866,0.6859007212116782,0.6872799476286514,0.6790404651363792,0.6680249984450176,0.6855220042807807,0.7045290421700355,0.6627174042576046,0.5817702094391376,0.49891116207131214,0.4203745731808569,0.3368555835126271,0.2563406135792652,0.1760473542885873,0.09483282711706753,0.01946750100823691,0.0,0.06466129976868384,0.14810736409427583,0.23249508052761814,0.3156977253459857,0.39415568349129015,0.47752715010358326,0.5605704308056457,0.6335147709514569,0.7143950202243671,0.7899219070655942,0.7795032147375743,0.7163836376998233,0.6635986168500435,0.6178253785599036,0.5759763257786784,0.5233503524681143,0.4674863761454312,0.4097210342466645,0.35157295912698017,0.3223384768326675,0.36100975031125937,0.4259667141974749,0.4941928147000755,0.5603478653223618,0.6236989690396454,0.6663373013537882,0.6772218753167855,0.6689448496878049,0.6610416499554993,0.6663167255264874,0.6661567427900082,0.6550537380261748,0.6365786575989506,0.6527553789411346,0.6828041729717359,0.6710147823324687,0.5996072869892791,0.5212012912114162,0.4398804266562558,0.358998869166396,0.27905466800774403,0.19596979612682308,0.11783500192658991,0.05107732916689123,0.07100165392359936,0.15083807012148098,0.23060597421753748,0.3117110588472981,0.3960428394005141,0.4804368667103288,0.5647735304757707,0.6459673534107125,0.7256753244583055,0.8091392907035967,0.8543947015949981,0.8000337614052638,0.7314671738630644,0.6763753208893283,0.6303431044518167,0.5863638382125472,0.5382445984656009,0.4834958735363738,0.42269593399683025,0.36874625801625605,0.3393000519160815,0.3725891254884325,0.43730366175836555,0.5050910486082111,0.5754632846592841,0.6343934484795765,0.6760363902542753,0.6960438694352343,0.6915716579585857,0.689239002976571,0.7001004387507638,0.702596402586306,0.6853341019030464,0.6676948225289269,0.6879396332582729,0.7002896063478455,0.6529420279957624,0.5768159119112571,0.49756169542124085,0.41761857028386473,0.33339489121803323,0.24900395373343032,0.16563949317865345,0.08831201194014926,0.042247209202800895,0.09082173618667011,0.17308862057080887,0.25672603666459426,0.33527263372497573,0.4181171520026169,0.5025027548663717,0.5868967655232046,0.6711136927766731,0.7507454350490755,0.8057352635065899,0.7615870443335565,0.6903869923713474,0.6365335434771716,0.5900373156472684,0.5435609746362916,0.49641222153266884,0.44064876611089143,0.38530897870505754,0.3330564967526134,0.3137875263185602,0.3594266522630237,0.4287294498701707,0.4957920513789632,0.5589250521585937,0.6159201928993988,0.6490046482174633,0.6583534569371695,0.6699072668665021,0.679364903359669,0.6686668359644371,0.6324541049951841,0.576827637705876,0.5130074293838943,0.4415675384207559,0.3747455609169458,0.3504613848025725,0.3954708891105866,0.4515316643896471,0.505138049000179,0.5562891235179733,0.6006671272413046,0.6467358797438972,0.7005442492245394,0.7679614950395882,0.8414170547455299,0.9159223887311408,0.9421580150058265,0.8791080147498805,0.8010700829378566,0.7179119428344077,0.6335229632363285,0.5491501024086575,0.4676182757710158,0.4261483613857745,0.48536738148937586,0.5635125386228145,0.6419403054444824,0.710835795269419,0.7270325930135028,0.7067236264470932,0.7024217403336391,0.7201327696011349,0.7231540309803809,0.7165306223142555,0.7119182451137268,0.7195851986302787,0.7128816829467531,0.6864731310417852,0.6398265713487311,0.577085700291691,0.5107627181789306,0.44370183919644834,0.3846333135275034,0.3903451486218371,0.44342311387223676,0.5014961456329147,0.5579677563590931,0.6057228660193567,0.6502100930946885,0.694214753002811,0.7530634972291311,0.8244071933940244,0.8985371537215926,0.9681591737799694,0.9760360822624142,0.9083356434890545,0.8246317147929735,0.7402387150865847,0.6558446877767702,0.5714506604669561,0.48705809304344194,0.40508122794795887,0.3837384748199263,0.45203228878392,0.5332242172187308,0.6117347613308518,0.6868513390205956,0.7228622940407837,0.7008381960336968,0.6701257993523303,0.671714883283066,0.6885799597323098,0.690049983480666,0.6861497957754162,0.6920274065726199,0.702405383538592,0.6964669200321499,0.6692581712727471,0.616885600550093,0.5526134378860345,0.4848971319193579,0.4188980535546355,0.36600234267856935,0.37361985630424976,0.43033892957488507,0.48981865722302087,0.544744192611,0.5951103034656174,0.6367541202940498,0.6839469982855756,0.7403068297962697,0.8085375770960411,0.8828658578996721,0.9570111203874251,1.0,0.9492866309293936,0.8705184679107395,0.7894243434251419,0.7050931917771831,0.6207053795820946,0.53766033861766,0.45919480951615854,0.3824393816705304,0.38969196581074306,0.46872985884965124,0.5470860776534207,0.6264380754197137,0.6991386952287778,0.7342670970310557,0.718863893251186,0.6991002955032274,0.708960606028345,0.7120683522702537,0.7105488974898461,0.7015755868718688,0.6946981662483876,0.6953364060756283,No
0.40817265529086577,0.45151792975338845,0.49462647621497347,0.4191757664340503,0.32499480367652667,0.22652181553619632,0.1308782034123599,0.050286425859844774,0.06141733373655378,0.14741252109219505,0.245060311268952,0.3378217318585546,0.42407954965839667,0.5166792509156919,0.6196209546883791,0.7141789718088305,0.7931117568185078,0.8553319491131501,0.8300671039919465,0.8040584571617624,0.7825024381924612,0.749179835499479,0.7131344509288071,0.6599613323160354,0.5984583853709757,0.5342217841811732,0.4784609026114539,0.4648423111197184,0.5112593902430949,0.5821448091707506,0.6504323685045394,0.7158088653733226,0.7704823527350986,0.8034010673954699,0.7957991815293595,0.7824349121786527,0.7718032618086033,0.7793663856784614,0.7955565932627808,0.8040468335964837,0.8131105571374435,0.8214224689502967,0.8180685312469287,0.8045456736275403,0.8039560097155742,0.8176100134210287,0.8540493413588981,0.8529567440842716,0.7786002047922878,0.6925893968613643,0.6144051817583793,0.5189374063222598,0.4243860154039054,0.3261099219908554,0.22845378278454942,0.14302626611883995,0.13471187248364025,0.22473395876987756,0.32041970257604646,0.4175725143567961,0.5177144492587382,0.6110036791460229,0.7132089773535359,0.8112826033938905,0.8800737870127906,0.8560511088789762,0.8274616232099434,0.8092553998228305,0.7877601311312732,0.7566492638683477,0.7022385900034636,0.6407741193796783,0.5793673307672769,0.5351964373336087,0.5371743083493892,0.5958975563495283,0.6652740502090009,0.7333500568652582,0.785887347871711,0.8143115930807301,0.8158537320667654,0.809479244901085,0.8015915565981786,0.8116786388865205,0.8264353357629066,0.8387393033375037,0.8396799851038887,0.8454761036753473,0.8276665936649852,0.8057394762657715,0.8122844395950801,0.8443735176134217,0.8602522694245887,0.8336982740231191,0.7476151470704273,0.6525436230204835,0.5551447799697542,0.4551847093590784,0.36177502864659505,0.2597659323835828,0.16478723380316507,0.06896154580071312,0.0,0.03393668193117483,0.1324310043088579,0.23561120578592587,0.3370713188114589,0.42995350006853883,0.5314016300514923,0.6333374374204557,0.7263365898538658,0.8255169277700023,0.8724210364633567,0.8437293937736869,0.8165314307111673,0.7885164759780221,0.761580627609763,0.7181524904823615,0.6586055081338558,0.5954522447720836,0.5364504319289309,0.4812267804361188,0.48306098318931756,0.5406326733936935,0.6087588463576366,0.6742412687886497,0.7328753915800303,0.7883073774436282,0.7923130136356231,0.7803853792282032,0.7609167404884165,0.766317483515419,0.7949294842954855,0.805025037662251,0.8095291759033134,0.827894050595108,0.8497675168331404,0.8462349056306586,0.8359286046692913,0.8068401233015792,0.8023160947456047,0.8285262958670809,0.8373997607410348,0.833431596987398,0.8011927388849733,0.7421608515533562,0.6844879381900888,0.6107795599311279,0.5433706471366124,0.535901265380313,0.5960279316170227,0.6601032848600663,0.7200093717859961,0.7745333072919183,0.808338516663923,0.8321827566652698,0.8591824193366502,0.8937614197543173,0.9534625308789446,1.0000000000000002,0.9486171116203017,0.8473813344515391,0.7490595025073132,0.654352490478274,0.5515740874752935,0.45602222909088175,0.449416698570287,0.535418986777813,0.6340393083000666,0.7280325249285491,0.823001938903601,0.9018264553098907,0.9100377577055749,0.8957334346133681,0.8628058691883453,0.853362138917021,0.8682998860617197,0.885445024743367,0.8789115830045346,0.8769654206605815,0.8773894754083973,0.8612069595058671,0.8484601925612691,0.8424169579060676,0.8532885019669376,0.8585790922260068,0.8492293475355253,0.814155432821037,0.765654345174889,0.6977066631413849,0.6222181641775288,0.5790839557690226,0.6122570961956455,0.6795278308621711,0.7388791835441648,0.7935371294849614,0.8214780906083601,0.8418888927750909,0.8627703447129809,0.8937776750262196,0.9545517637627865,0.9963353771139223,0.9460098840076843,0.8482656978294123,0.7452806998900103,0.6491611729731883,0.5523914065060003,0.4510193470161816,0.41429580031673363,0.4931631786068966,0.5912166146019897,0.6843949266596125,0.7808069710818886,0.8704916981013204,0.9256581369811088,0.9068738445795594,0.8895963673361689,0.8526549996751565,0.8477558853119354,0.8648868550915367,0.8633960178899438,0.8539517316646792,0.8447909792162684,0.8408618745953851,0.8284790019134445,0.8180096329360651,0.8223251569312817,0.8335879645440027,0.8427574022742326,0.8214057488478923,0.7749948541793035,0.7166224749167533,0.6450113611314012,0.5740808670491535,0.5222608383078542,0.5402331884509988,0.6044348846028831,0.6683280330817529,0.7229243566407273,0.7686513257342276,0.8009795494670817,0.8292940431398728,0.8527181093238327,0.8892194594494753,0.9505514281351208,0.9552126544853305,0.874733048069581,0.7805216531156829,0.6784918842968961,0.6005507497061691,0.6287764072425654,0.7215535325140878,0.8126788404000684,0.887919442017582,0.8881146305403387,No
0.5588880763088935,0.5188347373090445,0.46713019525676236,0.40887045616135875,0.3428088249550436,0.2740305133442775,0.22862804441069384,0.19648033095809891,0.1853088492161934,0.23935553907345763,0.30239703964857245,0.37176758058321147,0.4454612459665679,0.5181558031142193,0.5679542734564786,0.5911074835535328,0.602046595494492,0.5938506022222576,0.591392331286273,0.6001379500152257,0.6127540843532246,0.6218467379368922,0.6292679405705899,0.6372375922747087,0.6325894963624235,0.6012659475332005,0.5652735713698807,0.5758808158953319,0.6225861811345337,0.64588504143663,0.6195528529449006,0.5460581505032054,0.47179572933779035,0.37534075937970535,0.2812090547416104,0.18230129380812876,0.08169684395639365,0.0,0.0012418029109875217,0.09427403999888329,0.19826258210666303,0.3022865144661555,0.40327662414745236,0.4960389213108023,0.598962299215771,0.7019040044366407,0.7887292038955587,0.7899306502089845,0.7150192931279937,0.6521948663216457,0.6155397772694897,0.596218459940312,0.5720873274986542,0.5353175910401493,0.4863107422503754,0.4319528987092949,0.3722043991731736,0.3084368953192582,0.2500261624670683,0.22443176724672664,0.2565019975987486,0.323887927233776,0.39324325057910636,0.46262909770064065,0.5319805831649762,0.5721025055412268,0.5838629479548203,0.5909924933076596,0.5911207164623065,0.592028919679862,0.6030530672628536,0.610199340015734,0.6211751565421091,0.622073735570488,0.6276246650395181,0.6228134724264507,0.5862989223256063,0.5583792646845831,0.5828295939165575,0.6307851082903024,0.6595048615368695,0.6273949133680059,0.5400617036790378,0.44325102806349737,0.349643814349907,0.2483785294089298,0.15595869553524855,0.06098234814676795,0.03604736024470956,0.10888844669867126,0.2115857870767024,0.31562035052615567,0.4196557716534417,0.5236357161040539,0.6223472546764728,0.7167240069219818,0.8154403041150817,0.8260927273785228,0.7457635774477405,0.6772040816587657,0.6265266006318315,0.6024774418063172,0.5843093182375583,0.5556134914211683,0.5155246817497798,0.4602989391875907,0.4007943975950665,0.3386890057832961,0.27273892979451686,0.22283645425252985,0.21722878157585068,0.26725470827585873,0.33600644843987526,0.40929271126533395,0.47898796934465704,0.5409469593669209,0.5728942745494887,0.5828401533862233,0.5828599012321183,0.5759899387152609,0.583795965729855,0.6001557415790395,0.6002973809438776,0.6048049783684006,0.6111088181798872,0.6107499702092287,0.6163811984624141,0.5880550349026352,0.5475426619665602,0.5476345453841205,0.5928718610273394,0.6338806940112667,0.6619212579287677,0.6924155558285578,0.6822766148486381,0.641808337527022,0.6048564670740415,0.632062271325994,0.6573106030118687,0.6590579488787283,0.657004732741385,0.6453653802752508,0.643563540851317,0.6388554033283023,0.6306470641604558,0.6238325054966483,0.6281211584368362,0.6269115549334616,0.6148587085800705,0.5916192310813231,0.5401688843683399,0.47480490845904066,0.404164757815487,0.33102158842094465,0.2701945169035489,0.2952688372665868,0.3557770025045932,0.4238856582165047,0.48386587598121755,0.5385135046515033,0.5863087333719044,0.6181022872942439,0.6394348986798142,0.6567127456619049,0.7013422903548769,0.7719264740173073,0.8584203126678824,0.9449713053755042,1.0,0.9558502775515776,0.8665787674343091,0.7654940995114723,0.6714924456989628,0.5723371425577626,0.47008757605431173,0.434976879544569,0.5135823344892625,0.608001621194215,0.6893295218217048,0.7131334570299397,0.6995484890830239,0.6610636218860875,0.6233478171737352,0.6455041759590681,0.6711491491750694,0.6732439847931473,0.6658236155587414,0.6651999645571607,0.6550657989358033,0.6440423205787784,0.6345539451566018,0.6311755516543451,0.6319363430571809,0.6333328218588474,0.633340477580322,0.6258388089061215,0.5947378834734813,0.5369585276277542,0.4681508477571894,0.3987353193560197,0.3255720744218218,0.27413324254115246,0.3048942842235287,0.3623821688333786,0.43076141264499723,0.4907514809658138,0.5391275167619152,0.58521423738827,0.6179323736311226,0.6397699056819959,0.6607477919122458,0.7084159260374636,0.7826699032748317,0.8703411513266679,0.955567746442628,0.9874701735101867,0.9172898600770854,0.8251788968514,0.7240605478490987,0.6201683176176616,0.5247803441108125,0.49223217918241025,0.5506999471422644,0.6346241169014117,0.696546828463322,0.6982524605569234,0.6702954786548663,0.6256335021788546,0.6371788525059969,0.6721065814717138,0.6880520951202369,0.6769939628848669,0.6726445805513559,0.6609390258339181,0.6532473744181355,0.6439641788049499,0.6436235448870975,0.6446908046831048,0.6477529516511877,0.6323826765989558,0.6172645392497302,0.5683183993665524,0.5042178412570024,0.43167704558599684,0.3609832891040474,0.3036264478583788,0.3400785276747387,0.36705196663030115,0.32131136938445426,0.3527690096056477,0.4130480004367003,0.4792773063295699,0.5346888839348898,0.5789319985615569,0.6157740672818148,No
0.4407849335104268,0.4858722051725548,0.5003118173643661,0.4594738845051314,0.45041380231086636,0.47670723885318544,0.50297326953801,0.5500809905472313,0.5348204715760325,0.5466288810723143,0.6003926707870328,0.65623256305065,0.6853903265668677,0.6841979522670496,0.6810571931766785,0.6894629669934416,0.6884714074938678,0.695122595627327,0.6977465614911782,0.6808673371986842,0.6945789153268174,0.7305384525259802,0.7300396512974341,0.6658409530816696,0.5834871377096778,0.4964772313937009,0.41182459135173666,0.32133101818937515,0.23045039886920415,0.14239977974941898,0.061526801464953706,0.04006397284179464,0.11112098643467383,0.19613900911284055,0.2866385339796611,0.3728002080047288,0.45912627533082717,0.5496087526353222,0.634659740439383,0.7221899425633127,0.8094850219953156,0.8369784487528478,0.7758202025085799,0.7210114480777987,0.6845462035125822,0.6525890571552095,0.6108937331816056,0.5644329786934834,0.5190540613668722,0.5253269783717935,0.5797869020933006,0.6432234004889135,0.6987052599646117,0.7162610397723899,0.6995478915136382,0.6890086103055526,0.6886167077151404,0.6946240922089479,0.6913906797982727,0.6778315751031574,0.6650997742454139,0.6818832897304619,0.7162708256323236,0.7057079000678608,0.6336592203065439,0.5452058929885297,0.45505126658326245,0.3709399951896566,0.2823394400331709,0.19716307976099356,0.1099424171278438,0.026530927003192706,0.0,0.06822384447002117,0.15667732606858875,0.24067403048049796,0.33066835704888087,0.41800039901010977,0.503229227415257,0.5938322324501162,0.6815811453388401,0.7664009535655447,0.8433023311049337,0.8193200773601284,0.7495003030096723,0.6946636504406751,0.6579945118945834,0.6256836365333023,0.5822908297452012,0.5307406866538429,0.4833079520742609,0.5021910723505032,0.5725937730692483,0.6520471388537421,0.7393182764697983,0.8050774851919233,0.8203262792596291,0.7925474494186775,0.766934956153136,0.7432499585984442,0.7229869503035409,0.7120922845647308,0.7082234428957228,0.7194260652748308,0.7183792563407727,0.7128555521562556,0.7376263970913906,0.7520906714857312,0.7115442640604628,0.6409292024036353,0.5561238052336099,0.47212702533709017,0.38336892531747924,0.29947837177809,0.20975825065179854,0.11890589936860796,0.03555899727869327,0.02550993387967604,0.09871937321134105,0.18723650043735818,0.27158660529830025,0.360042742153307,0.45025092604433037,0.5344150199856974,0.623183245159572,0.7135354231073203,0.79641806762758,0.8300543285657431,0.766741635465573,0.7094293954003357,0.671782569299201,0.63902882320065,0.6000820151358042,0.5514618575701207,0.5223497286328851,0.5665239359127066,0.6159133930145264,0.6565864997840547,0.690039823489409,0.7262651173819512,0.7828634044828264,0.85461050422087,0.9322200682624739,0.9840468463246639,0.9378958083819486,0.8544890909933109,0.7682374318851941,0.6775464260770907,0.5908824242813884,0.505044648216485,0.4157734870525507,0.37868658148954437,0.44846058021918167,0.5370166289581364,0.621084883795733,0.7068482154455824,0.7629942555633742,0.7885523514091715,0.7713342332873547,0.7420045047879458,0.7443054565659657,0.7462820818677776,0.735238059820934,0.7418646742821888,0.7498851738743137,0.7678236392795048,0.7912018062100215,0.816702464966756,0.8463049004064238,0.8527094365706536,0.8120817434419354,0.7429305271087865,0.6600548998542137,0.5803288631300858,0.5311426849116145,0.5688987970037815,0.6175095612028316,0.6576347397423037,0.6887727092722802,0.7319855311844825,0.7959670194444324,0.8714426086837439,0.9488209000681342,0.9915717697318618,0.93965221758937,0.8662923496090049,0.7856267255175566,0.7001602442435748,0.6094646733608262,0.5199940489869042,0.4360946988916523,0.3464220494098227,0.27476632491237507,0.3159805530952442,0.40378035708810445,0.48790127017381324,0.5766167802969087,0.6586583211496593,0.7299723771635538,0.7503127475361973,0.7346107658538921,0.7021609694832007,0.707839198863853,0.7236414648344927,0.72017160495863,0.7195561826754882,0.7193267782652188,0.7237947457026332,0.7416400589932091,0.7507414058299431,0.7229847008170451,0.6682944772992085,0.600801893449058,0.553027400198409,0.5772958342364547,0.6243591048162025,0.6661902219133939,0.700029074842722,0.7356424628649822,0.7897079752948037,0.8614178098475878,0.9395428801520249,1.0000000000000002,0.9683084916772702,0.8873591614063492,0.7996936102487173,0.7103326336345164,0.6264228008041044,0.5365831732424104,0.4469695150116151,0.3745178540306391,0.39990177417276396,0.4876449340021447,0.571566860570599,0.6565584729772345,0.7343941070233462,0.7700304791482191,0.760615266798558,0.724402105067472,0.7126571289133155,0.7316607618303204,0.7280708493445853,0.7197108799065506,0.7221954114190716,0.7134483411820276,0.7108026474776632,0.7174258010895647,0.7062824386471229,0.6682562495012807,0.6196350510605861,0.5719834056218835,0.5221263912914589,0.5465625283495512,0.5999392422970975,0.6264910164330251,No
0.8585658619220062,0.8652183604355062,0.8767070827447221,0.8865500560469584,0.8934649860744439,0.897663796374901,0.878957271225016,0.8845551225943529,0.918777349889123,0.9355748446569006,0.9202275532859572,0.8560884934880948,0.7838384810398591,0.7065743039330292,0.633831275761698,0.558934384793311,0.48107996308872325,0.40319160706303536,0.3268850148462731,0.2550896589942169,0.1779497527963203,0.10208059044305695,0.0632155117598806,0.11067979234530279,0.18543152619230352,0.2632869455015364,0.3395015381870976,0.41133116500540445,0.48853593348176516,0.5662892774039832,0.6397791985987962,0.7138426705840584,0.7883008767526656,0.8469967333586543,0.8987318785917782,0.9149922162263577,0.8951861936830676,0.8612575049056561,0.8149881051853918,0.7635480194642206,0.710313039546314,0.6641715318510917,0.6603526209264381,0.7078380275372502,0.7684341878446872,0.820451420730393,0.8685882364438335,0.9135167250021217,0.9218657114870157,0.9118045098035441,0.9159444422951681,0.9297020644594376,0.9378985300986404,0.943263124726762,0.9369839310697461,0.9188303476976507,0.9341792076699804,0.9615418011369248,0.950901486841037,0.890465013646017,0.8165330755838773,0.7437378756210942,0.6660962359501572,0.588887356018241,0.517053497306105,0.440847180101428,0.3629630073424508,0.28607138416691236,0.2143828598740659,0.1377880365193458,0.07044389854519628,0.08154543407993187,0.14884920151710446,0.22562682254208055,0.30351962309381053,0.3812653896618483,0.4546807690300535,0.5288355760260026,0.6066535033888798,0.6838777375771363,0.7557296895587671,0.8289917251829979,0.8846666795291733,0.9037789824493594,0.8819301699834219,0.8434791229249292,0.8010477050082714,0.7473820135867104,0.6914072842701493,0.6378129648085198,0.594025263621776,0.5972242581011016,0.6470763262968646,0.7066838616995814,0.7686833580483265,0.8218136938475116,0.8545979376814652,0.8504136644340441,0.8406974104649594,0.8443786437697762,0.8514749045467915,0.8558480251078242,0.8473895416042352,0.8356292735788107,0.8542522840138687,0.8765615294036053,0.8735825047399441,0.8175589506757701,0.7433275363405973,0.6713041413275005,0.5939309434323614,0.5163817632046401,0.44393489656996077,0.3686648845120932,0.2907965086026828,0.21291269406998625,0.13691702713617637,0.06506591021105801,0.0,0.018199673904158553,0.0903823555891674,0.16292077132079907,0.24050047953189146,0.318194158511798,0.3911848727670627,0.46104595875709764,0.5276343499927805,0.6037966245761701,0.675517580720032,0.7496185038024936,0.8109396496653194,0.848052044776745,0.8439314181300095,0.8111194039575829,0.7686381142924321,0.7154299869756089,0.6598724046123698,0.6079175549713383,0.5774954324555217,0.6045533876884355,0.6614689848095745,0.7232809150538051,0.7850592704626136,0.8370951855486668,0.8710491289186051,0.868809337370412,0.8688138534346981,0.8808087418525292,0.8990127201130589,0.910722977415052,0.8982281268864916,0.891338506216178,0.8984841941982009,0.8890429063710328,0.8497975184118318,0.7935036647476383,0.7331753105462733,0.6742204302626422,0.6217564563831772,0.6298301794200827,0.6826473688467085,0.7370056969983143,0.7876639211344929,0.8312134649450484,0.8639227797307942,0.8801967526981123,0.8664417180589017,0.8240286754180193,0.7635886622446544,0.6929618586034365,0.6178747887840614,0.5579428120121848,0.595938260830942,0.6730015675343148,0.7470643187916863,0.8199855516387873,0.8903256614872768,0.9337076308792676,0.9145183714927352,0.8987485523186847,0.8739361781581014,0.8670229525863595,0.8828839110521913,0.8793448868439855,0.8759505354004429,0.8668575086955872,0.8698555403152906,0.8815199122750454,0.8708888312535568,0.8336485389331254,0.7757177111464244,0.7172710546074792,0.6594378271467423,0.6311679187805839,0.6723858004027872,0.7261996617010711,0.7804742418949471,0.8319977098215563,0.8730423259642712,0.908619621114344,0.9305051744785222,0.9197826182518563,0.8778451572434958,0.8101600196385037,0.7383818031240139,0.6727034396783649,0.6939654087135156,0.7699376610163726,0.8451381722233775,0.916511497718967,0.9814481174064049,1.0,0.9903333388363864,0.9705286905463413,0.9492300527534792,0.9663507015853097,0.9712109661728621,0.9632364653524741,0.9539901661131376,0.9443134568478324,0.9441865875451441,0.9525777655266963,0.9374289947150896,0.894120962735732,0.838308341071476,0.7782411037766104,0.7218298183244918,0.6914983508244834,0.7314963853305698,0.7852061522173992,0.8347064854996451,0.880426083474771,0.9151232532729747,0.9386362181334971,0.9453060932284432,0.9137758778522809,0.8600279513135716,0.7890540815055485,0.7156858638648258,0.6593847254478449,0.6968011339608464,0.7738697683709583,0.8487297299509673,0.9201267166313725,0.9814088653598181,0.9846850451404008,0.9615158793121228,0.9363533560058488,0.9091182559897844,0.9206381318792694,0.9222205474239664,0.9145684012746158,0.9051209537317779,0.8964225841821967,0.8863569504279376,No
