0,1,2,3,4,5,6,7,8,9,10,11,12,13,14,15,16,17,18,19,20,21,22,23,24,25,26,27,28,29,30,31,32,33,34,35,36,37,38,39,40,41,42,43,44,45,46,47,48,49,50,51,52,53,54,55,56,57,58,59,60,61,62,63,64,65,66,67,68,69,70,71,72,73,74,75,76,77,78,79,80,81,82,83,84,85,86,87,88,89,90,91,92,93,94,95,96,97,98,99,100,101,102,103,104,105,106,107,108,109,110,111,112,113,114,115,116,117,118,119,120,121,122,123,124,125,126,127,128,129,130,131,132,133,134,135,136,137,138,139,140,141,142,143,144,145,146,147,148,149,150,151,152,153,154,155,156,157,158,159,160,161,162,163,164,165,166,167,168,169,170,171,172,173,174,175,176,177,178,179,180,181,182,183,184,185,186,187,188,189,190,191,192,193,194,195,196,197,198,199,200,201,202,203,204,205,206,207,208,209,210,211,212,213,214,215,216,217,218,219,220,221,222,223,224,225,226,227,228,229,230,231,232,233,234,235,236,237,238,239,240,241,242,243,244,245,246,247,248,249,250,251,252,253,254,Target
0.14425656079181204,0.14819440431704667,0.19303540863097268,0.26562595160836633,0.35007614087842986,0.418588945662949,0.4753872268380248,0.5356969977357475,0.6116279489756389,0.6793496116533753,0.7633093962969668,0.831823004279292,0.909673964678404,0.9928294189695266,1.0000000000000004,0.919209412167246,0.8342338596510293,0.7499033260192385,0.6825230096824435,0.6034249772005538,0.5184596807814654,0.4336054536572247,0.3609528975806109,0.29192972554690577,0.2443777608700306,0.17969366737288706,0.1261534432563698,0.05850274521138443,0.015926858593950932,0.0,0.013225893607856865,0.0865926428331183,0.1544843967232703,0.21306698354298437,0.27581721404363035,0.32046781795801005,0.3288372598833993,0.384725376230898,0.43208014099433845,0.4418376655018701,0.5017984053424311,0.5292287278342416,0.5222743094645628,0.5213414429076924,0.530610585770591,0.5455007674082339,0.5660385338169012,0.5823721934417381,0.6198525300130626,0.6426457365369176,0.663594403026972,0.6918412668960419,0.720566857245021,0.7646100204696684,0.7964967318121965,0.826816701078799,0.8317850658295192,0.7850254939015477,0.7384950828391426,0.6832958019311048,0.6406716442795926,0.5981917275255939,0.5611007201124325,0.5464807295187484,0.5307632046768229,0.5303351330269024,0.5286736314849532,0.5109297354954769,0.5267669974778824,0.5306742483799343,0.5456761626394657,0.5544855725909037,0.5627810377255513,0.5619440235630466,0.55449717781678,0.5542828779064322,0.5408323076021997,0.530423524940681,0.5303355151981441,0.5303418208593302,0.5342249296614305,0.5671498760958933,0.599660593947386,0.6281105955710471,0.6482651121752951,0.6198623134356032,0.5590906249241159,0.5175180042219338,0.4825074061512131,0.4542290981906545,0.4345917183823653,0.4337833602121468,0.4240515903121902,0.3911894537181282,0.4033555764221375,0.45810554451307217,0.5138733241424389,0.5609692149474608,0.6282478941728313,0.7016458752666286,0.7844138312356219,0.8499084065428453,0.9169968249491709,0.8731847512787554,0.7884338289131203,0.7034577986828974,0.6198933319722424,0.5540438101296492,0.4726540199964955,0.3876838224101178,0.30427816174111744,0.2423525447910282,0.22791076522665765,0.280705168150718,0.35650980363791795,0.42179419251137507,0.489118952087674,0.519124614365972,0.5097340763604761,0.5248537666842883,0.5083891603943802,0.5250170270653749,0.5304691250742422,0.5494295587065139,0.5873852461132545,0.6029940343864131,0.6233067286344385,0.6569592071867794,0.6928290527169643,0.7259282536146672,0.7512910007589526,0.7704430450645385,0.7631092053706632,0.7229115504057799,0.6709716520886895,0.6335803560589848,0.5849193246976401,0.554543448706108,0.5333166097591593,0.5177254400201772,0.5063116770594216,0.5062053337143602,0.5062055236488483,0.5070191626650549,0.5249974663597143,0.5303291711505476,0.5324405909110039,0.5515037240416416,0.5378994088435225,0.5471630625070518,0.5497766243214222,0.5312735197281402,0.5373588043847546,0.5584178749104312,0.5920066349301134,0.6204190944508268,0.6411022203326531,0.639699049995273,0.5911274597654121,0.5415650434177337,0.5060200061255529,0.4740188614798746,0.4582824973031232,0.4577863640561244,0.4389039951409983,0.4105234840014207,0.41945258227160176,0.47269927411009593,0.5403383539106894,0.6169074138586481,0.685848487925564,0.7631140922774899,0.8311457874419284,0.7880616468089134,0.7037416233129332,0.6187655332245705,0.5337895766659062,0.45028231679055475,0.38446494928558517,0.30326037115484716,0.2372043353174993,0.23514437396959043,0.2875803137284878,0.35864653455838935,0.4260525874665495,0.5007767408479098,0.5140027895002475,0.5070164448923755,0.5209644189043479,0.5077188053820096,0.5186315514239697,0.5393068677419883,0.55426693220994,0.5646703998639802,0.6039820942362115,0.6300719423785108,0.6525048903889168,0.693788538925526,0.7246199419427044,0.75660976596409,0.791218444717217,0.7851515569033194,0.7368171445860239,0.6916104023429748,0.6411128203264504,0.6075412391356632,0.5496410154567628,0.5296351353626134,0.5122432128076384,0.5245272736550581,0.5303246872175822,0.5301773690131464,0.517184168183709,0.5082505657264567,0.5274923219451972,0.5303341016253831,0.5303355151983982,0.5303355151984017,0.5303355151984048,0.5303355151984075,0.5304836016146055,0.5464417567602848,0.5867161514821122,0.6164269627727963,0.6311562860415396,0.648063557960648,0.6115239522285099,0.5565442803472322,0.5125964413273802,0.4782242943649355,0.4499767511038675,0.43721698574544243,0.45603582726295944,0.4387122897815878,0.3943340764785419,0.3951553952654061,0.4364233915709832,0.5046219480755569,0.5703207161401274,0.6529082699546391,0.7196164693174434,0.7994513553429079,0.8556323526843621,0.8003879340879689,0.7155701436483031,0.6305940535599408,0.5456432148671553,0.46841164847054184,0.3993433630760226,0.3155720198927825,0.2680704076753302,0.29554470038580316,0.3591895756143444,0.4258259171537979,0.4987457578949446,No
0.1840127013508548,0.1878170045751264,0.2011668876949284,0.22683333550104434,0.2580194658125081,0.30010981102608847,0.3431815970244254,0.397157611308272,0.44376746710638226,0.48634497394641985,0.5255789686863066,0.5563124311204191,0.576292614612921,0.5659758744306913,0.5303421265907748,0.49462231302333803,0.4564639948096052,0.41812851391144434,0.3766332154423524,0.33958532649194106,0.3033446405906757,0.26361955235012413,0.23207545542151653,0.2112979478203152,0.18837879243604227,0.17514725242074158,0.1556261902734417,0.14008505273870675,0.12564070038341013,0.10121768896375061,0.10265730215648361,0.1588607499882584,0.2186643148386982,0.2713658317572074,0.3347522048799223,0.3986538733184033,0.45805520063406524,0.511068544771561,0.5745708566127354,0.6384851944152032,0.7023983301569356,0.7642304096083383,0.8154782151876896,0.8776294429904969,0.9284764694891008,0.957432165031538,0.933449821106731,0.8749361067366666,0.8110354006646707,0.747121015412437,0.6832066301602033,0.6192923516699427,0.5559349632268424,0.5033114031130772,0.44337795222844534,0.37947617817919577,0.31766971325060656,0.26614905885464113,0.2035968394702743,0.14491974347495162,0.09146083435638985,0.03724987682061176,0.0,0.008265998046135259,0.022639471510443876,0.051328497120619154,0.0850144348587123,0.11364781734098628,0.13789446424558882,0.15091892613109215,0.13176590803410582,0.10888390428778383,0.0873550054804455,0.06275064018017007,0.057307253069962094,0.05732680847739546,0.0632470544708128,0.06917363589075842,0.06789860063171904,0.07337387670960105,0.08347982523663156,0.08477122323644393,0.08402679377785649,0.08178325922166607,0.08823542237916948,0.10272951889115456,0.10861947849049569,0.12012204572089802,0.12831031281782934,0.1363657575975452,0.13648801135615063,0.13830806390780204,0.15809508549398732,0.1600739294935094,0.18519766041776897,0.22716322412776702,0.2729692966938071,0.3176707664858256,0.36113055594176346,0.40375340378654423,0.4463921384556624,0.48654716961458133,0.5087123074810807,0.4952830085667079,0.4760555553666075,0.4455792113493393,0.4061768778236736,0.3661783656291355,0.32747628411158214,0.2888296879307699,0.24823693497687183,0.22138959780307443,0.1905740490544785,0.16090752833351463,0.15018388203650224,0.13700936122039264,0.12319255533926166,0.10799108837788562,0.09906532734310769,0.08177180294329078,0.09959782052326283,0.1343461514613007,0.19389212889082463,0.25724304306186907,0.3093982741842991,0.3697920987742829,0.43368249285373084,0.49244527188662746,0.5459475417390891,0.6096026004963502,0.6733409789993479,0.7277668321496193,0.7855455811115903,0.8493823267939811,0.906883692743969,0.9385180348288507,0.9080953884003988,0.8558703718268945,0.7924225207685947,0.733131931209178,0.6800187814187519,0.6164971551736991,0.5527457526643924,0.49759817159207786,0.4405337345453675,0.37668197165696427,0.3152395684932343,0.26362146809133646,0.20080912820929786,0.14274496428917383,0.08950592978136207,0.042734486354352175,0.03820674735883056,0.05229780652275551,0.07407471488318107,0.0992211239410028,0.13101374230522778,0.1591124205957315,0.19189118979948283,0.18505111186086864,0.15995800065017418,0.13683047372618962,0.1148178764851755,0.10490471602386497,0.10480939452456983,0.1048093945245645,0.10480990065539553,0.10603278256572146,0.11368851461381713,0.10518815881577437,0.10621528577609851,0.11863500223394574,0.12106203110400715,0.1320084156523449,0.1380878212675376,0.15060557504688576,0.15405111965932772,0.16658946168526212,0.168163424753776,0.16816476182992313,0.16883216123097355,0.1914169305007416,0.22551784532100028,0.26107217916761627,0.30347360373511867,0.34603703987800527,0.3886848595010024,0.43459487112751605,0.4784943014645844,0.5123411504439868,0.5315001970687296,0.5266630559652525,0.4932895400250712,0.46041255683602467,0.4167583136615498,0.3744677264747964,0.34132131919460074,0.30936337329407415,0.27740635661812973,0.24599534694358738,0.21769969086108887,0.19786284158132128,0.18436108777996463,0.1712645947639695,0.16731335959529225,0.15432692975056828,0.1416164167295899,0.1700930581505138,0.22617918315090613,0.285184134343774,0.3384313488955115,0.40202061477552986,0.4659349881653223,0.5298493734175573,0.593763758669791,0.6576781439220238,0.7215890702321888,0.7828223731429311,0.8296541712059908,0.868963091830774,0.9286826731045514,0.9768526972825642,1.0,0.9732073974205493,0.9184969085167634,0.8594076577879575,0.806188072589975,0.7426488718375208,0.6787346763843511,0.6155801806985557,0.5635058338838648,0.5057565909588275,0.46533626749788715,0.4068727757479804,0.352541779081744,0.2946908915700148,0.23690773820967292,0.18255841062163292,0.12557692756604366,0.1009464534146236,0.10539403473601672,0.12282224665066943,0.14410078181867858,0.17899880347187302,0.20926307413565937,0.23121844562198612,0.2385147891264272,0.21615066339363898,0.19083413431095408,0.16149834893409443,0.13623146070711778,0.11278469478449438,0.09460853199112096,0.06979429115787639,0.049438439654887034,No
0.29993960517485885,0.33742483527339395,0.39389759639606403,0.44976367961991404,0.5084350645272071,0.6120087159106502,0.7259834797798588,0.8382610723069144,0.9176812360438342,0.9641945593091092,0.9300695021032697,0.8530499885105387,0.7648884742073188,0.6698620669561226,0.5559353645245011,0.44565753505913275,0.3651016661501263,0.2536863947676071,0.15010340164147884,0.06486136618062144,0.0,0.062039297165100926,0.10269189459988848,0.13139158611474766,0.1319719411073379,0.13197200278464116,0.13170886911268198,0.11107356837706117,0.11922536721643873,0.10025974142256633,0.09226358473980589,0.09226355071094527,0.10015382024375352,0.15123923141766316,0.22093157348518488,0.2966634623244744,0.37562549084463637,0.45775835589410363,0.49867119849101815,0.5368176047029225,0.5554915936826541,0.5488741550131673,0.5683131689334537,0.5480971176694709,0.5093847583124811,0.4525178352930821,0.3779005420753361,0.3196366207551442,0.2535954517228758,0.21212175798480004,0.2280505528707888,0.2507983864166352,0.25110136590370846,0.2511014764974959,0.2525052930322591,0.28628612225984806,0.32062933225673085,0.30174030705143906,0.3197243864634487,0.29043773975700127,0.25952982447828266,0.2764923117428344,0.2873814157982011,0.27588989926549434,0.2880500332924907,0.25720178047699704,0.28501783878958076,0.32632548483977697,0.3017741135192127,0.33637285437636333,0.37916693850570127,0.4389443460935949,0.4209334817728321,0.4645459138594603,0.4934435729810627,0.5389916086776099,0.5520569181453805,0.5291918088779868,0.5290695757153348,0.5262829692959228,0.4918163113693481,0.4555035421359097,0.4537157708762658,0.4851802076774776,0.45860408455210866,0.4461348182226752,0.4129529831660257,0.398738763231707,0.37098924014623513,0.3861528113131909,0.40318448081894775,0.3984791460803967,0.4368973686953712,0.4945434368209529,0.5914937466951073,0.6860403030764033,0.779894902515073,0.8782812607545818,0.9509767925406729,0.9649330233248676,0.9205590783639543,0.8416189229604951,0.7301878924070087,0.6161978258157284,0.5022073763997934,0.38822464856877215,0.2803639438630672,0.1986525120699918,0.1058202664661616,0.1499072536104631,0.2041897527261165,0.2113696482228269,0.2025783214340766,0.15297621145325113,0.1144451143270766,0.09234451162653201,0.10110405796363331,0.11834883813903474,0.09281232398424422,0.09800823064587405,0.1213570966883104,0.09382109158611307,0.12176197683391976,0.19483927526641143,0.27059214448468794,0.33274326263394993,0.42620988953877603,0.5042304848893204,0.5287821509283068,0.5324760478429171,0.5654096497202321,0.5646645776332138,0.5037424870746605,0.47731861918273744,0.41577130961798137,0.3471600136234967,0.2900581555118382,0.23433568079803102,0.21146646703503258,0.21279550532575797,0.24535349615451185,0.25109439279611045,0.2511013659035646,0.2517821206160731,0.2793424775700153,0.28517519859945395,0.2525217287688424,0.2511014935117739,0.25074857914757853,0.22623136826265444,0.21147387474557977,0.22695889960999605,0.2494530659552403,0.22234285727889702,0.2489140349185055,0.29419643762104997,0.3366900363078784,0.37494476958253653,0.4131938686647141,0.4514424488068052,0.48637962949447555,0.48935976674079296,0.489360092141748,0.4893418918724839,0.4777680168581977,0.4479537380212735,0.4157823411856496,0.40263523912527965,0.3714374273104397,0.370228995257337,0.366710011318375,0.3414717333599375,0.3660366050805397,0.32669148084877087,0.32125290554912844,0.3309890113360767,0.3575271806462581,0.40552446822896293,0.48228848536973956,0.5902854408281843,0.6734141194347805,0.7796773494259348,0.8783130673703603,0.9643556007271545,1.0,0.9485143866571555,0.8474563688730106,0.7663040359106015,0.6583453412592242,0.5759632852214853,0.467635683577055,0.3548070472435416,0.2705976960123593,0.16579807037646255,0.0837875119357534,0.08571709801030636,0.09829266340263842,0.12968837021498292,0.13050111036226308,0.10027744270658712,0.09226358473953589,0.0922618811698177,0.08920461871121876,0.05671109489840642,0.05255309944156128,0.05258668931698374,0.07045655196568656,0.15756457981710437,0.21754755839430828,0.28214689726940634,0.359051581159771,0.44094197896091636,0.4800954308255907,0.49381811003853304,0.5393309258957304,0.5683101160506041,0.5505236861912932,0.48903048067994437,0.44128949301644393,0.38634252557604665,0.3392324282784216,0.2719166504533179,0.25153434403802954,0.27687977313523593,0.2872063954042545,0.25403840419345247,0.2580823575578144,0.2889147422045122,0.2908109473098399,0.29131111521829034,0.31762648902460544,0.3263107625573216,0.29299418021035883,0.2878561464294309,0.2749237659179178,0.29140079544365793,0.32008919345924447,0.32387052308028075,0.3036654840182944,0.3316034291479566,0.3664387224705363,0.41091934697877974,0.46701335839081715,0.5061451947660496,0.5331236542244993,0.5662008307064825,0.594819463673689,0.6084554350256965,0.6081114607373763,0.5799242414797066,0.540042860942564,0.5578009152292047,0.5300955404493584,0.5290698798479694,0.5290698798479667,No
0.06392083754344391,0.07298625634837563,0.08626635590461174,0.09673772108908363,0.1141862074172213,0.14579880851333638,0.17926407317567827,0.1992159420128088,0.19909524592547712,0.17941720382276216,0.16007822208136924,0.14358040881009249,0.11948229650268916,0.11061094885382383,0.12002375952470246,0.1205406980664292,0.12054080532088562,0.12054080532088562,0.12087210728439945,0.13004801717167114,0.13394313885548081,0.13382000775059355,0.1263065932313876,0.12065063000388099,0.12694524635410653,0.13724206238321202,0.15459338552171387,0.17416465224718536,0.19909561761524497,0.220796169341976,0.2367907310865056,0.22862140985231072,0.21029449228482378,0.18846787213098004,0.1672297471579558,0.15236399710539406,0.13604526552470553,0.12120708093554411,0.10741724729966551,0.09621645887575703,0.08565430723833423,0.07033478937664528,0.049077078192661716,0.02399097943408668,0.0,0.03310697032220844,0.08006286634209481,0.12715842463039317,0.18078888413443162,0.23096134574420235,0.27526148827192465,0.3285720567671677,0.38223087017067314,0.4292486784333165,0.47643327587597994,0.5300775198117789,0.5838088209548276,0.6375401220978762,0.6912714232409249,0.7450027243839745,0.7987340255270237,0.8524653266700719,0.906120879021342,0.952930981005899,0.9914025314148418,1.0,0.9656623636366648,0.915006675122013,0.8716630374298671,0.8187317410988557,0.7650006621257535,0.7112693609827048,0.657541263276737,0.6060798544597823,0.5627248295099556,0.5097636259714351,0.45603252401523475,0.40230122287218606,0.3485701190007271,0.295606960677977,0.2522737951311429,0.20079264852783663,0.14709454123394794,0.09867422268839565,0.069825912318779,0.0684335856573659,0.07954460700373156,0.09112406777021453,0.11568277791619153,0.14833071646935858,0.17480140165650182,0.18728793294379642,0.18141660963121486,0.1544348144073795,0.14134147581583623,0.12036725438518792,0.10778405554622861,0.1071212514885942,0.10712113657310418,0.10712113657310418,0.10713233240530773,0.11121464593600061,0.12025901375897163,0.12050801319847837,0.1156397598368093,0.11777196574925686,0.1205341742822692,0.12054080532087719,0.12063279374191227,0.1297674442799397,0.1484911889851781,0.1708737739241073,0.18950020645173327,0.21189255965919962,0.22254271141770543,0.21417416908277653,0.20273695221661026,0.1893486420098962,0.16476200839002786,0.14026344945097735,0.12841439147559974,0.11804603896026,0.10761685782454533,0.10152372881874783,0.09096826079479703,0.07083022622526602,0.04609784250202775,0.022316783942643248,0.06376077143097936,0.10717164357397113,0.1582777176188621,0.21147919051212405,0.25492533444668863,0.306051919403159,0.3597792920949181,0.41351059323796724,0.4671300582195004,0.5130764599991129,0.5613192151315407,0.6150161290623881,0.6687473804087247,0.7219029807960524,0.7653305290194456,0.8165254453760151,0.8701283143470575,0.9159916367366643,0.9616036339154985,0.9759581964602968,0.9469952151194638,0.8950389910889753,0.841308582456227,0.7875772813131783,0.7338459801701296,0.6801146790270809,0.6263833778840318,0.572652735230232,0.5200160263315761,0.4769808476138895,0.42487698402395635,0.37114654091656263,0.3174233644178752,0.26672650320546953,0.2229224606997935,0.16964950313794214,0.11905888391325137,0.08662536607487725,0.08823579731459263,0.08088185905908496,0.08925619978171007,0.10712924091012166,0.13386358213498584,0.16893384457707716,0.1973695130701918,0.2123938953814659,0.19510238135274172,0.1728064131683329,0.1682706945639838,0.15268564576038735,0.1281408457408304,0.12062088809430849,0.12057088061363563,0.1256220390680669,0.13378416742621724,0.1341476014177072,0.14240970877107229,0.14735160556008653,0.14741221840840968,0.1524639909092378,0.15416845472136842,0.1474568917578103,0.14738038413894605,0.14820915691098335,0.16123903925787042,0.1830897972452723,0.20828881240822472,0.23095977755203867,0.24114829356225087,0.2409144520982216,0.23006683091882474,0.20789684322372892,0.18561252925284988,0.17068198146670976,0.15127548762417575,0.14063937081859557,0.1272683252492901,0.11392337040107581,0.10574064466967359,0.09105280875755861,0.06573483328451335,0.045530781866117476,0.07668101378740788,0.12243339518542662,0.1759680259230243,0.22422931269328616,0.27020552161242417,0.3237830041597043,0.37751396438680107,0.43029074014568325,0.47357696096417756,0.5252911959614979,0.5790198411271743,0.6327507822016885,0.685502635287647,0.7287795582505558,0.7805279589479257,0.8342566780946439,0.8879825652367166,0.9386192483262108,0.96214539800622,0.9407666809359321,0.8912596881696015,0.8471607305200792,0.7967265319116024,0.7430029306097823,0.6892716294667336,0.6355404317476241,0.5823153796025329,0.5382532621777982,0.48775866272346535,0.4340347924992627,0.38030540752316977,0.32824951552535486,0.2850562732627151,0.2325287242330738,0.1788165354164324,0.1290987674504458,0.08711908176587047,0.07942192893487166,0.09311398603772414,0.09671935049340696,0.10987639222357526,0.13367168171105348,0.17190461622426279,0.20587871482586584,0.22597704348477166,No
0.08040970643285572,0.10201279694374943,0.10415225929250793,0.09040354588168498,0.07417224882160012,0.06581705780321911,0.051517381192784484,0.05623708977591946,0.04548978651773661,0.040662091532392086,0.03614918026234948,0.027221726311331906,0.03959919867328843,0.03565234210962043,0.025719642615965377,0.04282872687341621,0.05665023594201912,0.06774185966938351,0.07498716893582458,0.10115263350354953,0.1356104835288705,0.1627068307357793,0.1681551779688868,0.15509048139673176,0.13893420786883137,0.11419912432954549,0.0803254603384902,0.059917165607142664,0.047817796448507366,0.026633835291913766,0.024059110197633515,0.012552391026204646,0.018095589586946126,0.014516849190267855,0.016830577616607112,0.04649050148781253,0.08688345231791894,0.13175056416764042,0.1806293123297329,0.23061880795993472,0.2858437507696414,0.3339249396551991,0.39291955248548094,0.45241059792528615,0.5107176932497826,0.5575475986695699,0.6148486005857756,0.6743386099306488,0.7338296553704544,0.793309846234604,0.8483686741264038,0.8966999920136094,0.9548644550766743,0.9904774967075283,0.9899411006789944,0.945000423229243,0.8927704374549972,0.8421302607923233,0.782755694854778,0.7232646494149728,0.6639132915542025,0.6138201795484504,0.560792023458093,0.5013366374096089,0.4418455919698032,0.3823545465299971,0.3228635010901919,0.26337245565038625,0.20388205802536064,0.14584008682400373,0.09924951580586594,0.043856920869240756,0.012322564040398554,0.010878500660010282,0.02522684847853407,0.05027278084116649,0.07202449649379572,0.07313517264466052,0.08430445889880689,0.07456866906164894,0.05078909346136218,0.030684466205189054,0.03621821787774371,0.040645420861619375,0.040641403115133645,0.03525104372136045,0.02789393998441092,0.03993742166916281,0.0406581668394268,0.04068859023023519,0.04666314572538166,0.056564375309792414,0.06489818354456389,0.09023262781815733,0.11686724724562225,0.1537634694628851,0.18270931003918855,0.1837786650693376,0.16833200448298102,0.14807968601591392,0.12055942941867848,0.09306064952246951,0.07527331696730544,0.0722864610767342,0.05993738896370271,0.04278116964372414,0.04064934502698314,0.036718000071457535,0.02680089536446051,0.04474515517796096,0.07365554475648617,0.1065294742050451,0.1618411361202421,0.20849752007747302,0.26556914779930807,0.31262969129101004,0.36682515468611854,0.40293411496515485,0.45075880952311165,0.49990053001457646,0.5591297354636242,0.6186207809034299,0.6781118263432355,0.7376028717830412,0.7970939172228473,0.856584962662652,0.9160727138519045,0.9719730468287566,1.0,0.9824192908215279,0.9348135456260063,0.8818915774507161,0.8224373541279659,0.7630620794140976,0.712164072987763,0.6599556201528336,0.6005093421226011,0.5410182966827954,0.4815332997083255,0.42488390340147353,0.377821577908231,0.3190902846774324,0.25960267297906103,0.20260362020631684,0.15567675507043388,0.09850303017620599,0.05286917038919148,0.029554408013128697,0.03579958244425452,0.027635419117223226,0.053662208125043076,0.07835155692901363,0.08860170866013872,0.08233768400982777,0.07288563983002705,0.06813137226733357,0.04569004054107095,0.04213768087336467,0.05444793971462136,0.04733881326774547,0.05575903447809605,0.05464353262739108,0.04210719504369154,0.05075812875865138,0.06898228516531768,0.06915653666300292,0.06716664764403069,0.05883004133950198,0.07507150159712239,0.09977529846768585,0.12947511519923527,0.1600593973938942,0.1831565091218934,0.205925354582988,0.21418633548316102,0.1908879368743528,0.16515169286237041,0.13889164389896935,0.1215641177664466,0.09657445479356275,0.08222813750325342,0.08532099493700684,0.07973210368912298,0.07277197563230953,0.07273069639993635,0.07301282766017048,0.08676794398400967,0.11975441124906316,0.15940558778420755,0.206391567869034,0.25953110725623363,0.3090963328194065,0.36835798641161377,0.42138614250197204,0.4714792545077229,0.5308306123684914,0.5903216578082979,0.649812703248104,0.7092552993135102,0.7611323827473093,0.8123495960116731,0.8684373507154142,0.9033954204881494,0.94312609990462,0.9498336181859335,0.905463204282777,0.8460828436472925,0.786592094526549,0.7278872730240686,0.6809566775460891,0.6241523875205499,0.5646637862021233,0.5051736092837102,0.4475528206233861,0.4008254680942738,0.3427356188846975,0.28325670818138304,0.2279950129771673,0.17994123461508416,0.12319477173017379,0.07890643587804025,0.06735326982491285,0.07728500635761026,0.08019831086629559,0.0941032646920319,0.11803974262772066,0.12082005577610966,0.11447697864745576,0.09031066120463782,0.07811870223856099,0.07275414717101336,0.07273069639989904,0.07272917587107308,0.07047246462501366,0.06100853282490437,0.07179332620893719,0.062223052933924716,0.05671952771811606,0.056694526646023924,0.057085094873862374,0.069165760819764,0.09078614854364053,0.12065354441175735,0.14955549933622736,0.1643399501426912,0.16131807467776715,0.16147552492612638,0.1496696847559913,0.12008683249825758,0.08574275756868266,0.056796918600722,0.0416128124357944,0.029354390129410213,0.0028363024404569614,0.0,No
0.7852025645712595,0.857990019905515,0.9344605227636085,0.9895275038387363,1.0000000000000004,0.9538805299729209,0.8817987524272621,0.8033164173454757,0.7248118248049047,0.6465039591164792,0.5805702133696489,0.5102807100872169,0.4318214705017027,0.3535017308388704,0.2871898478174084,0.21737559776723625,0.14809241441291565,0.08464796329349289,0.044435334832968465,0.03503327275570767,0.030867739732981736,0.028169295803780248,0.060104321267679506,0.1081316084355719,0.15548612438570686,0.1905084210713528,0.20522851484380134,0.179247602691619,0.15841706567665748,0.15807086645736623,0.12384547428139392,0.09431936715558864,0.08266455165894815,0.09723595258250883,0.10306584448591805,0.10308369225841485,0.10499217795124816,0.1220399789424893,0.13762909994792683,0.1451090297457518,0.14512187620406936,0.13929198430065304,0.12456856515480697,0.1231328952997397,0.10866220200339471,0.13028574933090775,0.16055296819696885,0.18773148993890354,0.21743751180412785,0.25677379875066997,0.30166116003164145,0.3349986190336782,0.3562033283616519,0.37330583407628026,0.36687924742183453,0.3300352064028216,0.27972616758784064,0.23100905980339714,0.19732838695359378,0.16061938181734492,0.13257139000356677,0.0960384564548109,0.07878504920987028,0.05039612737357935,0.04831401823165127,0.0596870918821808,0.05123132376248618,0.1095223480971601,0.18789506539362,0.26413369796360486,0.32572922534107285,0.40238311113552205,0.48088684083947797,0.5593859518297952,0.6329226514127222,0.6961213024859823,0.7738771951426782,0.8519244738500684,0.915322002640123,0.9612882282521809,0.9510955436232416,0.8848727241949708,0.8229270394626638,0.7516425227745711,0.7049681068263953,0.6380551654209263,0.5730750165407987,0.49490551807885863,0.416400925538289,0.33789633299771893,0.25940170801913665,0.185072967586557,0.1227509386252863,0.05772567196620537,0.0211610177654018,0.018941137611587777,0.013375530342512043,0.022790388374581916,0.06844349703666497,0.11664975068388772,0.16436118768954433,0.19552869845114706,0.2065486838552233,0.1899391683078977,0.18447205679592527,0.16902840117488882,0.18448339107040823,0.20277891189936836,0.19132177849963705,0.18719981610224812,0.18696435311611692,0.17594665649256003,0.1851647603754496,0.2003093125114348,0.19386545868086325,0.18722136337530726,0.18499365946737,0.1666885226390069,0.14446005932003203,0.1253050422343467,0.12533430466746065,0.1489266912730982,0.17928843243612969,0.2173364365633912,0.2557038861541834,0.2866912731145024,0.32976620537721546,0.3624602904481282,0.376285067824202,0.3753863497282657,0.3487725431886082,0.30125565707783997,0.2536080466387114,0.2208034587947414,0.18431527402771453,0.15369312433225124,0.12599637302118083,0.10180219469773544,0.06534980229731868,0.05081708912014582,0.05256395304785144,0.05585141807430505,0.0894295709994215,0.1666861512916653,0.23321250851408415,0.3029276270072363,0.3813542324397381,0.45984118662077966,0.5322758487696224,0.5963587841727591,0.6743445867429401,0.7521361319037223,0.814843919032088,0.8872430508908828,0.9359662184034172,0.9300734139961793,0.8682785690664265,0.8030118782053033,0.7248779379383867,0.6548135160965667,0.5886177812585864,0.5103375660421126,0.4363396335686165,0.3736318464402486,0.2958564105935575,0.22285090199731572,0.15937141555087164,0.08229638746399326,0.027084599583603985,0.0,0.010473745150545444,0.02640368326350817,0.06918613988382116,0.11669034799361722,0.1525938834231999,0.1901341368723295,0.20742974823428018,0.19822947356896092,0.17239917460443888,0.1461671107952185,0.11615815113712191,0.11942782295904708,0.10610166257196596,0.10308612850279841,0.10329636356194127,0.11560522126452799,0.12410460221609787,0.13354198105725112,0.14497841602709238,0.14511573445179016,0.1379626107120373,0.12434486411867329,0.11446402144335721,0.1032046987460098,0.1034529956423218,0.12231965565192926,0.16462083402277017,0.20288265978138398,0.23360284209612958,0.2644231448421208,0.2954100636881818,0.30987752321859974,0.2931192807842291,0.27157684957626405,0.2329301898902556,0.20132038665575358,0.16314802697833075,0.1251002415113165,0.10564423144239399,0.09070719571834296,0.08007904394634835,0.06388816961405208,0.07659647746637921,0.0590253582753979,0.06740540642180104,0.14163632354387712,0.21971268529215138,0.2837959009208242,0.35613979359889836,0.43462520594932474,0.5131297984898966,0.5913604068291103,0.6569525647501444,0.7276579254373701,0.806120152793095,0.884379082846769,0.9466398737697781,0.955922474135424,0.9063962292541947,0.8443261291664546,0.7710675721036053,0.69272997208297,0.6256618145122435,0.5565284876791652,0.47808310539141674,0.4003846902130914,0.33740711022229997,0.2636465072785463,0.19326669152351794,0.12751010212411362,0.060029486217351824,0.006685165255894354,0.0037503679660653155,0.011928287858014919,0.007698672449344635,0.04358756423946275,0.09012487324789253,0.14118078997127181,0.18210402449228047,0.20598091082081504,0.18277499522361573,0.14422296079944008,0.11341914376324302,0.08131175931193146,0.05021293866459153,No
0.4984317789443393,0.5233195998814986,0.5378114216567762,0.5591339873348726,0.5443617162710344,0.5154448877970825,0.4796202823169651,0.4438887318935576,0.42167003491264765,0.40829554726281714,0.38301175973394885,0.37635070434802254,0.3626596790997758,0.3579296770527254,0.3479991268930167,0.33361470920001546,0.2862418266254365,0.22745425434619992,0.16875242332758145,0.12207738072121899,0.08729851351582774,0.03162586209206175,0.0047573102434399495,3.520682457036628e-05,0.0,0.007926519137092747,0.022196146354024116,0.04762951783259961,0.08793881710458251,0.13142403527995405,0.16192448030076445,0.20757727792323966,0.25091483083068766,0.28611346843990537,0.3192168008488654,0.339055108167436,0.3555817150081948,0.3761869043864632,0.36738758834737206,0.3580893683265516,0.3583386343726134,0.3720381033645235,0.3769179206378035,0.3860244063362166,0.39556157435335715,0.38721106206173994,0.37723685162327936,0.3851276151620837,0.3773866147510758,0.3768327423562514,0.3765861081009052,0.36482981948034077,0.3733202508621378,0.3685461484726571,0.35807963198312853,0.34812988031131065,0.345855067628837,0.357901645470033,0.3666045584191884,0.3923449213238044,0.41495848574306615,0.43419534246640534,0.4607157069938501,0.46041168819764877,0.42505322492131237,0.39709624146704314,0.3789056695656883,0.3701965408291108,0.3426855409367304,0.3189060907694796,0.30801071442541694,0.33917065206480457,0.3832869867731059,0.43592312817537726,0.4942504665232934,0.5389871005572804,0.5935327043508822,0.6523497804692782,0.71115231228951,0.7643889934378869,0.8102877030499029,0.8683099165036454,0.8850517575453765,0.8302504530547945,0.7840974670546204,0.7311777283426149,0.6754679278679117,0.6313453957129203,0.5735775652778661,0.514757524879514,0.4570439555331718,0.4215342926659975,0.405917616264047,0.37864062549271127,0.3781204511487899,0.39307029159040763,0.3974158540995347,0.4127606858090025,0.4031402201808789,0.3984330459278782,0.4136391150079497,0.4145175562881267,0.4116397757433572,0.3983130958820804,0.4183510421795158,0.4461212017313607,0.4657510084798937,0.47935030336969486,0.5130570703901487,0.5378021440316822,0.5618581120705741,0.5533354031572557,0.5185025002561812,0.48898129339735963,0.45954390054079086,0.434295927029559,0.41041921264902337,0.3968610690220915,0.41226947378139256,0.43535987107208474,0.45727076085039364,0.4707378583598758,0.47681127008010016,0.47315760356206527,0.4711281260220659,0.480889034221617,0.5053239939949883,0.5193174703454888,0.5275338811312351,0.5275782855373179,0.5279031528020544,0.5364455806405926,0.5279124572874663,0.5275772224851969,0.5250823804578495,0.5020175218347593,0.4900608471274368,0.4860242442419742,0.4717279847583602,0.4709433548316997,0.4590949044544059,0.4519225335242423,0.4390216929724877,0.43057615507470093,0.42080977307547496,0.432946796320719,0.435246199175507,0.44614289147420383,0.4362298035295491,0.4513812649655313,0.4651978279659117,0.4936713313902876,0.5190149762096827,0.5291695012774267,0.5525123855399006,0.5768354986541442,0.5437040760609806,0.5094214714466858,0.4751570950237505,0.4511331327677177,0.43458921431835007,0.42067862413427237,0.39665013718675635,0.4047215587644457,0.4555673688467352,0.5004202384106446,0.5547381680214731,0.6135549715624022,0.6723747302973715,0.7296887947162722,0.7733231946084715,0.8299937574412928,0.8888133776160498,0.9476291835399375,1.0,0.9840805641820434,0.9370700263683158,0.8784680952408777,0.8204467058510367,0.7765525736106826,0.7288940263467505,0.6974917898780113,0.6427112669766686,0.5992524444592355,0.5448582717150106,0.504139576680831,0.4656326504082928,0.44122695040246684,0.4126017871705576,0.39082514092559695,0.3771535322055741,0.3768327423562665,0.3768327423562665,0.37683274235626696,0.37608786711795616,0.36143597674868033,0.3647533557614482,0.3844777995401274,0.4100399558900296,0.4243231666024059,0.4497043719992986,0.4727656353884431,0.49629709596514404,0.5271484973927367,0.5580725889200195,0.5793862436776269,0.6011325634002289,0.6144362760812645,0.5934728472351787,0.5558304047379776,0.5193493406029375,0.4929084335254399,0.4697202894528232,0.43662205716250657,0.414897647700041,0.4145191281515346,0.4146716599782634,0.4291888511613462,0.45161534165938244,0.4538587973668404,0.46920217928515084,0.47104837066555527,0.471515607617941,0.48530586297777756,0.47686346276020597,0.4683221731925111,0.44432125481547935,0.4186427645761621,0.4103298300639211,0.3842490273767756,0.3434552388783376,0.31900875545119334,0.3032084577314933,0.3009688480534507,0.28428410838286666,0.26485350536388186,0.2636903166487614,0.25199923374882394,0.21688462844101952,0.2057138744509528,0.18332713276558277,0.15598676508006992,0.1361716443763359,0.11386844701573873,0.09508612724416965,0.09450716557196381,0.10823403180289581,0.1351194156386768,0.15392623733362987,0.16979506495560726,0.18992098102770782,0.22440087875672532,0.2670869037333521,0.2950009060002725,0.3014489489267138,No
0.22351457470221447,0.23134713803914098,0.228684821998967,0.21803698253978965,0.19465113752422747,0.1917687608620997,0.1930424339172001,0.21096282139050082,0.19668887301468674,0.20432240689572412,0.21512987444792087,0.22749175870805116,0.2605743800350142,0.30323236694172717,0.34916518217494774,0.3966652594871771,0.4460987439493831,0.4923589684172498,0.5346208649295319,0.5340031828061287,0.51446215342669,0.4893883449509193,0.46220480668974595,0.41623041642393854,0.37338465295182166,0.34450591547975096,0.3178430058350252,0.291933486357034,0.2794465241464974,0.2618535791614005,0.24423595165912726,0.23849789023722812,0.2350771140656085,0.20875386945542207,0.16024465523049303,0.10950463268585908,0.15461817440062564,0.2198082267126451,0.28995061493756147,0.3690700435454892,0.4335494321657034,0.5048615403625147,0.5823266818589969,0.642664995504143,0.7181512283565592,0.7786941726547347,0.8550576563732992,0.9203289016134546,0.953668165986322,0.9136497453472652,0.8541745265824421,0.7804782753156836,0.7010657119544357,0.6274122641171767,0.5649311745618135,0.48612842772718334,0.40719350960965706,0.343929085237594,0.271230162236193,0.20352249386093435,0.19187012016093785,0.2023584893336987,0.1986734430105317,0.21296763541525587,0.2633059672157647,0.3133092826039161,0.3426546087068765,0.3516953032203487,0.3210758978910899,0.32120742439965033,0.3305415360896391,0.3030889988287946,0.26332097030917323,0.24328098135793796,0.23849162126587098,0.2336644461548234,0.20361382561242447,0.20834116511189027,0.1930488611964245,0.1975122469455286,0.21450180612979342,0.21514518382566594,0.2218293334501693,0.23617710838047534,0.21825567232919596,0.230304539499965,0.23147404839445018,0.21542668149783584,0.20948207083820503,0.20493843962413383,0.21053393718992064,0.20380565282541596,0.21533441159233657,0.23165564370325775,0.2526335164589977,0.2911282333176737,0.3383429424002218,0.3911077899871396,0.4325967610835546,0.45011409679548287,0.4679185271316424,0.44510564539911623,0.4055238812276194,0.36549296364985917,0.3167398537656654,0.27578870827706004,0.245409433712235,0.20041489539314483,0.19142013341014952,0.1759400380748639,0.15057694293207025,0.13150970384331329,0.1357108501362525,0.13883284426443465,0.10710396661363619,0.09348551627899315,0.05278817743172759,0.0,0.024038541116337964,0.08920680351215315,0.16839983532335268,0.24304767756410417,0.30466502635785364,0.38319897769220423,0.4502176278975618,0.518916256294049,0.5982501468619246,0.6709964957739434,0.7342604979911878,0.8115974367585377,0.8714268306103419,0.9132029791277372,0.8891080520435564,0.830609831828129,0.752460396144575,0.6776197643018254,0.6160039671768756,0.5375246823276916,0.4580940254831143,0.3787453532308809,0.3129234003179091,0.26457480867155336,0.19050196904420114,0.12979915410703624,0.06359907734561032,0.06681709543401748,0.07492930967095202,0.08196324779686703,0.1190083863428546,0.16985808286439807,0.21978031073918158,0.2381247019234345,0.2383917631551533,0.22439751733642055,0.19472045329463894,0.18714699249519917,0.16188798752745726,0.12871144793268652,0.13227319132337012,0.1634972211081469,0.15758687766989432,0.1464511171138292,0.1615919095888505,0.14632494540533392,0.15103687308946867,0.18297770049809703,0.1919159506917376,0.20501878546414876,0.19644951371245112,0.18361146999469735,0.16865428951431483,0.16840574757928106,0.1684057475792784,0.16804202182706884,0.15320593741987887,0.145064272546771,0.14505941567778402,0.15204806609614163,0.18526113670266975,0.2181002242238086,0.27650097118401806,0.3192661843742557,0.3677528926030855,0.41019652215351066,0.44966429950308306,0.470186432587715,0.4501712949118719,0.41719911432333934,0.3814599349221779,0.34010160058355954,0.3053697846718033,0.27192944320679446,0.24180971208213053,0.21460134918666407,0.1940175791046408,0.17414924633297169,0.16606839611316504,0.14696570594354474,0.14500019059544433,0.13679437833153063,0.10500640887318413,0.04777752537770308,0.07382602100137658,0.14972025926172483,0.2275484366024223,0.2880930568496689,0.3646492819524956,0.44377250825988757,0.5071188902456596,0.5796019848788037,0.658925723101234,0.7273509448734075,0.7946058134414633,0.8737999351887344,0.9407974165295538,0.9977351294241803,1.0,0.9513135954003591,0.878593641607325,0.7992597510394495,0.7305611226429605,0.6635423141295451,0.5842485981184575,0.5048210293252673,0.42826480422244284,0.3677201839751931,0.2898875064807931,0.21045753563778735,0.1332672571232405,0.10479980800569999,0.12919034394430984,0.13770725107417103,0.12423882813862841,0.17267913429766368,0.22772926186599252,0.2617721750315605,0.28289793611974234,0.2685529853940589,0.26000625144551925,0.2331258530399123,0.20454010254451171,0.1849313057572557,0.16861155118817672,0.16010042919880219,0.17966500347952596,0.17958977545281707,0.15381820669749535,0.1743468139079356,0.191227523349629,0.18360634927881003,0.1715060309678842,0.18299126952875655,0.1754097601447211,0.19127191397819532,0.19176765270524188,No
0.03499467462441297,0.027621037318126263,0.027561763054575472,0.027566910037952308,0.03160978613892018,0.05496009260222934,0.06718357856019574,0.08955161719762827,0.12464557988617786,0.16004497021941377,0.20240680154882007,0.2387727245133937,0.24567923711529005,0.23215483389257718,0.21146373379460126,0.1826543530754856,0.15632382040644588,0.1286582042049953,0.10106601397879578,0.07908293104562292,0.064742908181187,0.046532070193445296,0.04438917615521376,0.039295843154122156,0.023645235085939298,0.011146174726002211,0.011147802867889745,0.029303784037304936,0.08265729861716187,0.14357619277430045,0.1941990788002963,0.25712935568612716,0.32093186951276875,0.3814527893876032,0.4324734145676197,0.49551431044928984,0.5593213752732527,0.6231285655599827,0.6869332029639561,0.748352340152076,0.7987761840413636,0.8615144583332413,0.9252819383426609,0.9814221105570438,1.0,0.9671972436238749,0.9115053834196938,0.8586451125711942,0.7951305777833251,0.7315181608216728,0.6782000513008781,0.6205196806024809,0.5567453085846528,0.49293811829792267,0.4291539635736372,0.3713015727994642,0.3181047372313648,0.25455287011488936,0.1907872836584703,0.1335197247348745,0.079798696977182,0.023897218825701394,0.022570946624824728,0.047612116290343565,0.08367408879076077,0.10751471987235961,0.1232688726583091,0.12470421014228705,0.10527906559536637,0.08820767211061975,0.05957729831801961,0.04473496371218744,0.04440527601833866,0.04440527601833422,0.04440527601833022,0.044405276018325335,0.04440527601832134,0.04440527601831645,0.044405276018312456,0.04473988572862009,0.05606323553774217,0.0639729768438646,0.07772640924360541,0.09758233689711338,0.13872582306788095,0.1765010814048278,0.2126492572944958,0.2487733717313243,0.27584961655579754,0.27490215344628854,0.253558493690786,0.2277116007180746,0.19925476592354752,0.16748137037308997,0.14123381267657154,0.1149821690134325,0.09327273602865915,0.06787727531160703,0.06063040919020768,0.04642459531504883,0.028847250728576856,0.015965494542145908,0.010738181923907852,0.011024461017455689,0.026486071608905704,0.07755605437868507,0.1393432840620914,0.18963884699600042,0.25197780914852297,0.3157839937128806,0.3794804421671083,0.4340448906637713,0.49043712660017613,0.5541692418959117,0.6179763394982869,0.6812554335830687,0.7324507805746214,0.7925648845785251,0.8563587568971132,0.9174132602024718,0.9495316281305519,0.9199111527210473,0.8666192303423408,0.821612082301173,0.780320047912149,0.7402519117956379,0.693227912711559,0.6535877071126928,0.5935353421986056,0.5432259338927166,0.48124551993720655,0.4174395484243396,0.35372602821787247,0.2978565269829332,0.24279152900398504,0.179073982052381,0.12062154491113608,0.06805271129589885,0.013886847552024406,0.0,0.028015308754952617,0.06362452750412917,0.08564616784833934,0.1111341865411859,0.12733109977626755,0.11609400507020107,0.09129218004041606,0.07400637584053271,0.04972180215914701,0.033576268131814135,0.02898703361184385,0.042250425073741216,0.04056093392172233,0.028044589018433985,0.03210436452897669,0.04331608594534497,0.031664559350554455,0.03351060891588009,0.04417635478029869,0.04476810460442948,0.06021233330253617,0.09156742638680582,0.12397389130112924,0.16291640707849409,0.2009845777333048,0.23093678843422882,0.244373762188685,0.23058291558266486,0.20897787297851744,0.1841500668983942,0.1544479534986447,0.12953980707379031,0.10541572636048135,0.08893293737458086,0.06678126787115568,0.045900754591526205,0.043231399356876477,0.026958860639390902,0.01576409668990797,0.017786539145999036,0.010773576950532604,0.012982477205778498,0.042511683979405746,0.1023764529758524,0.16507386317562878,0.21570597947424108,0.27694683324354186,0.3407520246944977,0.4045592149812265,0.46833586107590186,0.5261763566346724,0.5793576623911001,0.6429444874130725,0.706751653450989,0.7705587294988634,0.8337511913902271,0.8848007896881014,0.943626765998141,0.9811763767342176,0.9611630262312825,0.9025547382804984,0.8516796737128782,0.7885911704536177,0.7247841202711438,0.6609773940085666,0.5980641354297873,0.5475024400428707,0.4863957262680687,0.42259168180137907,0.3587845039084878,0.29514721117418397,0.24142092221525369,0.18416759694783646,0.12079026733089337,0.06842740843057937,0.013762573078689222,0.0066123866168918966,0.022561013792846918,0.06496783774180637,0.09710967373299395,0.11310488686565012,0.12622592785975995,0.11122351371126138,0.09158651006407714,0.07092986147466496,0.047363690704315786,0.04812944650734163,0.06015959890910416,0.04929993143597544,0.04448304096567979,0.052838435949431606,0.06061457075131971,0.04896737361585757,0.054268535511671434,0.05206015293000599,0.059585283102156605,0.06148424763645899,0.07193046877269804,0.08007049711912329,0.10411518259823715,0.13874262615426325,0.1761698302643664,0.20875358765309793,0.2476557658171985,0.27499387371416306,0.26492874888514795,0.24762277448818804,0.23123657988552937,0.20342857570771367,0.1641961074939693,0.1419143441419619,0.12465614757348265,0.10035698641504398,0.08421628942506176,0.07812436218901864,No
0.14101150340264246,0.13834856452622812,0.1066103966867602,0.10798618365207302,0.1114773833909477,0.08312323270624988,0.09360935783216595,0.13302151148127406,0.17105979354099476,0.22853317229283654,0.2907776311510015,0.34655266257359196,0.41397881515457513,0.47576008420919935,0.5366511844154318,0.6081807304256537,0.6684170286918523,0.7309016339133776,0.8025920459957727,0.8739122665886794,0.9305868602043419,0.9827437268743933,1.0000000000000004,0.9603087957019372,0.889264636826407,0.8175633628661463,0.7542693582717734,0.6948207260899069,0.6232325115487325,0.551502046291712,0.4864212728283608,0.42870100130258937,0.3572003862710589,0.28552752942038717,0.22596255158435996,0.19205178182113825,0.13766029562020776,0.09937799151710403,0.05486303509458956,0.035809708154306286,0.02208540114072388,0.014984431379407415,0.019792006414462993,0.054977053749051485,0.08786087358716799,0.11819667140556511,0.15621279708502023,0.17913421016151743,0.1540684405177144,0.14070491293505905,0.12601231647683697,0.10981525700509698,0.11603947316522367,0.11872624835112378,0.10348226740417443,0.11707977136120284,0.11995125751823643,0.11210381373875489,0.09919710987972641,0.10035936599367945,0.11726531265354811,0.11794883753515562,0.10111532734502093,0.11381976424488238,0.13133089871100356,0.1366329203905634,0.12080927433645305,0.11659882627670193,0.10483021020189476,0.13637097543816035,0.14100805856399434,0.14100805442337094,0.13718746849096863,0.12094676918892411,0.1199143298121279,0.11247325770282979,0.11628614328911135,0.10051464823336742,0.10917213227084721,0.11913864989733591,0.11311052440745151,0.1426570734629684,0.17028627197959478,0.21135846342174558,0.25878704600259184,0.30006059575760125,0.34319312541539126,0.3825325538144364,0.43485611608561925,0.4690221293949097,0.4641756502551644,0.4409461203623395,0.42195380813646244,0.38493431725247795,0.33752200359626006,0.29449300369364595,0.25837768233327907,0.2170373426586747,0.19528443561299724,0.1664012285108254,0.14796598567083974,0.1252490091314966,0.120014240805705,0.11924790412641517,0.1031594849920161,0.09902149557162998,0.10983453356045736,0.1558295573077575,0.20981566626391324,0.2643563876397308,0.32462625442619153,0.3954543113551692,0.45134641424184574,0.5141644481490211,0.5546319358552267,0.6202735332570777,0.6920268208106033,0.7637663910230263,0.8278058028893214,0.8863893530604154,0.9427959773456407,0.9732847468888033,0.9514404531401062,0.9024419878808367,0.835293420827385,0.7637358280939757,0.704021768780644,0.6410040246541464,0.5692681132653163,0.4975868658923699,0.4357851913916826,0.37488429986682936,0.30337718180241025,0.243128377241014,0.1813219048609236,0.12532314585680782,0.06068600888902642,0.011217394621025889,0.00344785784029078,0.0,0.0026553683597545508,0.01648539044488695,0.05005059952874724,0.08096203112009226,0.09833466050792206,0.09713653160834168,0.0773304980809697,0.057988842643764915,0.04378682261307709,0.03599347193236424,0.04013221541637213,0.05553509441754523,0.04033463305641316,0.03744730960944809,0.05315626115079786,0.032961091681490196,0.02814730150761635,0.04503744744497418,0.05399236706971555,0.037003857288308684,0.02419579808734973,0.033214140242558976,0.03596469717174733,0.03624299220543925,0.05054115580342344,0.04961613473474369,0.03619715525271472,0.03596803679504168,0.035968025416851734,0.0355966897744886,0.02339497953745484,0.02894569773115041,0.01699781490872798,0.033220656506671276,0.045540325798613335,0.06441363867001737,0.10488679453787375,0.13264200884785815,0.18303153168008635,0.23434054550263328,0.27213783004548064,0.31941775962804764,0.3633893324728308,0.4046941093756371,0.41409467369338104,0.4130066615258281,0.38304342993606966,0.3420035024079211,0.29816112587773347,0.26210614395373977,0.22622200390172864,0.1920878944643145,0.16726493142616583,0.144851062736834,0.12695186094720823,0.10985681356540189,0.10039098649022504,0.11620991811181902,0.10387303764209976,0.11387673203387161,0.11478767292543823,0.1374464450123214,0.18995534716676543,0.2444192472211939,0.30511507626172607,0.36799063039220536,0.42775120062554084,0.49866081315772615,0.5549212658709184,0.6218384045642495,0.6935794369987671,0.7596562082788307,0.8165927620235967,0.8826719858490555,0.922493600608369,0.9241964182723073,0.8750042287929198,0.8203084873628153,0.7496985147874855,0.6779665344130761,0.6127829808309824,0.5551620935976214,0.4836665715608386,0.41190651904512965,0.3416159312113405,0.2865098477715229,0.21765387463565666,0.15200256823295488,0.09787952451546733,0.04881045508447235,0.0169974592056632,0.0017575442766055716,0.013616351875505028,0.029908184483506073,0.058799528071923124,0.08424984822867465,0.12531897058914776,0.15175552898405442,0.174240103513017,0.163171356522402,0.1274266366477419,0.10339471553279012,0.10046321315225315,0.11317103893502312,0.09981368449855266,0.09899515845414042,0.0989951584541382,0.09899515845413687,0.09899515845413598,0.09899515845413376,0.09899515845413198,0.0989951584541302,0.09899617214734269,0.10236825448246156,0.11880090279836164,No
0.4816051963705861,0.5377164701939967,0.5999102995528971,0.6488340782223152,0.7070969354850645,0.7697907744132997,0.8313717397804212,0.8793962141623721,0.939173348539661,0.9997128561435162,1.0000000000000004,0.9410494314453208,0.8950781136041264,0.8585637583353969,0.8075371695896227,0.74490827235284,0.6865704438126894,0.6377122693485582,0.5755200226798554,0.514034623688504,0.46656787996294824,0.41529168540350003,0.3834124726377808,0.3621951926953506,0.35216219094280765,0.3433525287509487,0.3426661699642026,0.3415887817362915,0.29914561880417345,0.2572578269611143,0.2134497330042895,0.15626747501505722,0.1180658308679794,0.0675857220632885,0.028600764358277964,0.003823850128771955,0.0,0.006029461298673322,0.04963729679527784,0.10553543220818984,0.14790749862487607,0.19508449799238203,0.2369993699129065,0.2497729285421877,0.2731948865180742,0.3200257556794366,0.3631500736149529,0.3797109602043087,0.39529125822967215,0.41187377599183383,0.43330944458602794,0.45161770494053455,0.4713676709631329,0.49952606478739003,0.5233286864464834,0.543428298869931,0.5568068199890805,0.5374045235847045,0.5080792816536239,0.47672902010893337,0.4457083323469204,0.422814222696156,0.41198910228736096,0.411779967302615,0.40351299734372104,0.4000129523055982,0.40510589557945487,0.39339254387250966,0.3930914897096751,0.38627560401572136,0.3736795725444635,0.3590592196015021,0.37025766334966015,0.3743780293989012,0.374950007811202,0.38915735522383077,0.393100934621323,0.3931061932932054,0.3931363129042622,0.39934222624271554,0.41163266525037523,0.4118284626236912,0.4118841019701902,0.4210100283333418,0.4507584445057313,0.46806755934435307,0.48570851942489757,0.5063273100892252,0.5207497867393887,0.48603137473741675,0.4412501300624201,0.40963180680223665,0.380894063378884,0.37441208561671235,0.3741566624531085,0.3535360126435183,0.31222730941731314,0.2834302532014661,0.2866168936445792,0.3238581628887509,0.3788540708721264,0.4272017835163635,0.48579362713761887,0.5350413275924399,0.5929292587155586,0.6551477865941919,0.7042421361973541,0.7623100681388597,0.8250032495149555,0.8877044644793206,0.9498752933808658,0.9727795176350087,0.9161830949460481,0.8623789016083125,0.8093509651801605,0.746737005724611,0.6850713573082174,0.6374362235624433,0.578013010519288,0.5294864157900507,0.4822408668473357,0.4350999570440135,0.4019637938529459,0.37687084948350513,0.37438650255399963,0.37438404233963096,0.3752597824802191,0.38976611466651834,0.3998301053221782,0.41262661112192456,0.42735723638391043,0.43303544993689425,0.45811025494703417,0.4854448862156078,0.5114766151097356,0.5397217634385396,0.5587547495506469,0.5549016322085407,0.523649133008627,0.4961634160881445,0.46508271367928034,0.44204397270172135,0.43073803974816816,0.42471796202705114,0.404294353138388,0.3954706379627142,0.4104922165585232,0.4036626545072437,0.3930780784822572,0.38054198374936554,0.360649907263769,0.36234266311953967,0.3618787725891335,0.3610991632663274,0.37407403266221406,0.3743839641935893,0.37475925864872295,0.3876342415519889,0.3930950154218169,0.3931536670986717,0.4004281085302881,0.3986528937543734,0.39312912475449835,0.39380271813254986,0.40839337959428423,0.4243351443915624,0.45569087605173264,0.4855924851667921,0.4753498848354325,0.4429150742209469,0.39660725677501274,0.37397817839722913,0.35562696098681545,0.3384284390625565,0.3355869384408483,0.31103038177565123,0.2735374980369918,0.26274713782996795,0.2873008480012951,0.3347175948433274,0.38937004394906705,0.4409387806722114,0.5030820726883336,0.5525962892053276,0.6101844049714638,0.6728721837109948,0.7324926102862501,0.7804649756033597,0.8422572294407362,0.9047599889847322,0.9378879955320527,0.8866710832845306,0.8303841987700329,0.7796984252559445,0.717295118290405,0.6550986497646258,0.6059645390844799,0.5492766044852049,0.5019486688240624,0.45042880064499213,0.40976142242367963,0.37786955665984445,0.3475738616020787,0.33155809116777757,0.3185943850944355,0.3182205195600174,0.32120530289416305,0.33293229840898375,0.32141974731824874,0.3357593200916198,0.34872758821023275,0.37265010934670606,0.39204308389041964,0.4218603089396544,0.44362080116048785,0.4634480451184344,0.4592025175868839,0.43864331247626653,0.43005922072379477,0.41254878280309804,0.3937610289869591,0.39310629546215736,0.39310619329338037,0.39310619329338303,0.3931061932933857,0.3931061932933875,0.3932010345998682,0.4029602961954355,0.4117663057959038,0.41495047870958546,0.42965135833403023,0.43055061270920847,0.4305506451253671,0.42971956289995417,0.4152009574983806,0.40537650846504025,0.3934002816211306,0.3931062092120601,0.3932939231805519,0.40444450667526954,0.42539533403226004,0.44623426099899843,0.4674090074250543,0.4986188508952032,0.5161376020313537,0.5358885907408375,0.5075021541159255,0.4635209438114267,0.43077076986194607,0.4142701135923099,0.40397013266607296,0.3931128984370962,0.37890160359527947,0.3405017242637127,0.3191624087653042,No
0.25257394209224104,0.3324343726725849,0.4185677323591874,0.504325823785249,0.575564016959961,0.653950595686752,0.7400542311531777,0.8212129283618013,0.8901720819260084,0.9649606774028059,0.9673479188477248,0.9017671360835524,0.8315895714838235,0.7459345006369493,0.6599626391275417,0.5859102740505953,0.5105065690623696,0.4244426191449615,0.3391379072304952,0.26980810399931654,0.18941139986705657,0.11793330291125148,0.05089643271456845,0.039084069802952204,0.052537693211798686,0.04225353679400312,0.06963861628556423,0.10961786122756889,0.13425066426943832,0.16375504918334016,0.19272975936663084,0.1680041497280742,0.13445549086340858,0.10921911909289506,0.07483496797572098,0.07590386410224959,0.0611773849483912,0.07889045786348481,0.08111333883491278,0.08899226309715891,0.1042853252188527,0.12011302729614615,0.10383783958952364,0.07691224513193706,0.04431622398498458,0.03538349558222631,0.0500636088738613,0.05863107407692825,0.07576662854056337,0.09174459776602939,0.13118638957587558,0.1875537299574428,0.21967897337454012,0.2555978931017284,0.2689937231529864,0.30008438044745755,0.3038159440061925,0.2827068666947943,0.26438521879025423,0.2367981611578136,0.21579788485819096,0.16906874945733952,0.15789991659340874,0.16334772113628526,0.12501876102820297,0.10256557703603297,0.08367962706876986,0.09308974123326186,0.0944543118489869,0.0437411437562667,0.0,0.0357341221377836,0.11004546830548101,0.1958664268467616,0.2691177614546221,0.34536081971957566,0.4314021004142492,0.5166778984948066,0.5853583173630921,0.6667707274140917,0.7528916103214756,0.8360751860409565,0.9015098356703759,0.9487639134264687,0.9198678596095529,0.8375008461464906,0.769540417304635,0.6870015361545296,0.6008699884652722,0.5149559762769207,0.4427291888566498,0.36546463916508687,0.2793784400610324,0.1943523283303339,0.12610990701643265,0.05275847543764689,0.018429130613527356,0.003688874942176401,0.0189801926206159,0.04827893622437118,0.02295751745677732,0.06001870760414141,0.10628134808804024,0.14053340120150892,0.18971221086471468,0.16755091522624088,0.13225510155821008,0.12126391431278627,0.08461936893426358,0.04703072973231048,0.06006598461203039,0.08009088678456644,0.07698581017079587,0.04732927331470593,0.05968988001085318,0.07999201816778001,0.07224420633331308,0.06930416837078734,0.0668606632351243,0.03741592583788478,0.03479158183312281,0.02350708477062069,0.031897916997611464,0.03788240899309114,0.07064065841232203,0.11359496858861107,0.1507314835008593,0.18622950600827215,0.22019009162391168,0.2593271633533272,0.28504509986203086,0.2885037751363413,0.2883252879589935,0.26929957238382096,0.22627765719053583,0.20646725576152125,0.16044052385275442,0.1326586601947235,0.12685130989501392,0.11221744074313689,0.09697714765905907,0.09069876344338557,0.10256858921971546,0.08092888098745288,0.05366088819104098,0.10598015080172685,0.1847015628715556,0.25544042493808483,0.34110633207723184,0.42368106216087975,0.49162815098788437,0.5764671322028048,0.662601491152651,0.747815504389282,0.8163864366844851,0.8979131412091417,0.9728688829397805,1.0000000000000004,0.958203800910788,0.8911435468952384,0.8064012026809615,0.7216298681337139,0.6537227993512595,0.5710405224669741,0.48490876160155727,0.39901271115147674,0.326968860870561,0.24950582107730712,0.163416880109569,0.07752701177298782,0.01735989821235151,0.021887276432117186,0.034967500865603185,0.05044110892542042,0.09565264853578714,0.1305559090589008,0.15015055046270342,0.181105257031684,0.18518249981242763,0.1349840200653234,0.11715229916264658,0.09589285288230931,0.09128055732173124,0.08135204480086022,0.07203550603325493,0.06709160707821882,0.07594870854509628,0.10930082198300406,0.11619769751744835,0.0711411888360498,0.05808345635593737,0.05802403868876471,0.05420706466530634,0.036086652193918045,0.02434419625061146,0.03938022274584929,0.05820806894330621,0.08023289922029297,0.10769130092055557,0.14849519350866203,0.1976375003581161,0.24212828256732788,0.2934006236952258,0.30721412915340673,0.3016089324405624,0.3107262422387653,0.2940670547434814,0.26851600797484654,0.22946093029318382,0.2127500178636481,0.1805649194236838,0.13560809135642504,0.12619114648350038,0.09870184327134757,0.1005623581383781,0.10643816352272939,0.12193353125592399,0.09771686034387939,0.04634123997094308,0.02217743606519207,0.08961013706091991,0.1755885885908155,0.25436662530776033,0.32527663336962,0.41097557097449533,0.4971104495412262,0.583162656675952,0.6575987224184421,0.7326003878768605,0.8176196808591878,0.8855176847893271,0.9424013096246395,0.9415066073352247,0.8795471615437287,0.8087499516708472,0.7304433289454146,0.6443447635614077,0.5596636245710571,0.49180991584800404,0.4089842432295385,0.32285226918796406,0.23698597162018187,0.16511326733459342,0.08758247356631177,0.015213635855633623,0.003005405844729303,0.013888462396130397,0.03233366679852967,0.046959108803430905,0.08192184294513494,0.10397167314296318,0.12433043330432803,0.12679322396989123,0.1071231205620009,0.06368542144420708,No
0.10394855035489448,0.10943381655194395,0.147925665605821,0.20481795326299101,0.22943149013137498,0.22784290730745616,0.23712438191536034,0.20941079513587502,0.14746877975527584,0.10509970400498592,0.0525947006621732,0.016244146660638226,0.0004555041939431348,0.010636775485072025,0.06701221446981487,0.11802319152897045,0.1650406311869963,0.21156243166177102,0.23151337302735753,0.24580203449771965,0.24804131659251238,0.24889583275061344,0.2500527558152683,0.22787640243555218,0.1630897342176585,0.09699365686444184,0.03303265779099407,0.0017375656500449033,0.0,0.011070153653659265,0.029834004786141843,0.06705975930211006,0.11693380334481374,0.15319276626870248,0.2063247575202798,0.24791497532648465,0.2874539270568661,0.31227853130974736,0.3357184310550343,0.3650861711453235,0.3725549164947295,0.35132016544030575,0.3053072090872728,0.2753169915803344,0.24715350102241862,0.2339463122905614,0.23108414430905544,0.20719502784207977,0.19125337527942587,0.2068756571239896,0.2602579717364528,0.3261911917099831,0.3922892524304342,0.45838731315088443,0.524454487220662,0.5840508276427054,0.6395501292358534,0.7054211569763393,0.7715191900946032,0.8372116300583139,0.8652728078812655,0.8201650457179981,0.7585029388050311,0.6924193757223693,0.6263224885852741,0.5621190052609317,0.5099171845600727,0.4453885686506105,0.382499627469286,0.33597236321063084,0.2915148553493889,0.23472439864015593,0.19241176829963846,0.1849009515562332,0.21570351576331603,0.2406670063755878,0.24280096649934935,0.24275284583133194,0.2354942624450893,0.23530070405853865,0.25916164629231586,0.2814888692747375,0.2947866401182804,0.3061757448751612,0.32952203450062534,0.3571157143726098,0.3988561204586172,0.4343732189365528,0.47697145239416816,0.5052101022395514,0.5591820807363703,0.5923993183471863,0.6256602826894553,0.6537268516028205,0.6301477274146303,0.6007637231780794,0.5593069326767606,0.5308916170739191,0.49238445453771806,0.4707741877805929,0.44277513278276626,0.4073304517741625,0.3881251652126374,0.3644387860253304,0.33396065145812015,0.32131206899165043,0.328969184377065,0.3155246625263519,0.28944428714036396,0.26123795405405525,0.2444647998860705,0.2284338103716701,0.225002070221616,0.2124911849833584,0.20810036861227044,0.20851346481065303,0.22043010810035035,0.23040566758831815,0.22755207820959278,0.2391937410497893,0.24335008889005305,0.267238166114403,0.30615707422150784,0.3292962255356451,0.3466088672755063,0.3361143315458963,0.3014573182803404,0.27322177212719634,0.2453362635616454,0.25538072426853375,0.24472371665731307,0.22215426202141053,0.17591976737490667,0.15938344485494493,0.1916736057682833,0.25420687830075295,0.31193074706197077,0.3692166020359733,0.43521925403606243,0.495379782651864,0.5503667467255355,0.6161785641808697,0.6822762009739431,0.7467222112367393,0.7511556203116658,0.6895229086684238,0.6370748759572993,0.5740961862708316,0.5213276821215862,0.45891710624618565,0.40493407960221495,0.34370340382910225,0.28414159392077876,0.2469280365678439,0.24571092251430704,0.26933131269349,0.28553406690382754,0.2805327029420943,0.2969724466328607,0.3071408208145372,0.29533228329864913,0.2948913220812557,0.29822393008776027,0.2985618534709644,0.3166164292172504,0.33538425793938975,0.3524627110423837,0.38342937896644225,0.4276936614421385,0.45981499347181787,0.509989069944941,0.5331412681767937,0.575779856195501,0.5976897711568623,0.5894239479316439,0.5437581986305724,0.5242382335541471,0.478228651494351,0.44855491846149054,0.41988021915518825,0.39380604220332094,0.3915694238361418,0.387038215037395,0.3755008263566726,0.37991223759894455,0.3991365738723327,0.4133436276709519,0.42575889450751836,0.42700126846928965,0.4241774698402141,0.4365418696769212,0.44977880927467684,0.43946291205384647,0.4468408918264166,0.4588863547512321,0.46645555252684323,0.4587802280305584,0.47047607293879334,0.49323056135818,0.5069848453122008,0.5280208922963938,0.5530313530475928,0.5595522563892907,0.5366361141266234,0.501219238323277,0.46755903759430284,0.4520279060287611,0.43436371769941395,0.4250757857528238,0.411454922105861,0.37701147722008166,0.3522396988650538,0.3866251981117146,0.4454841562747762,0.5072576200564578,0.5607502663649946,0.6263894306496551,0.6924682474244115,0.7533547605354398,0.8076870711120043,0.8734232309807557,0.9395186573719583,1.0,0.9821295583795644,0.9169923127620874,0.8534958236425765,0.8011450349110811,0.7360530525791327,0.6700044272628403,0.6111897116725773,0.5557748075185822,0.5053431691380035,0.45671226696063627,0.404311382417637,0.3554047157993243,0.3553387944701294,0.364225939411305,0.35751782256897924,0.334091728399752,0.3380607688080386,0.335282623347839,0.33041199487439066,0.33253283453751736,0.34867183018623216,0.3727291399790875,0.3860938878487046,0.40262923133758033,0.4383272005902792,0.4827642012847422,0.5122510829168525,0.5500874383987804,0.5757672076975506,0.5929764766192407,0.6000813104600065,0.5749741252513378,No
0.35732805098051346,0.3259368871370021,0.2907019673425446,0.2927679625666877,0.27203911101861467,0.2538521358971684,0.2532496171018379,0.2272250248398624,0.21680753741236813,0.20585233295476746,0.17486898705695264,0.12802848781003018,0.08002252224102291,0.10436816892185474,0.16937367356637356,0.23582600045381286,0.29060147411551585,0.35792234814712653,0.4264420384663281,0.4857212237171127,0.5310019963537251,0.5809987773611511,0.6490126263210931,0.709138211997765,0.7691506265399499,0.8376494682416853,0.9058692057928783,0.962315249323777,1.0,0.9824348288074347,0.9237280427873218,0.8600315279355577,0.8034069253119194,0.7352287896168193,0.6666089711345573,0.5979891526522967,0.5293704784045783,0.46226019500692095,0.40742619642096134,0.3408811944209176,0.2798264741077907,0.2284842678641712,0.18597487379043143,0.17923610890299146,0.20428272856219865,0.22094352748298807,0.21396693551814527,0.22246820965387126,0.2540331703379106,0.25960776650105055,0.2997032547266838,0.32581321251264095,0.3020182713654038,0.26738891002937804,0.2403736008493378,0.22531150285691215,0.22495559816419686,0.22264168734260803,0.19828517713379767,0.19373748348900932,0.21463576921726846,0.21814376936942237,0.1772007054431879,0.12220743879468765,0.09547371922574932,0.10208601570044351,0.0976983218666847,0.1313620155216899,0.1653964873139322,0.18568351528725735,0.1736487556848747,0.17375652421582632,0.1986498557769587,0.2153948093085507,0.17797687305403942,0.1426673182184648,0.15159438692905525,0.15568135962086949,0.15009760406525663,0.16187263492140946,0.18554956351831198,0.1609145137997281,0.12607979659934054,0.1252075241184678,0.13775516241113106,0.14263755807391654,0.1709238290632733,0.20998198800795187,0.25036928709344464,0.2878659584732568,0.3447098620554607,0.3956811983777331,0.42296696172386383,0.4578839945663167,0.48070920587217403,0.49905501094882565,0.4704869816446675,0.42767911632266786,0.40769166435036874,0.3885825067853852,0.3411932791039223,0.3109594475746533,0.28820014665288785,0.2738329482455564,0.24867276955018003,0.23469510935495386,0.2571951055468218,0.24626512713801896,0.21328438836647035,0.1888571500596048,0.15786698455035708,0.1171043556791842,0.08449431973553256,0.11865461191313686,0.17761383272326725,0.23865908912781242,0.2976213852951193,0.3660660190918419,0.4335515923396054,0.48817877017721845,0.535384039127516,0.5888471054364626,0.6572424677214386,0.7258622862037005,0.7944797099718479,0.8606260899577198,0.9153473211428764,0.9641463773403935,0.9529554215873546,0.8978088266619455,0.8403491658467526,0.7777571468879962,0.7091691801711892,0.6434277358942269,0.5882133253006061,0.5206133982602177,0.45218407550585926,0.3935218131599476,0.33203593460148983,0.26904705397990414,0.21269242611192674,0.17471637903771065,0.1576782340997105,0.116509514810331,0.10521009625573718,0.12700168977870607,0.1562596532946201,0.1733083252530565,0.19430386772771735,0.2058071839224782,0.1881856373768338,0.17172021647695557,0.14204288299543633,0.13802668865539447,0.15391973444276053,0.13115543598945223,0.13701510364464298,0.12697026563268388,0.1263655383047726,0.13129769089225096,0.1213217110700926,0.12599210206273792,0.13163086853911166,0.12601017673713555,0.13191880944999435,0.1303733756415255,0.1506014780692433,0.14582268453598513,0.13854890952403176,0.1477740142241899,0.1706028818746823,0.17089401143313543,0.15172628383714581,0.12740149687738622,0.14720169311634734,0.1506231881459703,0.1262734962375225,0.12112307322790228,0.1222753602838087,0.14891920341443265,0.17487233438603678,0.20844857977353426,0.2537962802281135,0.2922505023805515,0.3312597491503695,0.3672723221396872,0.40608057316791335,0.41426000374950167,0.40055568111448947,0.38322736758018827,0.3406669258204249,0.3040059333375229,0.3025667833937704,0.26345332911270036,0.23310798541475863,0.23519796187408293,0.20913175270470097,0.17988323091940694,0.16891230834832838,0.18717661832471988,0.16674560545837203,0.16990503463011164,0.14870582111437658,0.09909103027067134,0.051590343358374646,0.0,0.015811785734539452,0.06954205045519801,0.12679997484105243,0.1887512477643396,0.2573124715910411,0.32021278522389407,0.3775248953735355,0.4458852911170963,0.5143974124753163,0.573546807573321,0.634509329216586,0.703056036629079,0.7697798796227953,0.8245563925529762,0.8756231275164428,0.8686148305323611,0.8157697091958305,0.7503563040585783,0.7073026179240207,0.658523378770349,0.6100949111628222,0.5487933049419906,0.5104661033989775,0.45646016649564736,0.3888324170466162,0.3324671652296791,0.26842443310150665,0.20813754134182805,0.1546915383508365,0.13434298211552687,0.1097909622166342,0.09325981772993552,0.10006357286855039,0.10383557633227092,0.1411876420411149,0.18144477665543723,0.20205369648500549,0.17855395404545904,0.1983763275354904,0.19994807045311047,0.16875095720982314,0.14833855320218925,0.16991183258713383,0.15347460621185371,0.16154636440868853,0.18726847353251364,0.16475127726191552,0.15612541361270127,0.1723385665557302,No
0.2722314656496372,0.251941740766064,0.2242463754656172,0.18602526158962007,0.14737285662238042,0.11743475725200048,0.09607492733074219,0.07446140233039555,0.048470860498472934,0.031131937603554594,0.02955733211192557,0.029557189268524464,0.03078185388779575,0.05146940783985832,0.08904405353896161,0.1274381060976113,0.17490950762502777,0.23254191278336211,0.28272592618453807,0.3431919608431415,0.40648046702384644,0.46977404855018445,0.5330676300765225,0.5963612116028605,0.659345266187513,0.7114878901967487,0.7694307139990588,0.8326446269868035,0.8875985936328772,0.941441640189026,0.9814951970900823,0.9734424296140176,0.9233079248773275,0.872717733363217,0.8130332846537867,0.7499217736806756,0.6969723725740993,0.6399528789672981,0.5766933639331038,0.5136078501381061,0.4608280677682779,0.40361102207378874,0.3403573724064506,0.2804184560510281,0.22993504825650168,0.16947676509506193,0.11991899179224852,0.06959814683846277,0.01523377948065363,0.010013809750770708,0.02852755470454138,0.05057399551866837,0.08213237581411992,0.11796876410709256,0.14212959843814899,0.14599093523370543,0.12866449056137297,0.09973089478183184,0.07806014952957296,0.047202383684143534,0.03998236608206751,0.04633323559560809,0.046386847829101185,0.046386847829095856,0.046386847829091415,0.046386847829086086,0.04627967107903119,0.040796396334874085,0.03816342939217776,0.02965089315498526,0.02409147940056311,0.020097929757813215,0.03183245677442903,0.045339076340004336,0.05054913588298193,0.06396712441144414,0.08902743820950176,0.12213595110215758,0.159062478153297,0.19686667193543927,0.23549822183441238,0.26727342093826456,0.28164310287411176,0.2763866422629242,0.2514148210144218,0.22517198496550028,0.1935812575861391,0.16042943569628942,0.12634171657061977,0.09164957159557385,0.07303161799631042,0.04979482444919725,0.044725008798081056,0.031222252170489906,0.023022017000160933,0.013243889115951202,0.027763588269098527,0.05939873811875396,0.09949763720443006,0.14312524398059212,0.1948610909489248,0.2488145652019753,0.3119690934041026,0.37491425604025563,0.42669140580365816,0.4850365428337269,0.5483135220457482,0.6112422397699695,0.6628647658139815,0.7213801122865631,0.7845668245034276,0.8388779477880464,0.8944578657383455,0.9506262077741621,0.9838799702946117,0.955959867771615,0.9065659506439059,0.8442553858329558,0.7810068362399196,0.7242820128727709,0.671014852722509,0.6079119453690827,0.545910767573671,0.4961090078551629,0.4348745953989739,0.37645397500075006,0.3247471087461591,0.261811184983177,0.2010008558843035,0.15092166947832997,0.09287544231234834,0.04505628086403357,0.0047606003554796494,0.0,0.026444349891143748,0.06197287338199686,0.09468995104602307,0.12004443127979592,0.13034121293788736,0.12271627114299966,0.10192493265113534,0.0808698192270274,0.05989982513201619,0.046768426777565875,0.04638686831492578,0.046386847828908895,0.046386847828903566,0.046386847828899125,0.04638684782889424,0.046386847828889355,0.046386809568244036,0.046031736595280925,0.03472628728802851,0.029575989570528538,0.029829091387588047,0.04065258820940665,0.051901690593465055,0.06795101904336942,0.09591307470400423,0.1275499413504626,0.15920916046320155,0.19563390856420781,0.2388844296939041,0.26992585689489745,0.28157635866495756,0.2699928177065041,0.24505926819914592,0.21358018475077323,0.18193319301036892,0.1502862803429741,0.11875383829154362,0.0927344447039089,0.0641016474727012,0.046824015322924684,0.040395418754243906,0.02980665459396059,0.029558821755504727,0.03159751679852185,0.0516394654485377,0.09517090513161941,0.14189465033360227,0.1820217033696543,0.24234448185384583,0.3055911135460585,0.36199999160909835,0.4155435943969925,0.47868399837726106,0.5419736492994649,0.6020104996899582,0.6524949585462374,0.7150283371571016,0.7768713866427621,0.8268237902148456,0.887934201333128,0.9416200518419604,0.9916230273283029,1.0,0.9627891700916704,0.9010808956421807,0.837926081400747,0.7839423521198818,0.7279824560743129,0.6647367640477051,0.6015881209380192,0.5477980473140596,0.49164062539084874,0.4286364739812414,0.3760571501184784,0.31860663377490583,0.2553414662984128,0.19205256560612138,0.13154714640944576,0.08366184603870064,0.042654043932854435,0.04387074792065837,0.051882106619604684,0.08018492514363151,0.11897979840423156,0.15280400926698512,0.1640166538553518,0.1617106203043468,0.14294555114276353,0.11422696832041312,0.08999939054451112,0.06959458404410501,0.0710673619745843,0.07992229071496304,0.08004662528276452,0.08010272089703374,0.0880649812022587,0.09675865635756908,0.09688967040101515,0.10156465034989726,0.10334233970737206,0.09646027059981721,0.0846856365337394,0.07345797175048041,0.07182073430418434,0.08017809225454409,0.09151275278252102,0.11613681487654759,0.14877721453693216,0.18234917179055188,0.21525420856447308,0.2509423780653184,0.2793446905114023,0.2981697318915306,0.30875056804058243,0.28406015091615444,0.2525482896637339,0.22674059806292224,0.1974738146181938,0.1609855068916537,0.1264952170968452,0.10439148887983363,No
0.38188682353807213,0.38184863888933496,0.37492757189733084,0.3642525300645767,0.37706326569154625,0.3619010407932275,0.32178326607075913,0.2719995891082023,0.2206283445735342,0.15653397351965603,0.109574538310373,0.05083468884351916,0.013186159768514116,0.0003883137584494989,0.02089057974413322,0.08716479104691066,0.14085875093268996,0.19497769814750532,0.24350746122039446,0.25596661562641687,0.2961874845306358,0.3506266492318755,0.3635133662703609,0.3837631644755648,0.41536106622805624,0.4383883600755727,0.4651788263654142,0.44881152960483917,0.4056930036796995,0.3613654388012919,0.3101040606166965,0.26063102336435495,0.2118463681090188,0.19247971063236768,0.2526973573500513,0.32212581829923126,0.3487275883424559,0.3511924394438837,0.3446034554839419,0.3009318474590512,0.22794317434836353,0.15400546261726555,0.0801059428920392,0.017402355213804732,0.0008845473717888908,0.0,0.010382789136555548,0.03073036287075892,0.07074896640671291,0.12671422425372514,0.16769938439039045,0.22644884538047938,0.27325148351346584,0.31724396287622714,0.3406917375448395,0.32710802797074523,0.3126208793636267,0.31065126495935935,0.3527272069793672,0.41704468365075265,0.4760969793523606,0.5488652009931911,0.6221984080397855,0.6826471015325528,0.7515851737509003,0.8255086288413191,0.8926151011234356,0.8814707149237364,0.8129137545450873,0.7389965948227042,0.6687878117090347,0.6093160695590951,0.5390691535215915,0.4863241980830608,0.4339610298911234,0.4058463922679958,0.40100539635821075,0.40164549582333064,0.41531666159777636,0.42457874475410584,0.4399642033128459,0.45947371652052516,0.4896302187544519,0.5195641728391305,0.5521846104083341,0.5822661568267624,0.6210669913042146,0.6671596157407271,0.7042085036507868,0.7378154749780621,0.7547223410662767,0.7350909697117345,0.6821332272022076,0.632207579337591,0.5848113126849284,0.5403767988349708,0.508147648780163,0.46639226827727187,0.42873097991150155,0.3845368943428529,0.3549188486779751,0.3438484428764603,0.34376646901739427,0.35355898254088247,0.37959482336696704,0.3941375024352114,0.3959443087774641,0.38251318976944404,0.3871369795357742,0.3867932422619411,0.367499386311378,0.3796660130331868,0.37604185513666977,0.36310833091370176,0.3534303742788878,0.35457709742476506,0.3627169158286714,0.35936977400607617,0.3493424660551634,0.3790962518387939,0.40354427402683335,0.422346722793407,0.4551435528149641,0.453332712910524,0.41077834195761653,0.36739520271135495,0.34469889316629043,0.33761865704817806,0.32439944958640554,0.31018105011271846,0.30891399031193956,0.3467302079931698,0.4116207033833308,0.4854888182324224,0.5580754802284003,0.6167235599956427,0.6882030540046338,0.7621385618796683,0.8358355385813416,0.8811714756384412,0.8372210675908618,0.7641636048566016,0.6927718843881197,0.634103375701812,0.5667745084920037,0.5109874770559601,0.46148841463300805,0.41755659802434675,0.38388273359489533,0.3663544326303012,0.37595443281086816,0.3893597112039724,0.40079865256986524,0.40736863134768075,0.42621856399201086,0.4533552397869949,0.47269751930887915,0.5183099919649514,0.5565895976576032,0.5924263117153163,0.6295511367747961,0.6780093261632887,0.7178022872466343,0.7524407510481996,0.7476609818973681,0.7018127243136258,0.65668989345447,0.6140835125026074,0.5635460423924115,0.5185105196828759,0.47452906850006427,0.4334651570135901,0.4013403680162684,0.38046614022704883,0.36354892907700176,0.3491132003451023,0.35936681603107257,0.37344721100654343,0.3871600324573907,0.40527726507038686,0.41956965957975934,0.42360118359782506,0.42775405788806076,0.41028887525444446,0.4011022170972365,0.40098930448355263,0.40070640881082653,0.38881125706713604,0.3819184742173687,0.3818868235385313,0.3818868235385371,0.3818892482565408,0.38460422962589913,0.41211565655809546,0.44754101480333386,0.4764397908679192,0.49245860690816556,0.4461150786647643,0.40000545303287716,0.36820727848770396,0.3540782281647257,0.3526138620317827,0.3464165365566956,0.336854259310126,0.33443784217701245,0.3771486605138872,0.4389293462596435,0.5062751663398126,0.5678597004183406,0.6414402125543219,0.7106921859856934,0.7707648178418847,0.8441668624086027,0.918104552090862,0.9903733286351124,1.0,0.930462891830294,0.8565272912553912,0.7825894532445834,0.7087992400055478,0.6456889108633477,0.5852666517802168,0.5295813427670675,0.4789807444855292,0.4337593322372544,0.407743882897285,0.40541040864268485,0.4207705881843413,0.43083474460426974,0.4276154285234086,0.4462721781641652,0.4730474905987734,0.4833720697880839,0.5120411198990253,0.5418123101478836,0.5763613104833878,0.6242485030690434,0.6640555100366745,0.7088461384115181,0.7485906074475981,0.7907678600645136,0.7934891702522586,0.7528208747123482,0.7091249767908132,0.6599881353295864,0.610764887221865,0.5644655525470297,0.5196286850366563,0.4808284923954753,0.4440369002241571,0.4146922190436775,0.40069602895526435,0.3862265993257581,0.3827527887582738,0.39697337907543995,No
0.07100471398733799,0.1017364218008261,0.12459302795593263,0.1826409322095479,0.2408062447180095,0.27653401281629986,0.32574242723955127,0.393694792221293,0.46874105337060623,0.5227988035830453,0.595494074117509,0.6715566941289239,0.7475924296664909,0.8131509605178415,0.873584926601934,0.9472500809543529,0.9761073784148584,0.9643493315875347,0.8966526625151507,0.8282692917221812,0.7704606574150485,0.694842330902345,0.6187814738130317,0.5469463575303619,0.49213843049898465,0.41696706540611306,0.3409006519462503,0.26483423848638665,0.18876799818221102,0.11418350708493286,0.06442369096128342,0.018348503160278362,5.7877224901581314e-05,0.00692998253346655,0.026009261030549347,0.046574163071094965,0.09238833538530056,0.13042449386412258,0.15736312124892926,0.1774778167251565,0.18381207934561772,0.1529536490761929,0.12186474246827839,0.0866003289153765,0.061528742318409435,0.052800515023530004,0.05261112171027538,0.03917971919472407,0.04547207770928097,0.07054468398883174,0.06871515719032306,0.05289257215194887,0.05361888445917273,0.07428258721302416,0.06331182896886389,0.0528103841919485,0.05280051502350336,0.06143111296035819,0.06802620699676698,0.06938777513960037,0.07912076836690662,0.07915836801495058,0.07191722357921915,0.0571085178034787,0.07756630929385633,0.0791698270086032,0.07847554317480832,0.058796389546696304,0.05278406640940325,0.05277970626961892,0.05282025336035101,0.06512186317646229,0.07765750584328135,0.0572516062520565,0.061515331564261366,0.07906802470165886,0.09572090017372581,0.10325886310453747,0.08650668502153103,0.10447663764895143,0.10556035702461752,0.10556048295602238,0.10556048295601883,0.10556048295601617,0.1055604829560135,0.10556048295600995,0.10530671388700341,0.08850615261672701,0.0791941930894513,0.07917009461278202,0.07919090336663182,0.08790483838757801,0.10472514203286387,0.08650775543845857,0.10794717757129568,0.14531254078326405,0.17120451429269412,0.19691166861024634,0.24149084561928458,0.2827148001338813,0.3100818146590969,0.3489318616056831,0.39944245937153156,0.4449721855166704,0.475118319236441,0.5043337294358121,0.5263253407173965,0.5227021017510189,0.4971345271276162,0.4518098505495107,0.4131088072606559,0.3768947266220195,0.35158607728802505,0.32469540981046396,0.2720215179666141,0.2241082076000822,0.20639425562602298,0.17323029378131505,0.13507728277133335,0.10688475022737354,0.10530690278405164,0.08923359045121693,0.0998690732484393,0.08955895270654768,0.057268054866019824,0.05279475413187473,0.06031201048313051,0.07886521483794251,0.08006605598240668,0.10718508402235294,0.15727606095728408,0.20822525863266872,0.2664779289524226,0.31844105758386476,0.3626088222764672,0.40182550417434193,0.46822777139288085,0.5442609982474291,0.6155640835888558,0.6712184319995158,0.746070873476488,0.8221371452635164,0.8981893294151551,0.9665611246329835,1.0,0.9814358022659562,0.9243249453869611,0.8557810972631099,0.7983475513654463,0.7227850950302237,0.64671868157036,0.5706551800978925,0.49752983243753324,0.4435899224023441,0.368843227177015,0.2929966978794267,0.2325625743810713,0.1683478903256077,0.11291300406306082,0.04561541691878013,0.005753855195150592,0.0,0.0008949224355809804,0.027273629240039732,0.06530575266197403,0.10330365380297302,0.140876564296172,0.15812137548005012,0.15833834765492583,0.15539613279012787,0.13087327880415778,0.09870660731779957,0.06245242569410436,0.05280443440314819,0.056291442268948444,0.07731894488560265,0.0669255697423079,0.05283012252860875,0.05277970626942796,0.05278065075498617,0.05784530771950269,0.07062964949171491,0.03859278821579082,0.04599106884509485,0.052769175961079995,0.054725850220446404,0.07678696596709855,0.07915457456627184,0.07062365519539782,0.05311680845005107,0.05695164673340791,0.08868433805340015,0.09082698337115325,0.06016013349166105,0.07686847476111236,0.06933051183029626,0.05294938681471173,0.05785703431736966,0.07808587151129665,0.0791699686811862,0.07916365678099258,0.07450228247789958,0.05384349069612604,0.0697617380214659,0.0791375534057357,0.07704762859575531,0.060117052266526194,0.08208531232092842,0.098125758622853,0.08023370588364198,0.09744493915980801,0.10498245848357346,0.08650668502128145,0.10219296032313974,0.10356323252507149,0.08205559379267768,0.07917059833818652,0.07917009461255109,0.07917009461254754,0.07917009461254576,0.07917009461254221,0.07917009461253866,0.0791709761323931,0.08393430425082649,0.10496269643666167,0.129098207342639,0.16692752392423937,0.20502913291626434,0.2370475845932294,0.2789484585149218,0.3190122221674532,0.3622524467752264,0.4166168412290361,0.4464921110343436,0.472198938571311,0.45339955215874106,0.4485700497895406,0.4381626756320225,0.41293502952162786,0.3853969659554979,0.33828714913001257,0.30869664480537473,0.26217513324192687,0.22365354464309561,0.18902830788874603,0.16343178186552443,0.1284424282245995,0.1057368688780711,0.1053120241907175,0.08189109759140312,0.06505197297822818,0.07777035949543887,0.05754423073607651,0.05472673174015341,0.0767546766229179,No
0.062043047941730656,0.044438481575270306,0.052019299056910384,0.07474550835295268,0.09777494058591918,0.12179516102680132,0.14958293477021734,0.15907552913355394,0.16597353246761992,0.17242045033763587,0.15985844125921655,0.13329459825314327,0.13064640774076564,0.13016063707074466,0.1130962297370246,0.0914191541257896,0.08699970981228944,0.08699627530252796,0.08699507446849708,0.0845464089569008,0.06642217314880439,0.061360656046544726,0.05271835552095272,0.0649225426980955,0.06607898544806945,0.08426282964541176,0.11270938582789736,0.1581922117850434,0.2185713335906878,0.27204700971555384,0.33461828311858044,0.40236681640382077,0.45379697964360055,0.5189546835524452,0.5876780832579378,0.6537829541396256,0.704998179368971,0.7720298385426432,0.8361292823032072,0.8871791178453075,0.9293402096477568,0.9272622810788969,0.8819377329761595,0.8141416176029495,0.7454154276468214,0.6766892376906934,0.6079630477345646,0.5392415213464883,0.4744922012017181,0.4227341476837645,0.3548829185935021,0.28647963194373904,0.23211598723428217,0.17052052161252496,0.10517414205476827,0.05934227068996023,0.03833352610072538,0.02214678972118511,0.014685620424367496,0.0,0.005625663193904895,0.02113328396906322,0.02476178289689379,0.061210898022670435,0.09694518977689581,0.12432325122203647,0.11053985413257505,0.10881701166132096,0.10495358178442382,0.08768871707548653,0.06910052284622559,0.0439458376196189,0.0433470139355312,0.04334701393552809,0.04266455787149637,0.02863971706890478,0.03664621020104297,0.03186846191443271,0.0304026969763056,0.039826182371458074,0.043345273492634284,0.04365763830074609,0.05823958697791509,0.05332845407922404,0.043407655145518476,0.04334701393549256,0.04453652301481714,0.06260112127429007,0.06505081718897054,0.05396769313013161,0.03127701820659423,0.02127077874079264,0.007132366773409782,0.0009533659408322848,0.019063971591695594,0.02907541916414269,0.04613131717257346,0.07355331195559422,0.09868520362425581,0.13190568000613334,0.1532481963400647,0.17193693102640895,0.18217315143675794,0.19905850239822875,0.21626446171154123,0.2019814889227729,0.1758136472261711,0.15818949619555056,0.14883627016714396,0.13041872204745264,0.10716009429473505,0.08729320407299701,0.07275397486092894,0.06518947644109607,0.06517164461886216,0.06520618254364186,0.07369935749909207,0.08749450415490134,0.10845457296930006,0.13084745532065245,0.15096400834588763,0.18790935056200597,0.24131771126103585,0.30656017196016405,0.35803617290121537,0.42532131715659505,0.49290378225632425,0.5436053004334962,0.60967613363478,0.6783990819612278,0.7438005234332179,0.7953754392994004,0.8627505883684163,0.9260214742393833,0.963454740110893,0.9704855650387971,0.9266339448894731,0.8758359261579267,0.810715856449816,0.74199195616686,0.6732657662107302,0.6045395762546022,0.5358133862984742,0.4670871963423453,0.39862486858425905,0.34325670951517573,0.28270446195538135,0.21404711596885617,0.1547438416818383,0.10256834035713114,0.05809011690282295,0.060113436810120824,0.06515928861609188,0.06517164461881908,0.06517164461881508,0.06517273967989379,0.06798594119644008,0.09823297840709344,0.14372909758254337,0.17318934218526838,0.17425708018688946,0.16530688072461786,0.14773488349693098,0.11368835296142343,0.0964724569018891,0.08704751932957411,0.08699627530223397,0.08699627530223042,0.08699038094462574,0.08283200723811879,0.06600959981246124,0.06517164461876357,0.06517164461876002,0.0652918013191246,0.07853600170492347,0.08341391888694849,0.06663014668212375,0.08091515194461918,0.07799096466254385,0.0856713692783444,0.07174934403734534,0.06670804875029823,0.08477173062806376,0.08984887471475389,0.10171533386218723,0.08755612175822369,0.0869962753021718,0.08712791744804083,0.10088324710205221,0.116402864347247,0.13346938534515074,0.16162452783875558,0.19241182893828945,0.21431994715353397,0.2179418574139116,0.21784748034507162,0.20733557347696552,0.19618296467284901,0.1900821301371849,0.17472324263868888,0.16652012623503198,0.14979938709616647,0.1388870810400138,0.14759468477703486,0.13140485480935205,0.13061948813256263,0.12349389103017083,0.11573693338452662,0.14946874699169577,0.14273164741665312,0.14622632386281165,0.15245294255221342,0.15688233065776958,0.19158920615379227,0.25518368723176543,0.30576644738300685,0.3720853650238434,0.43764390838867984,0.4891378938615727,0.5563394221179303,0.6128510122363595,0.6622133499234701,0.6995740474074639,0.763179113495501,0.8144292065055101,0.8814952146687158,0.9455195619277044,0.991094217839577,1.0,0.9520322875573539,0.9001076987451642,0.8356207155057813,0.7668977111818922,0.6985452654865165,0.6450466192534066,0.5825380229262773,0.5138175820408293,0.4450913920847013,0.3763652021285706,0.3076390121724426,0.23894733243091926,0.17859948174342,0.12326230901213897,0.06629834984302585,0.032395501985806874,0.021587776868174924,0.02613343518117439,0.04023128115811092,0.024264320427349606,0.04108675144514873,0.0433480405549167,0.04758838689716205,0.09142847520865827,0.10831035149261714,0.09349688792199684,No
0.42762010838369946,0.42762420172470694,0.430503751875035,0.4439352865507442,0.45189511685825234,0.4754058416452498,0.49228273617568563,0.5202816283406642,0.5424560584352012,0.5662150438836537,0.5904363459356445,0.5972279980205855,0.5756076544091533,0.5462940168898722,0.5124575128312081,0.4734425258676591,0.44116226915875023,0.41180590141295426,0.38390235427725417,0.37344889198222075,0.3542729960112121,0.3199313442279621,0.3086876860089567,0.28117321984117627,0.24327165252247873,0.20428055785058286,0.17068010844161474,0.19027354538255326,0.2478722355877241,0.2987160365710859,0.313371770587727,0.3146753429235529,0.3109679387799935,0.28444617934937044,0.22777567050173797,0.16907806877013165,0.11037949983865669,0.05186884156298488,0.009386887536980915,0.00035403269790634795,0.0,0.006409840779272091,0.02113441165586849,0.047176552970249475,0.09032097007206108,0.13052642656528546,0.16131732395434506,0.21205541800740324,0.24667522324383162,0.2824857029661749,0.30607423856612925,0.3208100534796299,0.3303202184051939,0.34474942079011583,0.35994266353907634,0.3751953570024087,0.38976414745729615,0.39556226654587423,0.4093454159369263,0.41051271531731937,0.40871735027271594,0.3940310471735189,0.3795790970014359,0.3898342445056753,0.39216818833618516,0.3814428070402127,0.3795876124440505,0.37935952104665827,0.39247847101280575,0.38327363141733706,0.37635019871510966,0.37629998462687686,0.3739146877163595,0.36595178478852386,0.37609102719485454,0.3763488937049293,0.3837598787211225,0.4127675326554665,0.4410773526107641,0.42307776618238924,0.4056099300000162,0.372835680651324,0.34574899652386515,0.327229755774737,0.31279731140691247,0.307675610411255,0.29627363355518277,0.2865535165706903,0.26317547085976223,0.2622047732352466,0.2961888943282487,0.34420059094897537,0.39519407457745226,0.4536023600211263,0.5016330464008667,0.5541579196522433,0.6128392498922097,0.6714285176635864,0.720770276219846,0.7692533924684373,0.802682409020909,0.8550350212568869,0.913711291829193,0.9717693885999115,0.9913234580035684,0.9510715892603674,0.8939209512677166,0.8352229710440282,0.7765244021125537,0.7183514463666265,0.6722476982671188,0.6175295233913327,0.5588365664752586,0.5001584139355169,0.4485677757998494,0.4102403430141748,0.38197196349899,0.3592738680167109,0.34075297475250066,0.32649598355727427,0.3317661339990887,0.34193800008958064,0.3421562456837788,0.3515314053203422,0.3737925162058273,0.38474909874191354,0.4091400482788332,0.4287896396178521,0.4544148791312441,0.48374501212947596,0.5102452531088058,0.5335218930296421,0.548045719553838,0.5579090931367845,0.5323010034147537,0.49820893894752505,0.4654035690518681,0.430975151479847,0.4015883448010711,0.37649145696193065,0.35697298417379386,0.34265192459095895,0.3420880340703558,0.34208790794093735,0.34208798735576273,0.3425528942571727,0.35493316869679603,0.3591858480136625,0.3591922034141164,0.3560287041365813,0.3428252526010218,0.34208772575402246,0.34089585413188406,0.32710298213853495,0.3249838088767705,0.32498146785237836,0.32498146785238236,0.32498146785238635,0.3248787489137426,0.31584692969574535,0.31605155629550286,0.32487287051224056,0.3191578302853477,0.2960147747766473,0.30520423681670783,0.328268338408634,0.3500047702321245,0.3842980840690835,0.41229856716589586,0.4069968571157756,0.3849475511434628,0.3567990875175502,0.3275485899341639,0.3043858051392112,0.2912074725957763,0.286849833239307,0.2741928141176979,0.2785077317967595,0.27510537525586676,0.24516692889962988,0.25376450790691996,0.2982372161706839,0.34322577372238383,0.3994949628856106,0.4531220796563553,0.5000382830243839,0.5585011460815483,0.6171286971778351,0.6673691152230776,0.7175673923191157,0.7761889817188465,0.8348875506503202,0.8935861195817956,0.9522403182851509,1.0,0.9722551118993192,0.914046707551817,0.8553481946778643,0.7966632895251466,0.7432082071447761,0.6960223835177519,0.6376603403547283,0.5796302119996857,0.5338924379242527,0.47916819852494186,0.43403422058519814,0.3951560192107939,0.3690150095712159,0.354543167937281,0.33556898025169124,0.3273201317020522,0.3419645934931306,0.3565763130269395,0.35996930565466423,0.3735534322021672,0.39071964094921885,0.4098023992392896,0.4239438245168672,0.4474210314177136,0.4721421539128188,0.49468509649944004,0.5238356589695474,0.5526016399484535,0.5642094695228117,0.5535943892474116,0.5183996714565176,0.4844451984932654,0.44550374189766195,0.41167298577206113,0.3823057707086144,0.3608254385416001,0.349474382145599,0.33086453560362594,0.33571582888116414,0.34206987482456164,0.34208804808493287,0.3427099051323519,0.3557034126985523,0.3496472204205596,0.3506663812940549,0.3550616020602062,0.3425780067964457,0.33851153168745896,0.3255154649819487,0.3175456142213764,0.30800408921050915,0.30786732217312984,0.3037507903611849,0.29125333427804767,0.2906101887795116,0.2802427839047339,0.26620780374910735,0.26184614455321276,0.2582770885971386,0.26130151683178493,No
0.5088911698643144,0.5088911698643206,0.5088973353677675,0.5142196413584506,0.5210205531215752,0.5126536955827121,0.532956505513094,0.5344112789832822,0.546360479770823,0.5823552110156722,0.6084393174598643,0.6347925977901676,0.6553905407894014,0.622158689696577,0.5899401437145322,0.5434671736095487,0.49188183782315154,0.43354778740669886,0.37557443859157624,0.31851726795194724,0.26399930056979093,0.2621817491630902,0.34109844848847803,0.42380510550538153,0.46243997533189773,0.468116845905032,0.4665294149691994,0.44852089357604097,0.37665333276086876,0.2910997527264767,0.20548003409907123,0.11986383104571985,0.03815275736652213,0.004679224416772598,0.0,0.0007097703144713918,0.020119217392176036,0.04378727401189009,0.08971189299342264,0.15742103277265196,0.20900632186396662,0.2635433918306309,0.33218807102971537,0.3827541385977846,0.42617280454690976,0.42057901292914,0.41711720745860736,0.4401003871561877,0.49805172842370427,0.5655757240840416,0.6314454799749649,0.7119412608002946,0.7862990680233883,0.8579669555319711,0.9433126593694672,1.0,0.9546387633650548,0.8709783398561886,0.7853590375301849,0.6997393189027798,0.6145342675719876,0.5465989097147936,0.4683017900765658,0.3855504192949675,0.3216085532349151,0.2668625351328684,0.2722695967427997,0.32962360943504043,0.39366552359143236,0.46423627904482334,0.5020311240732105,0.5334320369737631,0.5549014205162939,0.5686658313921091,0.5897135114583145,0.610046126167024,0.6314295147463893,0.6615567277350651,0.691332774348485,0.7340247500107813,0.7768248292913666,0.8196334208230018,0.862293914816461,0.8897419320966495,0.9053768015188401,0.8765670417770233,0.8402044411194671,0.785397735078198,0.7311038751577392,0.6877519142797279,0.639716199762721,0.6001123635712711,0.5653986579371457,0.5517537691184504,0.5348023666606716,0.5343376280608956,0.5343375897363218,0.5343375897363272,0.5343375897363334,0.5346330340838872,0.5497540040715805,0.5597595191882343,0.5557778153243342,0.5387298371882867,0.5498298704406279,0.5369319756943547,0.5566812255896796,0.5431418131652377,0.5343834707207327,0.5343375897363902,0.534339769126424,0.5370111351703599,0.5586859652336518,0.5801009333687954,0.5967400492707053,0.6353670641045657,0.6698333738338116,0.6660661075067553,0.6518281046196481,0.6041677074061118,0.5569260700056589,0.5243292312754075,0.48950087812781273,0.4830773151531851,0.467436661956532,0.4809641349656504,0.5149844736650313,0.5787565665185603,0.6632104848479985,0.7437132233034438,0.810003687927888,0.8909949230205445,0.9211849943286525,0.8526717505866035,0.7670974891518814,0.6814881468884879,0.6019525900951157,0.5350064987742575,0.45474905696544266,0.390561871709767,0.330866310511301,0.3083029830416133,0.3428662918176677,0.4078896004598649,0.4804253508512195,0.5437611163714973,0.5799120106912081,0.5715926475750299,0.564531122176068,0.58638315703418,0.6087913973999353,0.6354901017306664,0.6631456687648383,0.6884920459999728,0.7172686846742966,0.7558146532411865,0.7911712574678509,0.8267420254998958,0.8491483293712303,0.8833240141844421,0.859004040580305,0.8101359285665399,0.7566161697026068,0.706336696513941,0.6643727927215499,0.6181687179119999,0.5891498474945749,0.5631631899823795,0.5554108365209327,0.5356393996570699,0.5343391862600235,0.5366764526222658,0.5573086492923798,0.5597833594120534,0.5597840096083919,0.559758768773551,0.5495641301480951,0.5346169071720981,0.5343374998721009,0.5332383771171445,0.5136303227941941,0.5089210795658361,0.5161618487617248,0.5339027887540784,0.5335403824066773,0.51478101641582,0.508898134949876,0.5107644022323861,0.5339111786343604,0.5590612289709966,0.5826264169583295,0.6110041301219367,0.6338031432237008,0.6158085247433007,0.5804731369271598,0.5272261981002133,0.4895874691585749,0.4812508113747329,0.4500974988685176,0.43575809003310706,0.45753059510815985,0.5022659511239476,0.5773892234394982,0.6467467448226785,0.717523817704369,0.7925823423411131,0.8778494501382976,0.9431437751687684,0.9189262424343037,0.834455525925728,0.748835940773585,0.6637516915585966,0.59615580903424,0.5174246539096874,0.44089022676964174,0.3765722365009605,0.3348053275970426,0.338568803647588,0.4043110972679935,0.4782379879747056,0.5139261070007515,0.5336609889350701,0.5345362726118612,0.5486681479226991,0.5690679118927084,0.5864919089344971,0.6142462298820188,0.6464927411568553,0.6874682963348064,0.7302779443859091,0.7722411363225472,0.804280547790464,0.8453348750196445,0.8694750656475145,0.8768137101549485,0.8423787296506777,0.8044550718272712,0.7479425039553957,0.6979498516200993,0.6647977134390386,0.6175788551476025,0.587052913416577,0.5668261400306251,0.5845943352488971,0.5852304294804256,0.5852304294804318,0.585230429480438,0.585261297646988,0.5929613858259408,0.6103628504854566,0.6105526649000153,0.5976088610355124,0.5848653419055516,0.5669779755974362,0.5598073713663423,No
0.06456848394016568,0.06264527412277854,0.062153788826513345,0.05989291474944558,0.10086407736027603,0.13403292204645423,0.1873115451224976,0.23677925919386356,0.29149287519317246,0.35217430217358947,0.4075733692705379,0.4784279082728169,0.5362112298199215,0.6022108178963506,0.6728079106992535,0.7277436826675459,0.7982545886465884,0.8708333256733978,0.9423747879717617,0.9793178839191565,0.9598323399292514,0.9011534810133011,0.8428637379977406,0.7774159586904181,0.7052449251985173,0.6471205016143529,0.5813481856824145,0.5087854210881502,0.439131388053017,0.38403280056143574,0.31271334527853956,0.24021248363829706,0.17855313495243097,0.11655921651585865,0.04735978292453824,0.0,0.0028336390381191734,0.02514582001390986,0.04398282427306066,0.07187651653914484,0.09479235604065428,0.13294300960784922,0.17426844306383016,0.17930068868487314,0.17330704857003676,0.15800205159227776,0.14743820859834633,0.13568259048642473,0.11805789147147339,0.09393865829683223,0.09263599212571139,0.09287862172743733,0.10721842279187355,0.1022166468861525,0.1112293264935369,0.10311462924571302,0.09271942919644793,0.09462749336025089,0.11225596162466367,0.11430233095472042,0.11060652178734998,0.09377985769025221,0.10439245160481514,0.11424034406024441,0.1143078165548772,0.1142385972379305,0.10429661153298042,0.10275020331945495,0.11410292724554161,0.10390978540513363,0.09824484229341834,0.13353468944322344,0.15601476102460632,0.18012044385364234,0.22535796304283773,0.2628932137961302,0.30820616077911067,0.34594376867446996,0.39105139355326424,0.4277278521527976,0.4393039985876239,0.43381181407699687,0.4081510971801898,0.3625821050567972,0.32594247884598504,0.28708327786288246,0.24554152122549988,0.2108425654310917,0.18341269621084466,0.14752754625357278,0.1222394015669952,0.13455689977965513,0.11453427286039819,0.09341905126085503,0.09263574822271625,0.09236719388680958,0.0805317098945082,0.09177760981712302,0.1314800548583781,0.17981634458539464,0.23507754296535088,0.2921182847300181,0.347791945233614,0.4138286047964481,0.4688875530258114,0.5393414171070998,0.598133503771598,0.6630773722796643,0.7356160217606806,0.8055428418114507,0.8607982527202207,0.9314558273152018,0.9861670324910454,1.0,0.9640810598153484,0.9049068114809922,0.832960426296756,0.7755082411327567,0.7090029664671285,0.6364928419028208,0.5728755351661476,0.5127912380353212,0.4403663907849422,0.36778616860521307,0.2952059464254826,0.2226300202922702,0.1539434140936864,0.0982152006660808,0.03935818231784438,0.06087463349781075,0.07093275132015542,0.07664940402447007,0.10062686716819158,0.14169198554310913,0.17606455728748216,0.1939922307447537,0.20091126871138387,0.19234427774182228,0.16824864339352485,0.14430009690593248,0.1271127038265374,0.11446554453051805,0.11188794365364574,0.0942034716180351,0.09624862250837962,0.11313407765002959,0.11657824019516916,0.13372516464069184,0.12182641480149048,0.12836173893175573,0.1359496843643866,0.14149130061998028,0.14694355968273998,0.136096405800616,0.13597989694800106,0.13597989694799884,0.13597989694799617,0.1359798969479935,0.1359801153885143,0.1371900381896718,0.15394459452636955,0.14048504930878725,0.14086654329362025,0.1636519038985007,0.19143425274463066,0.22651668071241726,0.26473615921794735,0.30763382997128064,0.36061520928541535,0.402919300281003,0.4381699674855919,0.45720137348599055,0.45665470724699864,0.42542844598457874,0.379896092738607,0.3316464083576136,0.2898170713839092,0.256549241782702,0.21314947742310641,0.1857151715471015,0.15009514988935369,0.11407536980705757,0.09332394038023084,0.08932767591418678,0.07204910796390518,0.06376711859931206,0.049506967570254634,0.043897222782269374,0.03996488565593914,0.06580001416611525,0.11141340858069704,0.1662118481970718,0.2154348109969435,0.2637919141219771,0.32281225494948407,0.3775905477203736,0.44766655223480045,0.51442985813138,0.5716542216163911,0.6437436254196172,0.7146684518820194,0.769501247414782,0.8398015451055594,0.9060601009084248,0.9507315132706093,0.9499494285074057,0.9044417209536189,0.8377133741795646,0.7724572797423006,0.7139782672452135,0.641619278515031,0.5690390563353023,0.4964588341555709,0.4238787000891189,0.35187169244604144,0.29520928910252975,0.22780156247390781,0.15582997693779044,0.09935138780281072,0.03433338897775062,0.006524276160138953,0.021398432469995843,0.045486188810413,0.06964867186196289,0.09978002347753678,0.13585170766423404,0.16352336658755107,0.1785938451342215,0.16550029196254634,0.1540549456334741,0.13668495045546925,0.12129975989236685,0.09812900675942249,0.09264549650352993,0.09263573616140963,0.09269908959678697,0.10252156315789973,0.11416668332765223,0.11428459689185733,0.10812889907444356,0.11145170573617813,0.130773233055534,0.11507814230209545,0.1145534180158223,0.1292201114672169,0.13595114568110667,0.1359798969478736,0.13597775930873546,0.13356946040496087,0.11591617963934153,0.12340539189805222,0.13325015350478742,0.11581131721478766,0.11443640273964784,0.12559483167461538,No
0.49743476120531005,0.4622862366996823,0.4112956627852875,0.3644347736262765,0.31360663800942534,0.2720921040462918,0.2333310794972525,0.2052446186378014,0.16600194565191684,0.14145268037790926,0.10708975178014635,0.10033360935317637,0.10026903296814238,0.09058153330901364,0.07860312966001226,0.09859009350180825,0.12054148984644586,0.15812227503497533,0.19101372796212468,0.26424444530697455,0.33174788751312656,0.40400439260597354,0.4682159219412134,0.5450287614057197,0.6271486196116585,0.6919952826357192,0.7680492304666298,0.8503469487413358,0.9156689154805595,0.9770327400923198,1.0000000000000004,0.9615830081504186,0.8846969832369953,0.8020652289016419,0.7304287736099373,0.6615461900930266,0.5789863574224428,0.49627997295840265,0.4138488307114643,0.3458535807853216,0.27323095208090864,0.19076514545308987,0.1218794145880433,0.050820773928488716,0.0018324447888566908,0.0,0.01375346069543637,0.053510597956936135,0.10141794298099471,0.14872927223323051,0.19011242519051885,0.22276709497858915,0.21921931944436723,0.18225588021401995,0.1339795296223083,0.11101760020875551,0.0641416493433522,0.05014763512670539,0.0501085421910239,0.050108542191020344,0.05010854219101679,0.05010858831391918,0.0509636640976745,0.0696949367284696,0.07520903975477689,0.07521597701024296,0.07635065153422138,0.09595347151225786,0.10031915077273945,0.1003231350920415,0.10032313509203883,0.10032313509203528,0.10032313509203172,0.10032313509202817,0.10033834817914888,0.10900433856273617,0.12959423185441876,0.16429971768951512,0.20755418797347103,0.262929090311554,0.32443154882562686,0.3726534336134244,0.4278312780270084,0.4831059837170346,0.5367798632396892,0.5683161441950566,0.5769322984794818,0.553147393102162,0.5164559884999576,0.4766328242252533,0.4352784845011297,0.3913372516791358,0.34021903469160675,0.29863196552062865,0.25156987089557736,0.21451929347083576,0.18051283704856802,0.15765348337498386,0.1267694431688411,0.10571173876915063,0.0858255593045043,0.07526666308747165,0.07526666308746899,0.08593713220727972,0.11327937423306134,0.14101676718023937,0.17203852923612173,0.2246127151436661,0.2923821307173644,0.3543898152342906,0.42983893331507117,0.4930978989046868,0.5741668069362267,0.6395943823742765,0.7148894385715931,0.7975513656686428,0.8711152313608213,0.9369261577320711,0.9741937756074068,0.9310573875144654,0.8624046193507104,0.7803713376819297,0.7154041497871657,0.6395278268355349,0.5568328605541732,0.47419777554772624,0.4030382014945961,0.33368811232924545,0.2511183223254174,0.1723941329353127,0.10958298852897608,0.031180262270873005,0.00045646071281479905,0.017462920667680404,0.04492758649734396,0.07729450007391803,0.12410048821964237,0.16163134285168868,0.2010033498195134,0.22508888391315773,0.21143332956705185,0.16219841925566003,0.12458442436302297,0.0968744415963978,0.06223365734855291,0.05018646769812385,0.05782354269132517,0.07476104677200501,0.075215796362055,0.0752158386413817,0.0749766354988659,0.06184544478121223,0.07089699950760808,0.07521474646136683,0.07928909033617737,0.09089484088798416,0.09072747800774073,0.08769428778145683,0.08034188346517857,0.09876041937349589,0.0811467773335166,0.0752246787350832,0.07672357284875586,0.09715302224963507,0.10032021384504164,0.10049739610669706,0.11704379113073005,0.151072255264745,0.1901821932072827,0.24038949787144448,0.2922077001654144,0.3471490516795188,0.4020942760492381,0.4573355194492259,0.517062262904195,0.5475433576051949,0.5732933285500939,0.5644912754763349,0.5312671227478405,0.4992175389175899,0.44216805720913976,0.4005433874946811,0.3534861873850006,0.3053287135721212,0.26516111667786424,0.2343261959585532,0.19382284743797795,0.15682008907030598,0.13665734411126662,0.10950145398748345,0.09016472298710498,0.07538974604718396,0.07522631290232473,0.08168254108450546,0.0887217713128412,0.09833032328936087,0.13786585823536557,0.1743583026668012,0.2319551815293175,0.29223831932350075,0.3492451606557112,0.42834124383229577,0.5063318511092683,0.5697365644074304,0.65135448178347,0.733112483263564,0.7967970831579678,0.8743473434676923,0.9465732868303953,0.9768074063225938,0.9484472033362441,0.8684583013926352,0.7857523281911667,0.703049658434733,0.6243254690446292,0.5615124164974676,0.4800339022939055,0.39732768310360944,0.31486063630722283,0.24642011324123514,0.17426510164895026,0.09269874616716622,0.03156849150564911,0.0006413094801347441,0.0018807424495528302,0.0267424438363717,0.0727614842964246,0.11554407460560467,0.15636691983789275,0.18635150961057478,0.20647618478816243,0.2210961211942517,0.18128492317198353,0.12929364642549368,0.10422772956041326,0.07640337080021142,0.060720388998720676,0.056393890743275055,0.07461749007125151,0.07616406019500177,0.09465937063434238,0.08205380677678109,0.07873045003340584,0.09859413500845227,0.1003226057579929,0.10089853910733781,0.11837531621258579,0.10898079888829093,0.10033834817885046,0.10032313509172353,0.10032313509171997,0.10032313509171731,0.10032313509171376,0.1003231350917102,0.10032313509170754,No
0.1891750713623752,0.16918248541863967,0.12882551536491516,0.06466397409087854,0.02522985974773473,0.08733382801185652,0.16301041880473877,0.2223058119894432,0.2973788595611473,0.3718376679029993,0.4315337001753692,0.507490744299306,0.5850256647656518,0.6625584944400456,0.7359413272185118,0.7961065605281115,0.8726736021134918,0.9499080390665626,0.9999999999999996,0.9863211723832292,0.9279214581223152,0.8637231565893502,0.7953755403880494,0.7199646138093061,0.6606674024185808,0.5852894577950187,0.5077550717887891,0.4302199554897288,0.3532950383330662,0.2919787948488004,0.22314536946187147,0.1932248751460608,0.16932532047577942,0.1625757423270371,0.1762590948930205,0.2173954112046883,0.25780553446594423,0.30049254789001045,0.32110782733958887,0.3398367044067072,0.34042409857721756,0.31046622632912824,0.2964355168743964,0.2538690073215992,0.2305073516966849,0.21132731103237123,0.20013645176977723,0.21550786311225245,0.20265758148575763,0.20389436695185337,0.23433650180839738,0.2183065051237687,0.2163472376437965,0.2078230422735876,0.19412863951595893,0.19554739333805848,0.21223902176814935,0.19743765992018636,0.20823004787992216,0.2210478121755961,0.23722132983986732,0.21448619147296366,0.19433595969268902,0.19763250624923367,0.2151901716497866,0.21719531451222318,0.24079913678798093,0.28865682453082764,0.32914440061616457,0.3769820244746387,0.4071971647279393,0.4439899229739108,0.4628770773173274,0.44087889316355877,0.4342363894362351,0.4308324112445967,0.38756021287251663,0.3599148658540443,0.33090826166221365,0.2946678105203233,0.28391498687751726,0.2819680369281059,0.2638630368873449,0.25610247290884525,0.23117004097751614,0.1982777366867503,0.1671321840494251,0.12755551570401424,0.07704205055152702,0.015937358186986827,0.04301639941314095,0.1137169093228172,0.17540320032619805,0.25239170887662565,0.32991846035874595,0.4023359498859902,0.463194075515319,0.5400395034297771,0.6175745299721762,0.6940036002046583,0.7539301724258682,0.8276921403574353,0.9035391709487617,0.9501776995603275,0.9413004330038697,0.8829351539917538,0.818736852458787,0.7504030556878525,0.6791268858925839,0.617436051729253,0.5403076904265891,0.4657504214928152,0.40625948155507574,0.3301911241062272,0.252685938768626,0.18507727385607264,0.16083006552948342,0.13070050640972575,0.1264624918140531,0.14079854380047507,0.19470541221606608,0.23447220221798704,0.26021812814068923,0.2760336242708532,0.28134516219113337,0.2620989990752287,0.24060581599498398,0.2092998916578881,0.19405068470811004,0.1854554059212452,0.16634100690180276,0.15515014763920876,0.1705215589816853,0.1578822659578174,0.16293289670098376,0.1595889948196425,0.16812764502327537,0.16940597396006352,0.15124281976621168,0.14720476519895787,0.1351725975040141,0.16319319695551782,0.16546558650605592,0.16751025247367313,0.14593578675363883,0.13359917201217542,0.14802840691645702,0.13339416981164476,0.1356759919149333,0.1544761283649354,0.17093591649752415,0.18474409482888854,0.2312076834467307,0.2815767332331651,0.3221831855594024,0.36564424583505994,0.37055503185599603,0.3527909315090403,0.36372919543799886,0.35718551981476354,0.3148178375050139,0.2849771744260252,0.25469910565987286,0.21888755612292066,0.19498715551687962,0.19056175919932006,0.17368568973452714,0.18976703664855865,0.18257526927851098,0.16862675760044743,0.13854448892866378,0.10435502967202082,0.05553364615877321,0.0,0.010979252049770682,0.08709941883212702,0.15200491883006295,0.21991657527620356,0.29737794364936176,0.3741869889785061,0.4350672163035636,0.5074980024064248,0.5850075864089228,0.6557875414158425,0.7180622453481011,0.7951104328080336,0.8624469110370883,0.8869060442663641,0.8525969158106474,0.7880203028014505,0.725263599394617,0.6485294106377926,0.5867050539934824,0.5154183915316586,0.44115017713798954,0.38155571244864595,0.3054104655470442,0.23886252268795882,0.17324991465509543,0.11864569314769202,0.11871013735304814,0.11283690440421035,0.12619109264889072,0.1419688696831929,0.1982614624590009,0.2393141196143902,0.2684007974201199,0.3013068863302202,0.2958268688320467,0.27634603657643275,0.2450539815011461,0.22597406258558728,0.20738601676954183,0.19514873696102697,0.20934732350886298,0.2041841016665873,0.21606231650733987,0.20644381465198425,0.21641423757583267,0.23414672603358921,0.22793063520643297,0.23878875199841731,0.23889574827980242,0.23889574827979798,0.23889234007311,0.23600673234207203,0.2210561879860502,0.23676164409467226,0.2228040710575967,0.23274805857125003,0.22275134137728392,0.2263810540652269,0.24503408278618544,0.27023899450259226,0.3034198131188126,0.3514004632720593,0.3892290023813527,0.4208346469638471,0.4390416174993277,0.4250301805401038,0.41202361517279273,0.37205160664054304,0.33358964560309534,0.2919120418917114,0.26731268551993237,0.22547025252017594,0.21618918061716252,0.20771656774587388,0.20601053086013765,0.19401229896971284,0.18492114421367845,0.16571578546218024,0.1403468990676653,0.10225795315761443,0.056440375424851474,No
0.32312819395533987,0.36006989662942734,0.3820834154541548,0.37752775182998777,0.3427356849836798,0.31054899429600935,0.26847376091464836,0.23915446121639317,0.19529835762275205,0.16538286262418067,0.13079331557395824,0.11591188902479255,0.12575878649682748,0.09890678812073217,0.07690155156360357,0.07960592445040549,0.0936823726827174,0.11927312082654895,0.16823821886208945,0.2237119999695052,0.28171654919768185,0.3299048486175571,0.3914082868642925,0.4466806268333263,0.5150900718967621,0.585520963771474,0.6435055743105944,0.7079944340886013,0.7786882622073996,0.8418130550903995,0.9010379711809344,0.9654010604433658,0.9805305162649125,0.9406409065765717,0.8728041138500484,0.8174897386772342,0.748361278219674,0.67761320494647,0.6068647603927375,0.5361163158390059,0.46536787128527335,0.3946194267315408,0.32387098217780874,0.25363932788767807,0.19639265854637555,0.13098265608930593,0.06562284196369639,0.01425396872986573,0.015549382417422208,0.02834765272557549,0.015747864881844098,0.029951177604040424,0.0510541624332137,0.0858225786295641,0.12463823898892823,0.16253248991296365,0.1616802296987423,0.14414171725552016,0.12614337771374462,0.09560404079759577,0.07534082398866682,0.08962194315350214,0.09413500797449803,0.10971287091872206,0.11254335957032824,0.13802785999953748,0.14437614712487523,0.13205229494504023,0.14638583477291922,0.14817644437109045,0.13268961431455573,0.13094550650869197,0.1308602379204622,0.12227405759711552,0.1168007842298362,0.1317616485259019,0.16562035862031133,0.19523365820530225,0.23411055371825196,0.2717801765129422,0.3134311712402562,0.3412452856942383,0.3737225164369913,0.3682915197282597,0.34497402611815087,0.3263008640032736,0.2876441719955172,0.25669221023927413,0.22121980613314163,0.18130218987330426,0.16334096217341454,0.16783022262572578,0.15395138102204298,0.14885323725534905,0.13044218183337675,0.12293116592239128,0.1482630474927804,0.18347025173607312,0.2390080613062664,0.2915818684071607,0.34027089016517653,0.39360047932171005,0.4579958620967881,0.5142845645060712,0.5807600403871991,0.6491272235909364,0.7043847916721999,0.7736403732198629,0.8438690617820583,0.9003904477244347,0.9653125913593854,1.0,0.9762275532764972,0.9142639455552461,0.8435532261850489,0.7728047816313159,0.7020563370775843,0.6313078925238518,0.5606616342848465,0.4991864726306092,0.4383336187098483,0.36767125310849424,0.29692302639793056,0.226979791839935,0.17097558289958537,0.10957752470434601,0.07979522810839867,0.08159055940460114,0.09951987622235903,0.12649413433526346,0.13235726676091986,0.16595727118021486,0.20051696915977368,0.23365438029301133,0.24581855775913697,0.22332681335830884,0.18848715232488367,0.16085946957986863,0.13613769560008881,0.16098207114259022,0.16631159255928463,0.1515615252887894,0.16317338945819992,0.16165086238981408,0.13665104899199365,0.10857484312003018,0.09280157950649581,0.10143380910558131,0.11440939725205412,0.12232965040358623,0.11171154859176724,0.1052623173003675,0.10235948939397677,0.08100397448311414,0.08706221830865069,0.05811754146146342,0.03566405578633658,0.049518011693822306,0.08869158962719226,0.12696657644385612,0.16397477395096605,0.20298593363273554,0.24430284916732248,0.27737020557862513,0.2829987132972689,0.2577061909671454,0.2379863100658075,0.20919056948582204,0.18875136656402436,0.17150236026701604,0.15561140794418726,0.13078806055038683,0.10272463616977356,0.07171558616145868,0.05508132977642255,0.0504045396697701,0.03691278338975934,0.07161426465569365,0.12071313563493735,0.16674278965515432,0.21145819078383088,0.27751400266950554,0.3327358698012701,0.40133230159763755,0.46171933583931324,0.5236806503780058,0.5936895920703056,0.6491713436965147,0.6929075311775317,0.748659399396717,0.8176291166939049,0.8729373305628996,0.9407748289793405,0.9779452132315374,0.947353384795409,0.8813528440685339,0.8106203079511425,0.7447268651708829,0.6880363052671665,0.6177199401899212,0.5469714956361891,0.47623969393575694,0.41162314479391204,0.35375639126076885,0.28333485622083154,0.21268529946435466,0.1510833153185227,0.0903672649692644,0.02618380409508747,0.0,0.018908140803734153,0.033888019369540334,0.0470666334790697,0.0738052405535301,0.08520812087828622,0.10668151033869444,0.14626737676284263,0.16694735436185804,0.15559402611033102,0.13821820253109562,0.12350593926648434,0.07981892161532622,0.05665646569162375,0.057164646515184714,0.08360556989188739,0.10116633580866541,0.0967134550718396,0.09223491538420303,0.09226708814255158,0.10068819992608402,0.12727822242238096,0.13033124442285215,0.11645478818076604,0.11159562893468866,0.11148990505078427,0.10240120109562012,0.09775805181086339,0.10530867332715532,0.09345095512867418,0.11825651571027107,0.1437718095969176,0.18837743727111,0.2287879677511051,0.26131505055960424,0.28530874051344357,0.30360835505385664,0.29243071191814796,0.25323709264548766,0.2160477835648762,0.1847899677979603,0.14814692895118053,0.12197287861370931,0.08893682328324859,0.06524523575651653,0.048784519193144416,No
