0,1,2,3,4,5,6,7,8,9,10,11,12,13,14,15,16,17,18,19,20,21,22,23,24,25,26,27,28,29,30,31,32,33,34,35,36,37,38,39,40,41,42,43,44,45,46,47,48,49,50,51,52,53,54,55,56,57,58,59,60,61,62,63,64,65,66,67,68,69,70,71,72,73,74,75,76,77,78,79,80,81,82,83,84,85,86,87,88,89,90,91,92,93,94,95,96,97,98,99,100,101,102,103,104,105,106,107,108,109,110,111,112,113,114,115,116,117,118,119,120,121,122,123,124,125,126,127,128,129,130,131,132,133,134,135,136,137,138,139,140,141,142,143,144,145,146,147,148,149,150,151,152,153,154,155,156,157,158,159,160,161,162,163,164,165,166,167,168,169,170,171,172,173,174,175,176,177,178,179,180,181,182,183,184,185,186,187,188,189,190,191,192,193,194,195,196,197,198,199,200,201,202,203,204,205,206,207,208,209,210,211,212,213,214,215,216,217,218,219,220,221,222,223,224,225,226,227,228,229,230,231,232,233,234,235,236,237,238,239,240,241,242,243,244,245,246,247,248,249,250,251,252,253,254,Target
0.18185244552735824,0.184770589674069,0.2327796282012553,0.31304649567456533,0.4134340596357502,0.4979992478709443,0.4609478269127303,0.38605515250759215,0.30348690946463375,0.2200676041042895,0.16145474700216145,0.12903737622791578,0.06275598282229655,0.015225740489785977,0.0,0.0024027034562443816,0.04709792068571694,0.14144317124870032,0.2138022700963953,0.28528609007832006,0.35794917495747125,0.4064612243803092,0.4149228085696981,0.4824427563555789,0.5415050208717496,0.5213581693170477,0.45454366359339815,0.3872496424330967,0.30911355747442304,0.29564778849427764,0.39098428667812524,0.49170725329313214,0.5904911862109747,0.6673106764249486,0.7585385354604455,0.7954823910666873,0.8367304661661557,0.8707164042045896,0.8801545634388148,0.8891513110007159,0.930444642620115,0.9464704465080942,0.9699250835008639,0.9712256421197303,0.9725412921289553,0.9946876170052459,0.9769432244507499,0.942301194786026,0.8760015463777311,0.8191018166691215,0.768323343043388,0.7056266246196321,0.6527948686798366,0.6027661623021858,0.5775099205976826,0.5953353405986057,0.629013991473955,0.6625173978014711,0.7018523009495308,0.7278213158174411,0.7283412424365645,0.7288516797134905,0.7484694161379712,0.7390229517287841,0.7230725972982572,0.6994914699937151,0.6949307618794176,0.6707828329425665,0.685297003460593,0.6716965572475884,0.6835318994237563,0.6978720421077922,0.6979897939879933,0.7048979943997669,0.7273633166453601,0.7283411878117976,0.7273203400413077,0.6905924497148908,0.6575189907297245,0.6070652469077551,0.5788355490519912,0.5773197828949979,0.6012451623718729,0.6403574412819939,0.6785308598938959,0.7262272565149512,0.7824571359113941,0.838443077444305,0.8497632753162705,0.8497830877744041,0.847981827641723,0.8137597969789985,0.7501804151585185,0.6541301196330949,0.5779414626834072,0.48232276967072263,0.40408178431010544,0.3185797199219431,0.24014105335561986,0.17002822502123482,0.1564901891567798,0.21978722211430135,0.2971565149283526,0.39669690089405485,0.4974210203960103,0.5955799908170745,0.6717659545618755,0.7490300159033936,0.7757453141653876,0.8093875703967885,0.8418885648943641,0.8576622158889826,0.899219907102875,0.9326713646939337,0.9479526955096009,0.9702939651922788,0.9721109351119903,0.9950890189740162,1.0,0.9735408909475769,0.939269229768982,0.8835445661789256,0.8252480573717742,0.7652285707974906,0.7022747443655959,0.6496706999756041,0.5901424284429044,0.5543566608257313,0.5505133430419846,0.5974193902082359,0.6257456947986615,0.6673273514046141,0.708782341528102,0.7285523921081571,0.747478047235453,0.7586784196467757,0.7541846666642646,0.728636847300014,0.7022190878082961,0.6979850808500379,0.6979806481633366,0.6979806481633384,0.6971410453421418,0.6750917446233302,0.6676416776818943,0.6734336811543518,0.6829760575233923,0.6599588893219845,0.6149958508225035,0.5778839719496016,0.5518957779288218,0.5474601362590574,0.5712163273822277,0.5994100361649295,0.6410352972290916,0.699922731430795,0.7641586340462814,0.8107481627585642,0.8074945568583463,0.792496753235798,0.8178843283167527,0.8388695153995522,0.7993073786145137,0.7236863982448227,0.635581248910019,0.5407635005757294,0.4633442069025877,0.3743677645029502,0.2943524513428404,0.21965529864515876,0.16334269157276982,0.17123286107967584,0.24312353549962662,0.3431193607350549,0.44379753100578156,0.5327276337271583,0.588700692283739,0.6648485289094808,0.7265510452349195,0.7774360358535954,0.7387216576320528,0.7499314033788291,0.7984797222938687,0.8340592676334504,0.8525282063531501,0.8813307812625775,0.9147822605952616,0.9397389208494191,0.9527102408004451,0.9905293515521025,0.9737588832704764,0.9819130972083334,0.9907407404091799,0.9444325612251205,0.8940667001039424,0.8413344169515593,0.7863827691450576,0.7292537646776269,0.6774301521615325,0.6234154788458932,0.5635229835813593,0.5463847348309967,0.5633379174063862,0.6053182944413731,0.6472828416385497,0.6973143523025742,0.7272154211398334,0.7283411343020081,0.7283412446664093,0.7288602590578819,0.746846892649482,0.7318310652212583,0.714929681813139,0.6979546857803607,0.678807012806196,0.6841628433974263,0.6978720280573949,0.6887715032812611,0.686414564601745,0.7242327023076225,0.7279038659866153,0.6941526641624218,0.644152766890036,0.6167397006692399,0.5798010459356364,0.5856795396157874,0.6105863818259367,0.6504428547836127,0.6880937584517257,0.7405960888013636,0.8027212653274587,0.8470912161022062,0.8766654495777226,0.8571444782413087,0.8225729821480634,0.8498703104943353,0.8694894256425787,0.8104982454111056,0.7356485702509028,0.6437608078733801,0.5677638400942273,0.4701523677372812,0.3877406017546061,0.29976128771909494,0.2218753988013349,0.15696678292932287,0.175259546535516,0.2668325230607058,0.3469095587460238,0.4385042732601052,0.5392128149859685,0.6399384144371902,0.7403727287931678,0.8071983897849817,0.7904573737858236,No
0.7831189916936525,0.7383274661827492,0.7281117621361561,0.7194654122503827,0.6948955239670918,0.6653220249239125,0.6114085920426646,0.5468666337078565,0.5286463952983906,0.5140434226515529,0.4963758992182372,0.5252807760950251,0.6045376530099098,0.6779279300694956,0.7250957773025339,0.7576934907641224,0.7882721010833267,0.7664058712098711,0.7641687029219746,0.69346434524783,0.602345624176535,0.5135694677613909,0.4266053328897339,0.35950253182510306,0.26881995488907773,0.1793342420808708,0.08013147759169925,0.011666914180685772,0.0,0.0625822827953213,0.16921762138888585,0.2526240573645895,0.35380033705056224,0.46224176065026246,0.5695994239834388,0.6528384254459407,0.7543622701278307,0.8628046165406733,0.9691913019419154,0.9827166681923911,0.8960200400744025,0.8235991126728353,0.7542484099291737,0.7035733637521213,0.6616638567293398,0.6294037508671959,0.6245469399779795,0.5978320341917227,0.5877209644573558,0.5671976984280462,0.5811294636292166,0.5459554015833135,0.4940901187911937,0.45316959507110255,0.41581611119775275,0.35517650301265213,0.3087335295551705,0.2426612730577169,0.18606002405799238,0.1406201702351213,0.0980364924712438,0.11141108980047942,0.13772585236603163,0.1763585335093607,0.2549342358447211,0.3274031943824891,0.39136830950657053,0.4466785787663534,0.49929273481962344,0.5354149976190863,0.5884179693754374,0.6198474412764563,0.6007987553604321,0.6270021313549083,0.6463018085316845,0.6341357712971494,0.629608764188287,0.6623623817813487,0.6777514902941464,0.6658907699501135,0.7075783331073708,0.7267597479832775,0.7026895393260757,0.7182600388440603,0.7280967474126827,0.7365412437147407,0.7604712045581614,0.7610281165321311,0.7349556832692681,0.7068661945926547,0.7487348890480252,0.7408252408008158,0.735210555432471,0.7601439875062628,0.761327845267,0.761327887474387,0.7602965954898782,0.7290722951185646,0.6752352165754756,0.6323554553634603,0.6220013901062007,0.5547247246585876,0.5297143673176796,0.5754026021921588,0.6356557188080414,0.693044401155988,0.7516047832819623,0.7681396186189176,0.8119366327397595,0.8313070031218901,0.8466427632877274,0.7807773881247098,0.6890362363899722,0.606466184860218,0.5201718457909728,0.43697166022404677,0.35495036443849415,0.272576861153893,0.18649041314653925,0.09621871905358503,0.06757805175402254,0.1343877189847973,0.23630974833632568,0.31897771587920687,0.42600496675812227,0.5344552840856966,0.6426300522381565,0.7327715849134551,0.8266535567113573,0.9339171723302657,0.9744812178275621,0.8977943201180523,0.8150849880246493,0.7418616782201175,0.68424233551782,0.6364572971198026,0.6097359237461886,0.592006175536806,0.5647931219309301,0.5439337598307272,0.5007256587735789,0.5013155977227424,0.5120057408185774,0.4677367249498179,0.4246862198720036,0.3807071976794205,0.31209207332922784,0.2570286511802031,0.2075816528930936,0.1500119596323719,0.09930772389302422,0.07829380070138026,0.04266382805065927,0.03252328473355792,0.08133988242126655,0.1528919617295319,0.2100419313837989,0.27589461469800103,0.34772245633204335,0.4058687384325772,0.47501011810105354,0.543679123044118,0.535608804206122,0.5338527680448903,0.6003674088329323,0.603853005429019,0.5951460446866363,0.5858522790726699,0.5628498743264823,0.5808653994066928,0.5951320744170454,0.6088664753413022,0.6154434429960576,0.5990342029935922,0.647412953377752,0.6584924595002342,0.6318376132811698,0.646864253981712,0.6343943621045325,0.6535511791706519,0.6563563499454173,0.6336532327592419,0.6631616556585529,0.6806941893420584,0.6383381044151957,0.660444492646934,0.6945296405498844,0.6948498830485335,0.6948495992038595,0.6926966207559015,0.6425089412173186,0.585861358625027,0.5623026058601175,0.5535494901105968,0.5096320252654323,0.5242164569392287,0.5606955408132945,0.6190548221806642,0.6743927730100561,0.7031239081402187,0.7477022104411626,0.7654880097168499,0.7804204381524711,0.7218953109841255,0.6423558585773446,0.555587812034049,0.47312149006479665,0.4241319753375814,0.34281825010177336,0.237724906705294,0.19895060068512205,0.23708367495317262,0.3303945193816009,0.43757468731503124,0.5207106521540252,0.6224482993638629,0.7301173987421983,0.814270635698727,0.9145129632153672,1.0,0.9448598408775002,0.864094704285427,0.7886164922247305,0.7163480169417475,0.6568588340140975,0.5947554569237123,0.5476275354312401,0.5289067603781099,0.5190439398033764,0.4826733472896354,0.4374030846679684,0.41073558379625297,0.39574011328473535,0.3825527697311477,0.34041610203557493,0.2953692170459359,0.2553752070714035,0.2012144300954315,0.1486413994382474,0.12097666761101156,0.07183845223411645,0.033415437215155386,0.06172109837096862,0.1091836919135325,0.14704600005877744,0.19965374868748764,0.2545032191347101,0.32263131246473264,0.36987500060376277,0.44159014837305044,0.47362132061771245,0.496283058885723,0.5171798332827215,0.5073498042203628,0.5280856603143933,No
0.1493111879294733,0.15130908021441547,0.18889853217518926,0.2524766485947496,0.32855425785556625,0.3727635251960182,0.43033949879638334,0.47159452356762177,0.4702370848136641,0.43248720624798764,0.4319558690863117,0.42420420850903184,0.3592864613189466,0.3046324392815154,0.2344121315077654,0.17472299208676434,0.11998813492969207,0.056589637406737836,0.016194374878466533,0.0,0.0007438464721509774,0.027210869702651408,0.10159530372204228,0.1635364986536354,0.2194618639697512,0.28049230314075535,0.32969232517774794,0.33274913869327216,0.3803057189634149,0.43903309135779045,0.4754343950343949,0.5025412690371986,0.5316785656718994,0.5703102842815677,0.5774520453511296,0.6091196062659328,0.6044967394041243,0.6074601472682946,0.6242779229689766,0.6398357371746601,0.620079118141406,0.5994751480532883,0.6029691136867679,0.6215437322713506,0.6037287015626531,0.5838922765063521,0.5865228225075039,0.6189786082464441,0.6221592225007284,0.6025341209361632,0.6224493918833125,0.627901544991055,0.5972282007838223,0.5587102647057409,0.5390973860512234,0.5123204618734056,0.49895113052741946,0.5094699330919537,0.5295611254238071,0.5652975502206039,0.6054067775039553,0.6278456120919276,0.6624549191772124,0.6936723351375194,0.6777195276036374,0.6925936614529937,0.6983939201069629,0.6984015465977964,0.6984015465977964,0.6983975715838766,0.6939593403458582,0.6747197544788199,0.6874258739170762,0.7414064820316413,0.8105101343226022,0.8744585584880453,0.944800910582559,0.9999999999999996,0.9619113675642823,0.8808935349746974,0.7995059465000174,0.7283194883234549,0.6612938765476719,0.5801169700104407,0.4986831634808637,0.4173622978082405,0.34869160082036776,0.2792788752269568,0.20758244983805296,0.18329622570622073,0.2182126458777227,0.27958395377857714,0.34168087217543386,0.40349374027940543,0.46577317552476005,0.5204690328767438,0.57454472169213,0.6190356700449615,0.632582148721553,0.6482878208526421,0.6484841854659007,0.6483278613082297,0.6337172868931167,0.6071934099861127,0.5943952429087802,0.5621922030498179,0.547001667212053,0.5263519642456731,0.5226898830881805,0.5035467647061629,0.5023575903826161,0.5361034884117042,0.5716211878472222,0.5992803460134133,0.6442770240788973,0.6777876943361503,0.6964196162970944,0.6776506601415364,0.6843561547418697,0.688094960800568,0.6735541934291613,0.6590175348460678,0.659860441567806,0.6627275144018996,0.6492021059223618,0.6663451391192381,0.6734320176496253,0.6734448680972398,0.676125062884743,0.6966855388182194,0.6983969080836139,0.6936869145632616,0.6595196211505177,0.619153612003426,0.589341150200402,0.573908183166036,0.5736082447891326,0.574608445881426,0.599839439262682,0.6404134542384052,0.6811149830839169,0.7218510476965467,0.7606943382176694,0.7678825491502592,0.7586775007001738,0.7731006266684513,0.7752381761412317,0.7952229294181596,0.7963718333664649,0.7633808013810586,0.7140738486259379,0.68360447590165,0.6517912526551757,0.6626126121068006,0.7043428262505853,0.771808218488442,0.8327323337173858,0.9067948089007642,0.9656162365227803,0.953849777919832,0.8738463056115466,0.7924125767295398,0.7109787640594649,0.6295449513893909,0.5481145767513378,0.4709182404909673,0.4088798521691315,0.3305741031122591,0.27293546003875013,0.23128803965304412,0.24397942408452922,0.3049676388579674,0.36159125073339293,0.4043129059178363,0.45815200657645416,0.5165463757023869,0.54863383293864,0.5535444717846096,0.5486595543521582,0.5460591416041534,0.5257663853785384,0.5111388182447967,0.4988302730804004,0.49817868573084123,0.4803884752524725,0.46082131088280986,0.44711941086094464,0.4264661579706752,0.42591272210994546,0.44650972141527046,0.46794646378993754,0.49496951179594273,0.5268964850993316,0.5569802508515784,0.5734141911422515,0.5793152489067181,0.5977736984193363,0.5985667807562947,0.5985667617405634,0.5977017855467461,0.5790079545302915,0.5719478247530101,0.55263083023454,0.5773979536636467,0.6197502983133902,0.6235288986358927,0.6285162313437822,0.6475253394646692,0.6512185848788188,0.6714600535663764,0.6522775992734471,0.6016813140671462,0.5549359307445241,0.522098775835111,0.5010901625472353,0.49873610620099695,0.5018041615042024,0.5374851774519489,0.5741114723312228,0.603295074881022,0.6438790150421352,0.6721634982597364,0.6870680495767645,0.6928595532050399,0.6723974304141573,0.6560746404160276,0.6724719152706418,0.6734428531566254,0.6741893998799484,0.6896807726673786,0.6637736938111218,0.6607562646077443,0.7198812068987084,0.7744532080154349,0.8431760030141917,0.9078067466180006,0.956514436727637,0.9156914438508266,0.8365538084797071,0.755121371648658,0.6736876358338315,0.593172719750219,0.5306087930868544,0.4543394765938009,0.372976387820672,0.3025134146126498,0.23638407269260764,0.20002368835290119,0.21838342052814674,0.2929115296219278,0.3657265619787835,0.4272153838782131,0.48297985341480176,0.5369430974943694,0.5785500877431811,No
0.7871997213045872,0.8095274696054735,0.8454986851304025,0.8841912982506048,0.9161681787595028,0.9206834518599527,0.9237151601280724,0.938708421540764,0.9048884681971019,0.8522864920835749,0.7895944564233999,0.740755234968846,0.7482804333883617,0.7154596636917072,0.6718862369726077,0.619518790918794,0.5730745935581141,0.5236619654619485,0.48689046493334653,0.4728053050272274,0.47768675066026245,0.5213170444752013,0.573924865773116,0.6201192629371579,0.6645304962135155,0.668867985186006,0.6232341398185623,0.564730961180494,0.49971819292089337,0.43465029637070596,0.369582399820519,0.304514503270332,0.23951051231776632,0.18127088381788536,0.12461732301058182,0.05986209270805243,0.007500603459911659,0.0,0.05024029432293409,0.11514220764051153,0.17395506560020846,0.230017975292218,0.2949332100225017,0.35999564973440834,0.4220293939824693,0.4605742842789875,0.472098380820565,0.47245079501802745,0.4872215702282523,0.49815041613726074,0.48169852684317527,0.5106859588850237,0.562868479384582,0.6002778637872563,0.6045203305154947,0.6214841269963169,0.6209520013258893,0.6535041885881328,0.716260447912618,0.7509028412085634,0.7566154811801729,0.767688843252982,0.8231238416424944,0.8826045553651489,0.9376038996576186,0.972825152565777,0.9441696532234205,0.9217431367974285,0.905820142650503,0.9028594023932233,0.8814624378957372,0.8739692934879553,0.8630384673567686,0.8454409316110609,0.8217570876405118,0.7913990215002407,0.7683421704573881,0.7553976486767906,0.7613361934920191,0.7871905263727192,0.8149812557669118,0.8437333261416817,0.8638619573460631,0.87204077020076,0.866610700214477,0.8643875227673055,0.8588795105307943,0.8614673816884391,0.8733942545630262,0.8742983177796948,0.8749123020236522,0.8861206752264568,0.8954026869626277,0.9000339134495519,0.890055914064962,0.8860842506162256,0.8587008823846272,0.822175597773324,0.81249369498629,0.8067188123681712,0.8079429516195169,0.8411500120524356,0.8713266806549684,0.9088872202335805,0.9279399895946809,0.936047215245914,0.9385435699976779,0.9367819976619909,0.8908742678559596,0.8269976692252008,0.76202453421256,0.7045403212061101,0.6471584115310935,0.5821900841681444,0.5171221876179575,0.4520542910677705,0.38698639451758354,0.32191849796739613,0.25685060141720895,0.19178270486702176,0.12671634256747932,0.06357596698890555,0.019010525024598657,0.020068306451975326,0.06537325341492872,0.12849107045418884,0.18426674502774842,0.24341566995490704,0.3084561745432226,0.37334371527022836,0.429700541353647,0.48824793172122427,0.5532642811351203,0.6183321776853064,0.6832090885917939,0.739424510673617,0.7944419107015743,0.8360090978257608,0.8930676843648524,0.9472993289080047,1.0000000000000002,0.9824095249030609,0.9580765848124273,0.9452706769289831,0.9325184924861791,0.921236404941171,0.9156580709857238,0.9027301881728997,0.8827523611163064,0.8537122603480325,0.8348130977587689,0.813559201233131,0.7980628149379239,0.8022922937755876,0.82682071161016,0.8522614263489456,0.872541275498979,0.8892654745532538,0.8979838094268537,0.9046069362376794,0.8946025401001856,0.9005687210410105,0.8908844665972409,0.8966429280492061,0.8916013709882276,0.8959795081882225,0.899270762502417,0.8800935924682742,0.874319940711308,0.8699562328251582,0.865574009352678,0.8674637674092842,0.8424880216435551,0.8177958778324712,0.8044408365085209,0.7983277238844944,0.8182082949471934,0.8419662329524289,0.8771960825176437,0.9038995238725265,0.9052260466833759,0.9068425959816884,0.9082390406795569,0.8655046693903523,0.8024364997272733,0.7373706501252506,0.6723677826691687,0.6141561325208971,0.5574755958296052,0.4925625435333536,0.4274946469831671,0.36242675043297967,0.29736028879346854,0.23414193931824245,0.1813065582398512,0.1176649006904873,0.060717106515637775,0.04266599698341422,0.07290123157873407,0.13460183293019923,0.1996660474127534,0.2647339439629397,0.32980184051312755,0.39486917689626266,0.4587021860518965,0.5115023006767643,0.5746115806956407,0.6396318436810595,0.6987119077104047,0.7545145853258484,0.8188562728670352,0.8728729612121502,0.933778477887153,0.9730275701890141,0.9433131924044356,0.915464009187638,0.9054292998890314,0.9052050419163471,0.9002965528469267,0.887428476807907,0.8751574170153427,0.8655421703276913,0.8402211419716907,0.8138773178576459,0.7886588759750415,0.7835774480823148,0.8016155725250542,0.8257943974015178,0.8488299534837711,0.8722975767889298,0.8830030722741091,0.8942675451583304,0.8854953191130523,0.8848188704188031,0.8800644720272375,0.8745287697376833,0.8833060797165626,0.8900162082698377,0.900253836647136,0.9052048523101279,0.9059960867202494,0.9173906929048903,0.9120024507993663,0.8931944307017925,0.8621526492973703,0.8436992680655842,0.8314755073748146,0.8163142275323836,0.83194455779916,0.8675110348383093,0.9076993459658442,0.9348052276255114,0.9426651771150067,0.9516105839696254,0.9624969008025823,No
0.913654357942399,0.8800293712971219,0.8589624052826781,0.8574945123972655,0.8355219215050895,0.8213398397962339,0.7744953681739024,0.7437647146851387,0.7016200357372235,0.6273214783705581,0.5659411935700036,0.5054186142273145,0.43374674627357424,0.3571882590350408,0.30412736327840983,0.22691666346108574,0.1768473691144563,0.14502728595211556,0.14170478109787377,0.1508603848952883,0.21367150383360078,0.2968330336772138,0.3583859808637153,0.42545838469428743,0.48847579413598163,0.5273433908706768,0.5351541046103043,0.597256085600192,0.6531114839531642,0.6859858048405338,0.7349355848836301,0.7557460077688707,0.7870598412163514,0.830783411266649,0.8446100245410295,0.8301127981422485,0.8304362341667297,0.8491434806283782,0.832856699134974,0.8298911829907119,0.825110420582734,0.802823550892446,0.8111052137674934,0.8296931183669458,0.8272167919734881,0.8053572367784487,0.8250421614832004,0.8286975058329351,0.8062826629240969,0.801220668963667,0.8012151498486237,0.7977992142764356,0.7748070286804505,0.779526644688072,0.7801396145667767,0.7917965258293305,0.7705014546604336,0.7133711231181237,0.6274098812481195,0.5604926938280737,0.4950518896822156,0.4345609187137103,0.3720124863037273,0.2852738571388058,0.21446014857027906,0.13212315216325177,0.04292909442644888,0.0,0.02371335541717068,0.08987687036271685,0.13816301255636754,0.2186627361049278,0.2919759275173459,0.3716145609020356,0.4622110323850417,0.5482667078480223,0.6161080578007474,0.7035021822596561,0.7713812882532847,0.8449828805548099,0.8415948266135884,0.8299154814868186,0.8196213970759634,0.8018854960224027,0.8129324977413925,0.8053447776644185,0.8386100067625537,0.8798093615317986,0.8872372312148396,0.8831820322898891,0.8626015588231026,0.867792333729001,0.8260430486056403,0.776567148631075,0.7720440202157701,0.7484571462202241,0.7175847970306894,0.7334482288050528,0.7637616863708483,0.7970420811978367,0.8285181855273671,0.8457491195587914,0.8823152263837648,0.8897238552599194,0.9134977842353611,0.9363846196497891,0.9261330743936678,0.9159810687868446,0.92284625549456,0.9437908629404164,0.9474468640146143,0.9743987620622465,1.0000000000000004,0.982535768419353,0.9724754771790507,0.9503157641529971,0.9215167571757115,0.9191413177475849,0.9429254974577446,0.9497557730063781,0.9721024965379219,0.9732761263307848,0.9737226792125866,0.9913339613035439,0.968671826422622,0.9134912529471912,0.8296633057677361,0.7619657881398072,0.6875973925786139,0.626940340030298,0.5568614630468658,0.48686692668930176,0.396827103534362,0.3183640095029472,0.24507130316116355,0.18360081628847036,0.14909057804931125,0.18201842582982986,0.24246845353878532,0.33176257113489926,0.4224032803097413,0.5130439894845833,0.603682660496331,0.6902473610360054,0.7576844702169807,0.8451440242451018,0.9051205193061418,0.9410923645826199,0.9376636093041824,0.9165955721373353,0.9260594317680773,0.9070056099438735,0.8748203676532706,0.8675192837832264,0.8800814404360762,0.8633471687903858,0.9049903089042375,0.8891245919938657,0.8660289009034563,0.853021525114285,0.8315751717089452,0.8429259410376839,0.8093956121871337,0.7647628906829858,0.7442302962239844,0.7462876388444335,0.7793229031349083,0.8245784971783743,0.8578291481795968,0.8824433119057367,0.9173792324581593,0.9437363937159149,0.9445929004453961,0.9375489981910321,0.9165959052564676,0.9294066158086731,0.9592896342854291,0.9602089693896274,0.9474694276219737,0.9636848555043058,0.9282043880004287,0.9380701056427836,0.9507352281771344,0.9675697377122368,0.9449559370702239,0.9206211761459246,0.8991574934260869,0.9138322900158093,0.949190692088512,0.9742255497169903,0.9924035157904538,0.958900534646713,0.9282404799991197,0.9376452838074543,0.9439716441914023,0.9184920633312923,0.8481072248582415,0.7799075801915341,0.6962857606203143,0.6316106290982497,0.5679507023717476,0.4916775926798871,0.4179367643709706,0.34224848233058447,0.2741128231091241,0.2603378747909537,0.3031962594364983,0.3869502627610468,0.46152579089485224,0.5398735933352605,0.6273759079478674,0.6941666433018274,0.7819524168740668,0.8489212125474332,0.8881813772336185,0.9064967829598669,0.8884144200240605,0.8873006663760354,0.899304930326895,0.896038888279231,0.8872778257674958,0.8872461728335792,0.8870966074643252,0.8701897592571446,0.8403450746667294,0.8197385624450262,0.7973682159482371,0.7692062036141265,0.7452806248717727,0.7542629483769381,0.7763537945675085,0.8050325527286737,0.8354463103606142,0.8741731127470973,0.8876344271530372,0.9069262278017338,0.9156835392558409,0.8969972897340646,0.8937088966025697,0.9311187063054684,0.9388221926938809,0.9170283580434444,0.9081282073302694,0.8691206658633006,0.8647447783755973,0.9020434282460426,0.9157233759194123,0.9004359437291396,0.8856360974997375,0.8617574404532085,0.8602030026630456,0.8975436272959949,0.9022820581483226,0.8860542988851523,0.8627591576785973,No
0.5904974528814257,0.5981392972332267,0.6374769984580375,0.69541678957204,0.7311213377757384,0.7285071983446416,0.7478382871977214,0.7811229109766611,0.8219553468926888,0.8620396863008981,0.8937828267692751,0.9095070453729699,0.9209210122883573,0.9189394431258244,0.8795818415171777,0.8257266068267315,0.7811256134709161,0.7574068353175876,0.7005311981314333,0.6386096952182307,0.5766910505595124,0.5201667600500834,0.5005095277996823,0.4785672988224614,0.4200634055448993,0.35851570037194036,0.30690990520656536,0.24944051384231414,0.18753098441076532,0.12570957447967124,0.07205297705072189,0.02464003332148823,0.024834608427727334,0.0722761293137637,0.12600512832483468,0.18782872613407364,0.2497374126937537,0.30714222145917414,0.35880367522668055,0.4203612658095719,0.47986418615689486,0.5290413074361644,0.5701830128448035,0.6164862742288726,0.6691394909835657,0.7204726403781763,0.7637680906166167,0.8062001686783895,0.852526493001017,0.8929954874037396,0.9109380809068908,0.9232252959916161,0.9240931584290188,0.9133395862471718,0.9013380066709784,0.8854713066602806,0.865145035329598,0.8446646473010251,0.8337457980206557,0.840466185435365,0.8505659173075428,0.8774551422697621,0.8937214863822316,0.8937924746924497,0.8835236500124619,0.8789090027172906,0.871490131461985,0.8733053536595925,0.8789878022176256,0.885488013024152,0.9043732300952252,0.9153634843915088,0.9119554952386189,0.9132613840082557,0.9179142802009053,0.9171851556709321,0.9100191867388832,0.8754309163709451,0.846055858203917,0.8184678730426778,0.8064694709259612,0.8345442058983839,0.8745927814305143,0.9013788752733101,0.9311249412756233,0.967565601748642,0.9887933842390795,1.0,0.9957281433053327,0.9603672796822309,0.903290252047583,0.8454246200560869,0.7941535721663948,0.7327113368758678,0.6754981313197623,0.6237380652855866,0.5620900723287989,0.5001597938813047,0.4382727476058772,0.38243703078313684,0.3293656065682946,0.26762350797989853,0.20570370185819575,0.14765862411585573,0.10288099524253003,0.09631126184162841,0.13656412931554462,0.1914716130689995,0.24452821298179006,0.30632904265395955,0.3668443995417847,0.4167442110438797,0.47693700800914884,0.5387266457024071,0.5925660485393132,0.6476092457490652,0.7094719737146593,0.7705443110987136,0.8181365191119734,0.8594799936995456,0.9007362495317901,0.9440669996897548,0.9796998216838317,0.9720992620683444,0.9335087949412348,0.9214231231409427,0.9034405906509688,0.8870546013327067,0.8642188142193468,0.8337619211488607,0.8075031184568497,0.7986173314144995,0.7882346762609855,0.7908844452795232,0.8036388018937966,0.8201711143305825,0.838016661341257,0.8411253134092642,0.8528031147394506,0.8634087148163458,0.8686038307141106,0.88092162974355,0.8938796384875727,0.9065775775480636,0.9161465244469036,0.9372334735566819,0.9460931334709692,0.9547787321001717,0.9548662472259521,0.949016286197427,0.9326565344485398,0.9038950462085826,0.8671991585831571,0.8345770291678871,0.7990605970533933,0.7669262617775758,0.7661130213018534,0.7992866735912401,0.824740209144418,0.8542346138265455,0.891054553579953,0.9209662204523532,0.945302946979484,0.95474450813288,0.9438407310175854,0.9002479273618942,0.8431332957536934,0.7812279806814884,0.7192977022339937,0.6578926353222845,0.6071217191888638,0.5486835888421608,0.4867614163325862,0.42501450902099114,0.37229554181301094,0.3161178024253628,0.2542251304311802,0.19229551788894717,0.13172805284101474,0.08169671260875067,0.02384273726939723,0.0,0.02977044550428265,0.08097570943581367,0.13753172828614169,0.1994406533430153,0.2612932238643968,0.31611005403847625,0.3701445899226059,0.43197451157402833,0.49194485416734457,0.5419870907698425,0.6018250447077915,0.6523619304478343,0.7112596721840432,0.7702086845951523,0.809815482434932,0.8525652877095631,0.8986798839257046,0.9308161202649781,0.9396114072367681,0.9396639163122367,0.9334157151079836,0.9315428342081185,0.9224074690631263,0.897562061567799,0.880684858952558,0.8789782469556182,0.879019588951305,0.8861876995153208,0.9074156509710218,0.9210539201726968,0.9352660999711273,0.9254154169788493,0.9242405325545828,0.9140869941240335,0.899661801283536,0.906027935652165,0.9145439645061408,0.9267687152891564,0.9387851946032839,0.9397156986766939,0.9397158999968895,0.9397714670778967,0.9457159701550375,0.9337545243644647,0.8976535711300118,0.8695422257278791,0.8470627837242479,0.8363973989793947,0.8644116320262101,0.8885743130635553,0.9190860017860452,0.9580825046754411,0.9886070703764926,0.9916470555117165,0.9852936430068531,0.9787597747836969,0.9413577702246223,0.8920270570883786,0.8310091441423166,0.7756780096326317,0.7221178717492038,0.6603448410195711,0.5984145625720783,0.5364842841245836,0.47455400567708983,0.4126237272295965,0.3507113586693871,0.2940101427431603,0.24177651338875306,0.18009273969815975,0.12119312512627323,0.08201213315232714,0.08531705352745012,No
0.44282457292673305,0.4441111510876108,0.47113823154280654,0.5173592124215678,0.5744031678184394,0.6067962049038345,0.6448133915201182,0.6658567854500266,0.6987796750628474,0.7381185730616715,0.7722375038026588,0.8083509097985151,0.838415415693377,0.8663900241342386,0.8855223550763718,0.8890178765790107,0.8749932370347575,0.8699121312410623,0.8486331089522103,0.8270066868719042,0.8263571553784574,0.8327557135429302,0.8176073788926437,0.8240896170641099,0.8337417222015149,0.8338568614605109,0.8407470126611902,0.8463195929110512,0.8341248775456425,0.8338244746480674,0.8327787142680996,0.8175271214221689,0.8152069392997099,0.8152054207173154,0.8152068907050745,0.8174812037491912,0.832752952759396,0.8340247757900534,0.8449083564736752,0.8524109950255276,0.8529973988739958,0.8672022074797798,0.8814025607631835,0.8799331754932398,0.858815187647648,0.8234114181086372,0.7944534839687787,0.7773543514629613,0.7580604690312627,0.741732437802519,0.7564037555059553,0.7812329051243756,0.8203959008407096,0.8508899473451677,0.8649884960631669,0.9040947971886957,0.9185855732408599,0.8952631115819156,0.8361244754277632,0.7761054074627425,0.7160863394977222,0.6570357473865518,0.6121209935175069,0.5546465251671084,0.4946291215683929,0.4346100536033721,0.3756882690357317,0.3309611062451885,0.2732231033565422,0.22165292553225768,0.18252492044535584,0.1664406576068851,0.19413079625686835,0.24971784825452792,0.30414940865449624,0.35143867832806963,0.41116555349926376,0.46720268092043993,0.5132374894142622,0.5725746559374869,0.6253529033421339,0.674148762018477,0.7338241154552514,0.782584334301129,0.8265485953991147,0.8565557072794991,0.899239808073609,0.9316252874060305,0.9573360681011756,0.9665828578469293,0.9853095426813416,1.0,0.9866607295916952,0.9720856019497082,0.9580635030041607,0.9302550284851727,0.906088713620989,0.8793632467655117,0.8432854233594984,0.8209479331589007,0.7979490370804618,0.7603647218588327,0.7294380423960201,0.6979563773199544,0.6608869290102941,0.6383472825631604,0.6095403567774262,0.5922207560187003,0.595567402658141,0.6213519434312418,0.651054637946888,0.6734098930317445,0.7070701133924362,0.7220071333229181,0.722110151063565,0.722147633933218,0.7296720675155415,0.7405703959536547,0.7319219394021488,0.7078023230686012,0.7166343268632223,0.7217787638943256,0.7089215080809472,0.703415764008211,0.6932790691941997,0.6925346285430183,0.696578457994447,0.6851200118467071,0.684905449225949,0.6919175764518304,0.7041486326166306,0.7197636569458328,0.739666356218923,0.7530261382842416,0.7438728561977896,0.7584190206185912,0.7607975238433413,0.7757076215101257,0.778010570831686,0.7864097206512239,0.7964935705613967,0.7964885486720723,0.7849755717587641,0.748396697948785,0.7170124119923384,0.7037305163183296,0.7034926400125396,0.7058818689469546,0.7337867287432016,0.7782957774744119,0.8128897730418378,0.833537807649174,0.8417610205998782,0.8610397809398389,0.8445120342804744,0.7861811032596835,0.726162533389688,0.6661434654246681,0.6061243974596464,0.5461053294946261,0.48608626152960444,0.4260671935645832,0.3665528942967047,0.32002526176798085,0.2646170410166633,0.20461818812884847,0.15102546559612584,0.1029227358377387,0.0470670457001221,0.012986901412802787,0.0,0.03388388345133153,0.08437107201403027,0.1324064116653738,0.1859991341980951,0.24599798708590992,0.3014062078372288,0.347933840365954,0.40744813963383253,0.4667755842847474,0.512614522579633,0.568889837006616,0.6289037174941745,0.6864358444865997,0.7311626960318658,0.7799054889073522,0.818373116224091,0.8492147584931669,0.8877987572710562,0.9235280848445515,0.94794699077327,0.964165072292698,0.9778124700197108,0.9827264832802403,0.9747281140386832,0.9642169241603429,0.952151520993374,0.92307830004505,0.905872937731969,0.878614923377834,0.8489844263669335,0.8275070939991265,0.7916008080242292,0.7557060501552204,0.7260962775111226,0.717285820329109,0.7046381293725781,0.7197142221912172,0.7450043615266853,0.7825813804749959,0.8129166990141723,0.8428952733754587,0.8680698737119883,0.8829113291973743,0.8971404809227046,0.9231534403458976,0.9419676223139759,0.9471915340279318,0.9623038725270057,0.9641403842780836,0.9572830485658139,0.9457820001270343,0.9458821018826282,0.9586792193352216,0.9499989267011162,0.9279592344289984,0.9088581825435691,0.8857843440711402,0.8580205686637461,0.8224095981670105,0.8012611934385543,0.782748883022141,0.7549490741068494,0.7411115829123802,0.7451113191950673,0.7497235191934037,0.7361393826389242,0.7091941523854719,0.6842049391028544,0.6584546707517234,0.6276023985606085,0.5897355475986696,0.5667876514746881,0.538505061643975,0.5184454976735311,0.5173408438454064,0.5253154513331655,0.5462359998917004,0.5751883676550333,0.5913667897977786,0.5865724683453788,0.5607483685272823,0.5374473910779094,0.4936450646138639,0.45432016392650443,No
0.16842509759179958,0.1811106015466084,0.1930816485928144,0.16964783476225254,0.1818327381900957,0.197028990146479,0.19698600621338613,0.18322361325648107,0.19565840527695855,0.19716637278068294,0.1971663727806785,0.19716637278067495,0.19716599247945155,0.19544568368850967,0.1662868936698647,0.13693693725516898,0.11071182557955428,0.07911468741125915,0.0411907217386025,0.015374770827399686,0.0,0.02312995884747515,0.042361729919352165,0.05186286095855319,0.03175820074920832,0.07587992900511775,0.10988459028660724,0.09604679256283433,0.08910198173215278,0.11021059238052011,0.12239862961337789,0.13906224726011018,0.11952035117227666,0.11090337618842216,0.11089348835675139,0.11091022161033681,0.1242290643777304,0.1691609232653537,0.2201151596387474,0.27136038641005467,0.32050282218008963,0.35896781052026494,0.38887880185768786,0.4577498554604942,0.5109848942027719,0.5814101313495978,0.6213759465117992,0.6136410554697385,0.5427048272118729,0.466586858011766,0.4116073049821116,0.33987390878060797,0.28581805768398194,0.2551561164235814,0.2038259527557118,0.17178623931804093,0.18909441251952064,0.1950452119756152,0.17149043454676693,0.1895070047091565,0.18639836792171227,0.14955638444154573,0.12359726358516188,0.08760188891499965,0.06077239042248994,0.03153693943155389,0.05290378090841408,0.0766817803532982,0.06029143008778348,0.08892663972679848,0.1011445612548929,0.09551450657143512,0.09752486081928513,0.10057405640651496,0.13854208565974613,0.17691738943196,0.2032265350344069,0.23973227968765087,0.25456215640097923,0.25468162906307246,0.254681629063068,0.25468162906306446,0.25425879841473176,0.23455086373729017,0.22593151187082317,0.22230540793877562,0.19844319511214792,0.18015374243256588,0.168597793926347,0.1859102993147559,0.19708988405145433,0.19716637278045912,0.19716637278045557,0.20154436761796823,0.2270788534157493,0.2523065171672316,0.23550895883001477,0.22593540995826267,0.2259240009217196,0.2257758723042258,0.20977998001413045,0.1850898362672,0.1856476581464781,0.22019731708799828,0.24629150865443528,0.2725509426212156,0.32042065047130563,0.3637017802378777,0.3966037589334057,0.42217608192884715,0.4297518575774246,0.45383666139435785,0.45598359992238624,0.4559926320763079,0.4631727496469109,0.48393997682966017,0.46892930652910536,0.4559718365040277,0.44711939037661796,0.427924182889444,0.44904419458724565,0.48219181636698405,0.5252350837710997,0.5992547461079685,0.6465898295323003,0.6849370203439893,0.7259569999454563,0.7953104915974816,0.8579526453229454,0.9209241190400226,0.9783186349462829,1.0,0.9706365607025917,0.9100967758616987,0.8567132421006374,0.7812281615792145,0.7039772781408624,0.6267305780159091,0.5574007264805427,0.5243429479552111,0.46215259014830945,0.416420280379163,0.43540932438768376,0.445620537713439,0.4274661246909126,0.42986393146772883,0.45360972400549304,0.43517029024139475,0.3958861189370353,0.3472514846605925,0.3409548937879565,0.3349486192908335,0.309434078634963,0.3015254177514892,0.30563572050190757,0.2928456291570951,0.31749736217694746,0.34388606212537454,0.3680722627825119,0.36760280350181507,0.3435910470438337,0.3409545134867038,0.34095451348670025,0.3409545134866949,0.34087802475768214,0.3296984400209766,0.3123711028850611,0.31219688534539536,0.3121968853453909,0.3121968853453865,0.31098972105647693,0.2885829443639647,0.289016788479187,0.31115761651990415,0.3215433177711615,0.3406493328844098,0.3413867679888849,0.36189735425724834,0.3594106454687189,0.34118033841881346,0.34095451348663364,0.3409389186628289,0.33272127012456565,0.3069048245020092,0.2836164050836345,0.263156781266364,0.23723050854991445,0.20188973453690018,0.17440563538724163,0.14156565441401447,0.12492226573300247,0.139308240418214,0.1400704691517154,0.16071003980986287,0.18664045315068112,0.21194210793064183,0.24737557900269191,0.2734559537828334,0.2833842604415464,0.28372959137682674,0.3027791490979057,0.3278270648668702,0.3247997465957093,0.31376135855453136,0.33749492179727714,0.34457860533947926,0.3769839788343363,0.41597775279718086,0.464220200213985,0.5172815553595402,0.5928754463976,0.6559886613438657,0.7084523426994984,0.7608466993149712,0.8118046436252406,0.8652360049832826,0.9138983102817271,0.9142406996933463,0.8682375005821914,0.7914078354891654,0.7229926649246314,0.6652918323869086,0.5883828905138913,0.5111362854642456,0.4420073140131402,0.4131346635534312,0.3826198830503804,0.397544347977532,0.39846976976909065,0.3984697697690862,0.396906327706259,0.3685909411506181,0.3302718000276119,0.2928318443888749,0.2678767948118921,0.25467240181038253,0.2459749946810339,0.22628835186526963,0.23431100720011422,0.2548066584120603,0.2779752932187529,0.3038045456141285,0.3121777085269688,0.3121968853451884,0.31219688534518397,0.31219688534517953,0.31207024869423083,0.29758282036484474,0.2843529642402993,0.3076459032594263,0.29685840191403035,0.28047416325173824,0.256556273309541,0.25468162906258396,0.2546816290625804,No
0.7469142678472727,0.76795507100094,0.7833417779249894,0.7714214471172749,0.7921628036401662,0.7699698772302304,0.7457314547337948,0.7265658257923517,0.6826157070407985,0.6494228294697733,0.5881934486752654,0.5221622710532428,0.45856978615957544,0.394056221531355,0.30550053889710505,0.23674207077817666,0.17771345641511171,0.0941418749202656,0.04287022702090848,0.005642707894730314,0.0,0.0030256606685261644,0.04324636125249803,0.13544871364721445,0.20924595632208565,0.27360383084496753,0.34871097059601297,0.41292899396043303,0.45031876534685633,0.45188116649351695,0.5185574235805328,0.5876469163084401,0.6009938220933844,0.6092912109544928,0.6527263051673673,0.6960775690683221,0.7319399593911857,0.779153585898892,0.8126224340588326,0.8563242519846019,0.868109770516102,0.87576958294839,0.9169727751576868,0.9120191766187267,0.9015330894753442,0.9015164938287388,0.9015155557205565,0.8958049723388894,0.8697835292763036,0.8695997311436923,0.8949795565022232,0.8793006297552735,0.8680774750430009,0.8489018045301666,0.8447982682884065,0.8762924939969112,0.9008275917473982,0.8980215606388597,0.8601462295442408,0.8350777475636653,0.8272330526797127,0.8022820972629985,0.8109170840643838,0.8534955930640624,0.8749350770962936,0.906315497952634,0.9523356230287323,0.9924370928728026,0.9717934404137862,0.9924534767365785,0.9479328818934034,0.8635804837457055,0.7947085963495564,0.7117319105653799,0.6403252626974485,0.5928808994311625,0.5151525630635101,0.46914030981486654,0.49510081619913304,0.5595233893046849,0.6498665620495983,0.731545669637387,0.8077204653427268,0.8797166823981755,0.9414419732892618,0.967722914658327,0.954267032588862,0.9351594105022061,0.9349063951396648,0.9332263601137871,0.9052797021065819,0.9120765121413958,0.9344506349809043,0.9300903165351819,0.8996212901536662,0.8705002271997575,0.8582166845803139,0.8141297781314387,0.8013529759901701,0.782921355473384,0.7415657776589031,0.7302076526617771,0.7035194172384358,0.7162827061386601,0.747828031987317,0.7825662720948499,0.8427163506000825,0.8887798454749731,0.9097705516445975,0.9517642131870323,0.968247581226044,0.9680746944982408,0.9473377903945632,0.9461466819701396,0.9678700822712623,0.9525302820128836,0.9351124063572458,0.9349066296668438,0.9346068446862557,0.9133108381619923,0.9015743516582315,0.9120727255924832,0.9344514167378657,0.9348705394728434,0.921211876081979,0.8753154834766699,0.8353833878950541,0.8044739358207371,0.8013487084012665,0.801622584206811,0.823599690708221,0.8649315950051504,0.8959395587747849,0.9174596129797044,0.9644779107552894,1.0,0.9940791627052787,0.9358179413875289,0.8568146634996285,0.7651977772726211,0.6965760155208436,0.6129188827490308,0.5405993786404402,0.4655025239416126,0.41767505138071304,0.4097626369676375,0.4611669491763841,0.5507444742358771,0.6209686222457691,0.7095267006104296,0.7812274497769014,0.8678406052034662,0.9402293922797842,0.9527874691938791,0.9351359084299204,0.9349066296669735,0.9349066296669797,0.9349054570317517,0.9277934438632061,0.8851188216656878,0.868514526563156,0.8860077447480625,0.877399266723141,0.865564286867424,0.8359996912704037,0.8050318782059085,0.7829247145354401,0.7514555804140617,0.7298963113378596,0.6900385024076998,0.6650380206571054,0.6372201314628825,0.6471796852602667,0.6940411034969927,0.7414734407619905,0.7763510720880635,0.8208069108397318,0.8636593964987682,0.894908200467448,0.9015153993697105,0.901516493829269,0.9018162788098705,0.9217698645275263,0.9089450932642702,0.8976074131964928,0.8705186436316277,0.8681266120624471,0.8681263579914873,0.8681263579914935,0.8672048612172683,0.8418073949715081,0.8532378586539195,0.8680815384077798,0.8681263579915202,0.8679764636292546,0.8405137145825465,0.7957487416177953,0.7692446460217912,0.7631403995594379,0.7365977448666525,0.7402865305214403,0.7853948458651185,0.8334375195835193,0.8375114179788099,0.8750395132716671,0.900941939402065,0.8830867173405634,0.820953951615981,0.7348513329011226,0.660443216743432,0.5764790039516186,0.48746168649995614,0.43470739204845543,0.40233968081634774,0.4089871206725899,0.46718993376992035,0.5453481943058591,0.6286597405179188,0.7008059242032507,0.7509744446449371,0.8077592037171701,0.8700826403480599,0.9006719292725771,0.9015164938294333,0.9015109564993544,0.8940133048120593,0.8690481022194811,0.8681264557112396,0.8681263579916427,0.8680989971873156,0.8567017509401644,0.8350496071820492,0.826718473196598,0.782786114555071,0.7505637030537349,0.7294205276888555,0.6889867784974761,0.6680385192394862,0.6677855429647845,0.6678282627695893,0.6825404952290182,0.7448365281430549,0.8069894454576154,0.8534950458349888,0.8750865697030115,0.9161043998704432,0.9126364902950854,0.9046621034446831,0.935538364225784,0.9643509358296543,0.9417480546681487,0.9349162385335026,0.9348836335579005,0.9243503979039573,0.9018647405774916,No
0.9042507411425187,0.9228326873187647,0.9105873561548088,0.918814374467241,0.9229260854218659,0.9040369483349644,0.9077739027419196,0.9277055609005749,0.9288050108914967,0.9276107728913057,0.9073173135282562,0.8959916720487517,0.8834066591169765,0.9024899332875411,0.9107507757793756,0.9225795348490604,0.9040755082597038,0.903447898306259,0.9027896806629072,0.8867607099222155,0.924078036196073,0.9542832243377366,0.9730110781414276,0.9842850506806609,0.9999999999999996,0.9691522510898518,0.9625964113357175,0.9573636168696287,0.9025198377458952,0.8419217819775411,0.7731989468605751,0.7123312699392765,0.6391751944233395,0.5772386894623556,0.4971394391328481,0.42020127583667666,0.359556908188543,0.2805573645354915,0.20143553178656948,0.1417862989894796,0.06723822538099444,0.02322133619176414,0.03435592448011082,0.09360995394528748,0.17050964319538853,0.23045333615772012,0.3097931448393725,0.39009365926137285,0.4547164953002061,0.5258551444451647,0.5800296376981575,0.6249537804757588,0.6860054200423318,0.7481668240185635,0.8193657549243656,0.8697385411425915,0.8791476768513333,0.8949538416762421,0.8682172310790315,0.8553961849237051,0.8745606389154141,0.8556289603473322,0.8434869132826814,0.8161316712774362,0.7825565188412189,0.7851802721847858,0.7846226788312758,0.7290212429801701,0.6904163249433357,0.65194073392958,0.6114830139230398,0.5615625571622593,0.5081025854428916,0.47431039551394205,0.44254093029741925,0.40451200324548475,0.4302669092878153,0.4802808598794215,0.509996683874979,0.5618393098768486,0.6196072575121123,0.6679788038972854,0.7159139959564569,0.7371117373253049,0.7757740122291197,0.8010152550873708,0.8020194479653129,0.8020194479653173,0.8018460200725772,0.7855809170278163,0.7781111035384192,0.797839326139504,0.8008629810261136,0.7835446447151297,0.8039686503220387,0.8255958429626626,0.8091703290601777,0.8041696979964992,0.8329053638110531,0.8524833895749704,0.8564059135673676,0.8593209664648032,0.8408298977559823,0.8099686261228407,0.8343891992986143,0.8694951134128792,0.8564560331562485,0.869670486952312,0.8544082618501414,0.8552570390427223,0.8746350955243156,0.8557144710483917,0.8651717644329806,0.8779922837333527,0.8780849842757878,0.872130027326222,0.8532921301833976,0.8538100462953921,0.8747798964992577,0.8995605111975506,0.9120434476076986,0.9556659243823113,0.9716808946255653,0.9540103487864955,0.9356078247050212,0.9226763409013361,0.8635665344026564,0.8041055748773913,0.7431198761240512,0.6718144940270974,0.6096157691714201,0.5352128383480563,0.46088598459268626,0.3987646344865028,0.3186456018561685,0.24191176203807396,0.18116461646674908,0.10220926637456396,0.03833260221410528,0.0,0.0052177659610768146,0.05862888707828118,0.11812715677913754,0.19563742581392862,0.2762819803641783,0.35692754235105983,0.43757310433794094,0.5178534890671722,0.5821575543263946,0.653616517627059,0.7153540940057002,0.777128105083523,0.8289318841296072,0.8525184441728713,0.8687347695030732,0.8558368853699672,0.8646276130215687,0.8742312670339554,0.8543598339684144,0.8525935290449955,0.8376780156080605,0.8250941802375347,0.7947750918942114,0.7649994014900199,0.7262781257406625,0.6857784419722974,0.6299459835213574,0.5800194398734524,0.5462058878883544,0.5054170629563455,0.4977509146152559,0.5013200492404057,0.5525998007243573,0.599140215354256,0.6397582835630451,0.6953989978382951,0.7519911970032269,0.805801477810586,0.8513278565145979,0.8829980973522713,0.9173800474147771,0.9232824513250484,0.9027304457547776,0.8848415518722885,0.9024477746669981,0.9172539000840207,0.9163583556104835,0.9061485304464356,0.9117110599478093,0.8950900716807255,0.8840892796815925,0.9026216608130873,0.9034870783941353,0.9127092581937251,0.9286402797560256,0.9282464101304568,0.9103349434980967,0.9056658565301592,0.9248727983990643,0.9066917152440479,0.9035894641826299,0.916358887001341,0.9290407925143414,0.9448338839325365,0.9526893860699945,0.931792159180564,0.9336605196270447,0.9531983828800032,0.9614386434144593,0.9733086513418434,0.95485169105191,0.9653772549814321,0.9759899575849054,0.9447320979660332,0.9290097180922614,0.9212167372514917,0.8817375331405892,0.8947689374198933,0.9277096312732209,0.936340519392783,0.9702698599771824,0.9779630833280364,0.9569702424929285,0.9540977747782411,0.9379451397271388,0.8786231902955941,0.8119456055426828,0.7541253370911698,0.697497927236475,0.6194504519753989,0.5434330731047559,0.4823262048022636,0.4028685337044129,0.3244588505501427,0.26455715886694176,0.1913684169675287,0.1706639769652356,0.20311287224850494,0.26509867942077214,0.33062125523399954,0.4111003591949629,0.48480248556084904,0.547598040377999,0.6271735011300446,0.6892503334175655,0.7585500484158954,0.8177891983805279,0.8599201727000714,0.9034377621980236,0.9217299549705813,0.9039160824855563,0.8999227232650671,0.8798290287954527,0.8780913849726661,0.8780907857215703,No
0.02877178860361873,0.028883861253485854,0.04915672136259008,0.11946523785442231,0.21236253367111502,0.31772081824039144,0.42099121254439,0.4943955593229763,0.5940209186549019,0.6892443934029595,0.7645469119885089,0.8397422499429004,0.9098335777270501,0.9618643894813044,0.9840150456897101,0.9841202655935835,0.9726666397479855,0.9450200024905984,0.9399224152307513,0.9070839983421228,0.8978867519061762,0.8625434278041402,0.8263495667585277,0.7912709589810518,0.7705887398734488,0.7446849936693036,0.7065914518481851,0.6675224288623358,0.6410058267818446,0.6259679015801467,0.6258724822776474,0.6284444168719645,0.6701060235549328,0.7054901419014543,0.7340149960870628,0.7675267264585326,0.7850799476049524,0.7850978243336417,0.7864178062778384,0.816934160217258,0.8248984988835701,0.8249044577931404,0.8249044577931501,0.8249044577931599,0.8249044577931697,0.8251187708921215,0.8491708082473384,0.852272619958721,0.8382402046024087,0.8643080883658909,0.8647110912526799,0.8647110912526896,0.8647110912526985,0.8647110912527074,0.8647110912527181,0.8607551926415331,0.827629199393555,0.8249059475206701,0.8249044577932905,0.8249044577933011,0.8191512722634515,0.7734364364512132,0.7130322716319828,0.6665958284487328,0.6347276636506063,0.5902987522380494,0.5860670406003923,0.586108956114546,0.5983879769691782,0.6491451563208148,0.7021771185323011,0.7563992852829857,0.8192083487430422,0.8400386961340471,0.8644516168389371,0.8647128789257392,0.8675969823325245,0.911146851488474,0.9269043821775345,0.8359746556202392,0.7621474076824244,0.6767494658685713,0.5981874338923765,0.5108989885807365,0.42758659277272404,0.32242093448133513,0.2335876519680351,0.16359281922228597,0.1619847582944347,0.23093890883539636,0.31735641124474334,0.3946809376199818,0.45343813792714727,0.5228290587149313,0.6178460482658865,0.6905253911444564,0.7601301748064442,0.8300844657194215,0.8640688742447482,0.8647110912529579,0.8647003652157599,0.8532467393701655,0.8256001021127748,0.8249044577935303,0.82490445779354,0.824262240785349,0.7945888909337224,0.785034488344964,0.7644894425186832,0.7419231089922729,0.6999490415164393,0.6668304995655303,0.6521815654212446,0.6262547660030826,0.6258742699510833,0.6313974045219872,0.6665209041856786,0.7010852959839537,0.7103484555997115,0.7431194695811696,0.7454008799607754,0.7614414325412495,0.7842439757363779,0.7547822574743916,0.7453141010771596,0.7560900042100878,0.7700389311142679,0.7457459730759082,0.7705723528728843,0.7715871644168244,0.7458889794805481,0.7695694591480917,0.7850835229513509,0.7876664815283538,0.8206252819408206,0.8419069140207709,0.841890229074008,0.8084828563694018,0.785299059431666,0.7850978243343478,0.7851944354187772,0.7989512382583612,0.7848381759652829,0.7473223209270978,0.7596368169902838,0.8100847786952947,0.8218263464585398,0.7878539289191773,0.7522906645605199,0.7042705826859663,0.6425923131524423,0.6259809795826108,0.6258721843330193,0.6282880345211028,0.6704774050813054,0.7418026900862831,0.8212795819034246,0.8717084793206178,0.904115454738597,0.9308279996378275,0.9443947816541147,0.9584425931871543,0.9839725974844837,1.0,0.9549429773756009,0.8815553902422408,0.7863067766618208,0.7139261433305171,0.613206979269024,0.5350594874105026,0.4417965357823048,0.3529980180916761,0.2706885476078993,0.1655192823713536,0.0641130231220588,0.0026595894020955413,0.0,0.04193980592784907,0.10245553830130749,0.18027324675906264,0.252652423090896,0.32246675272417846,0.4089257590464266,0.4846133752733719,0.5867741931869066,0.6576765094393195,0.7268522548911438,0.7950856342082346,0.8481783236187885,0.901178468862966,0.9417018254218146,0.9439691981099472,0.9179749356684823,0.9045881797941888,0.9045195123858738,0.9073985507195301,0.9408145038906977,0.9440648837585668,0.9196519630536919,0.8993083863789293,0.8544872244265171,0.8254267368694324,0.8068932402451914,0.7576588098857764,0.7574706527900643,0.7846469786236341,0.7850978243347067,0.7850978243347155,0.7850978243347253,0.7854812998415239,0.8114080992597019,0.8248913481931828,0.8249044577942239,0.8249044577942346,0.8249044577942435,0.8249044577942533,0.8249044577942639,0.8249044577942728,0.8249044577942835,0.8249044577942932,0.8227327365007406,0.7899617225192967,0.7851005058441558,0.7856373842478863,0.8124086094208218,0.8093641747890299,0.7853121374338299,0.7850978243348967,0.7862617218728598,0.8164931809622296,0.8350493977618507,0.8641107581603782,0.856740793678,0.8262125219194756,0.8098015698351446,0.7425093716671984,0.7021042940230631,0.6544544235680245,0.5916250933777967,0.5856643356601872,0.5590542104743941,0.546490479751899,0.5689069605209065,0.6365761558919143,0.713130429950958,0.7661228120237551,0.8164678555967049,0.8268416266721372,0.8585190120861688,0.8567396018961952,0.826363264282743,0.84866900543605,0.914716509318958,0.8894245354887245,0.8005787255258223,No
0.8531336383884112,0.8128756043537075,0.7603522219320515,0.7745743341008922,0.8183575512520234,0.8522483091239463,0.8777725862455394,0.8597406154086444,0.8952565222826214,0.9021560088091816,0.9004665949287443,0.9209063156950839,0.9180059431203276,0.8658545134005005,0.8206105370851464,0.7541724105325942,0.6793991226479168,0.6059359735070879,0.5682144059139302,0.47503513880607695,0.3733953182491643,0.2717420065268126,0.170088743497665,0.06955016119661828,0.011436969914592865,0.0003543585666632154,0.0,7.953223333245774e-07,0.0028374601858756066,0.05391492423059763,0.05685340087941437,0.02362457605598589,0.02316746154551108,0.10596312242609063,0.19106981898257835,0.24536057718303006,0.29388381763638627,0.259710560131313,0.2592030385985593,0.32967726293922084,0.3134843218003853,0.3348200728182533,0.42532267257592515,0.4805069791400287,0.5616507033750793,0.5948628756584409,0.6085289264507523,0.6664572221759988,0.709821440293517,0.7795182729289456,0.8772343413523371,0.9040485394029947,0.8698551143367137,0.8263615746430881,0.7976019171564834,0.8244404601478195,0.8508163790522394,0.8038909212759409,0.8053723635624763,0.8094283651865446,0.7898434377181403,0.7839674774898668,0.7522729498622427,0.7340779490287757,0.7286520709319104,0.7157480125182092,0.6912537245919639,0.6698066435951624,0.6579479213649186,0.6542715510750527,0.6294597240989068,0.6601816369497824,0.6988185059377763,0.745547736795114,0.7857574229004092,0.8036879123105907,0.8524467653721644,0.8553295810552379,0.8685927840444645,0.8663056023028917,0.8547158633382672,0.831972238272872,0.8300597503365683,0.8395735879980668,0.8226487291581419,0.8210393999042527,0.7955622270664202,0.8125574900343118,0.8224243183380215,0.8359102562287495,0.8551029500059206,0.8437579734237346,0.8227430257321116,0.807877072050367,0.7649516241129346,0.7554303342163822,0.7301742487780096,0.73775978419153,0.7981787544871963,0.8221735215066612,0.8268584634852809,0.8693066849752338,0.910538718170276,0.8909128863054372,0.8880978334685032,0.8682893740585937,0.8232509516739723,0.771468988796137,0.6892512530382646,0.6121630743919564,0.5958955477329191,0.6241628719850913,0.6659399118551148,0.7395129851301929,0.8380737198409944,0.9110575622838439,0.9126793509067337,0.861793301794533,0.8225066646477881,0.791315104398354,0.8122771805870208,0.8206182262879693,0.7931467007152104,0.7894916125762155,0.789445748544205,0.7771321709633527,0.7439104035644011,0.7415291110481785,0.7251577757053482,0.6759613860095062,0.6579540528054606,0.6393133558236856,0.623350408764332,0.5999777401156416,0.6244445027146277,0.6521491283572356,0.6845515758859584,0.7084336295551221,0.7420406498949488,0.76587492897574,0.8092837370307713,0.8223777042139542,0.8336149403594098,0.8354639980593515,0.8265419895221315,0.8536359967968412,0.8436900238957303,0.8001395515594485,0.8067865711133564,0.8222939829921492,0.822386563107762,0.8251264392138014,0.8517976712860342,0.8477467050582286,0.8232532678942039,0.8353625722726257,0.8525241049426562,0.8222864818805329,0.780332664649058,0.756991979851203,0.7566190122687928,0.7658033687862353,0.811791082178412,0.8517396641825563,0.8698101632567319,0.9167662452487555,0.8926069417307314,0.9179916031585584,0.9519672870236171,0.9267775946099359,0.8628579564527081,0.8187906337929567,0.7595518404148525,0.6757856326804577,0.5757714308751947,0.5020262745152388,0.4740846176371507,0.531138330334934,0.5988374884705427,0.6573587461273602,0.7394196205417369,0.8241631139382148,0.9099844807271751,1.0,0.9973782309084296,0.9316560248465633,0.8639990084505991,0.8239464237767136,0.8467141058237413,0.8528302705206237,0.8255789596339325,0.8106360732003486,0.7916746633158338,0.8168635252417875,0.8158221050116037,0.7654469069810519,0.7552443568303948,0.7290236315583849,0.70294516575572,0.6600075490719295,0.6189972073755365,0.5938177857011082,0.6243321049747186,0.643959278688433,0.6274371397909757,0.6615328966270786,0.6997754287194251,0.7469710532871581,0.7895500058562872,0.8316197211225136,0.8550868278471366,0.8553733630357474,0.869899607301293,0.8844404998744437,0.8453661394335983,0.8227539096302543,0.8222920436759278,0.8066203290657308,0.7925833146908632,0.8191987775811498,0.8223848718305966,0.8223856119672979,0.8224735024375791,0.8369140340097392,0.855150621144289,0.8544871669734224,0.8168020278427681,0.7649207755023264,0.7397619396798047,0.6974961537086353,0.691350657511637,0.7258945630810238,0.7803840231640748,0.8029552882001703,0.8379082848780497,0.8965810839312098,0.9208893711281894,0.9075868930826054,0.8874821771300487,0.8566278802286043,0.8059334477547875,0.7432244474034144,0.6676575694876075,0.5687872034059369,0.49462531061173465,0.3994348927340381,0.3414618953982833,0.3640704366598806,0.44599450955105624,0.5214276207499688,0.5982651178807705,0.6664146842911469,0.7558000446954098,0.8574081323321012,0.9528382728575364,No
0.7676466403960651,0.7568072195131945,0.7619802918408234,0.7674533654404647,0.7582707908066202,0.7783728348901913,0.7775702213097424,0.7869506261280428,0.7823656608767218,0.7808348917943913,0.785073841064658,0.7778653986969828,0.7895944811019375,0.7843074743211322,0.7772552063650169,0.7928958350055644,0.7990402158049705,0.7947072075464172,0.7762347464613617,0.7599322383169556,0.7367227491153003,0.7429487724219386,0.7355922316306303,0.7396443681365139,0.7819672566358986,0.8115453571013216,0.8280298341051902,0.8381442001547699,0.8507244682438029,0.8362925621284529,0.8565288424226822,0.9098749675972857,0.9445986500672658,0.9215954321322988,0.8633316505523276,0.8119909011057409,0.7471838416976895,0.6819232598603957,0.616662617649415,0.5514126299215545,0.49156016137981196,0.43997246598582596,0.3751293351651981,0.3098687427771627,0.24461438261113733,0.18366834070329885,0.13504866747849853,0.11323551974823687,0.14308897729033943,0.19485368499553823,0.25990954070943495,0.32511443975305276,0.38193419080169777,0.4363088780668467,0.5014427733707083,0.5665544645397622,0.6210940177395896,0.6753547796894632,0.7210453205305427,0.7679232501576791,0.795988922568224,0.811705671028081,0.7988809857709644,0.7998701927062131,0.7970180735903356,0.8010570675370632,0.7885050101045761,0.7616297684659439,0.7538964334918776,0.7409356859911371,0.7531808581295927,0.7397683696442447,0.7295242283511909,0.7026138316339869,0.6821060850066902,0.6518099524754231,0.615735249325128,0.5834042054213007,0.5671306771531648,0.5566084238809479,0.5436911723780389,0.567027233283933,0.5859434016895548,0.6224792111585922,0.6412182825394073,0.6581812648757386,0.6748305958840546,0.6895307015915892,0.7064294507010693,0.709799466883474,0.7158796162762711,0.7158952250938007,0.7185324250799621,0.7410821447256595,0.7390154411817513,0.7675144606116286,0.7896144174209998,0.7959519165964157,0.8181184265559458,0.8165270135340905,0.8204510015539945,0.8214422299524915,0.8340976566086735,0.8386860805012288,0.8188708767490249,0.8182042082461995,0.8187904673458575,0.8165618896519784,0.8259285565988246,0.8167616465829752,0.8315649520946886,0.824452827648265,0.8123198867787207,0.7999005223554945,0.8126335929879409,0.8229332190131804,0.8520714397316236,0.8759199265406283,0.9092176247533716,0.9259388734370071,0.930487935991676,0.93049966527404,0.9360054886555305,0.9793040304233109,1.0,0.9611090283062524,0.9020834869291239,0.8368503413109587,0.7715899054255853,0.707441162953256,0.6579095332975387,0.5953141445812231,0.5300564664387055,0.4647958242277248,0.39954264954130814,0.34022291992023046,0.3291870326776558,0.36176041443306195,0.42087621092419747,0.47011392861931034,0.523393863912827,0.5799306519077896,0.6363365206478515,0.6910657105160642,0.7556319230317143,0.7937182721739129,0.8214297790989358,0.8401852207397971,0.8557263498020142,0.8526231165933096,0.8363498212629974,0.8581921145332929,0.8537552436274742,0.8552122230911388,0.8806027407864296,0.8872270118960701,0.8725450672452442,0.8712012969207383,0.8468535465895957,0.8313111316411033,0.8073082706278765,0.7796079581420399,0.7533682461633604,0.7201524839048572,0.697312391728155,0.6840786968873602,0.6819637570160215,0.6980475263160644,0.7022268202773181,0.7092753345507354,0.7531478771181757,0.7751487408038775,0.7820636818058135,0.7877669668563545,0.7939166423186554,0.7929699983847724,0.7724650596985079,0.7528359134456415,0.7387181777631633,0.7478867692443516,0.735858661519754,0.740293525013473,0.737981554301566,0.7278648722999361,0.7181637686134814,0.7336683262976571,0.7218730279967369,0.7210714636114779,0.7183155284896232,0.715790659352078,0.7012823396009469,0.6771437066331001,0.6628504080660957,0.6422367633225234,0.606530716384786,0.5904902662300677,0.5863128404708733,0.5995840503005838,0.6220998604533046,0.6678617673954106,0.6768598362876097,0.676913979207546,0.6840468076004296,0.6973028634113443,0.7205145095901528,0.7733677436804038,0.7774902652084514,0.7311157062136324,0.6812220540061129,0.629674786967183,0.5706535159976789,0.5054211478081716,0.44016050559719044,0.37505557344011997,0.3215033093361894,0.26384150112342475,0.1986272729359193,0.13336666589407642,0.06885580242792244,0.023045992697317885,0.0,0.029924608853667323,0.08901360408246362,0.13838380698220965,0.202299932747934,0.26756026078128503,0.33280532697219645,0.39277840023755894,0.4441805392224647,0.5000835511580517,0.5549520256050973,0.6175305160550564,0.6527973322721388,0.6687812350588027,0.6848410583139497,0.7207410014800169,0.7313245336529741,0.7171051874885155,0.7237179922334702,0.7210856451533836,0.7184998619771776,0.722910300653425,0.7191380479775851,0.7339076642818756,0.7275353015902106,0.7115420764879774,0.6845124613948768,0.6542724612296795,0.6223419370752867,0.5999437880953984,0.5796135745135307,0.5693560684862704,0.5778584354766636,0.5982917086179227,0.6171790849598238,No
0.7053396866885473,0.7186863388636757,0.7496878814490815,0.7090118344235306,0.7227110943342643,0.7545483418496302,0.717457443235177,0.7053384221025611,0.7052725221805707,0.6787293251555111,0.6548142359573061,0.6624732357998537,0.7225539187255974,0.7556887938333636,0.7585083690272443,0.7982682173747042,0.8068081556256521,0.8068082363684832,0.7995688192544153,0.7407278077595487,0.7262330865130648,0.7759352725530553,0.8646936614940168,0.9015020580010722,0.8095181672310465,0.6698081062124102,0.5297232587794083,0.39028774068799965,0.2847436931814462,0.20360093236172805,0.212484768243967,0.2892250251507189,0.41503420442604,0.5130024504133273,0.6178830830378397,0.7389203150557195,0.8393590309698729,0.9654700718627156,1.0000000000000009,0.9312294366731537,0.838333123319214,0.7474338451999918,0.7067330011335331,0.7352690014916652,0.718150648851803,0.6714861593024652,0.6751168069974502,0.7494582180719034,0.7175113625906002,0.6708077694523036,0.6546328851850047,0.6535338973295035,0.5953904258205247,0.5546391526401289,0.5901966844112829,0.552513232176282,0.4832128673713525,0.45194128781323517,0.45003545587120275,0.38101646442849724,0.35277806381288723,0.39230132528518613,0.40148529348369255,0.436544666680871,0.484777129584562,0.5719695516200813,0.6495313319198344,0.7027433280747006,0.7365778502851574,0.7655927551670532,0.8055276982514359,0.796399222402008,0.7713383413121617,0.7851379374832268,0.7216060444997838,0.7093587258773519,0.7516045588831206,0.7499970891202272,0.7087076634055576,0.705327203798567,0.7053376855473461,0.7167311244897094,0.7564026755357416,0.7956019930413811,0.8056337099521853,0.7667457018312112,0.7576678089431725,0.796033306975608,0.8067987780108821,0.809473206355924,0.8490473026717096,0.8236883430410282,0.8068747804095677,0.8070790055234118,0.8334591840627175,0.842819972824306,0.8114511443628425,0.8528517097297881,0.857549354201594,0.8576442427835884,0.8753817847092131,0.880336957326171,0.8188693852812579,0.8302965807496809,0.8459324163863267,0.7807981491595415,0.756274786194461,0.7560677632908517,0.756100575441855,0.772126236916086,0.8487042321533531,0.906733293646659,0.8747651060245127,0.8576252450986024,0.8575493257041549,0.8523597481120673,0.7935530751130502,0.7002230835572822,0.6137834899069512,0.5658719517200046,0.5763047183226346,0.6456080454758988,0.691309143724145,0.5905694048063621,0.4543659318688791,0.3568512064900409,0.22133550804895208,0.10310654182102308,0.012956639121917135,0.0,0.08054350677182942,0.1853488203354221,0.3001722833152325,0.4143649581533184,0.5540494468070021,0.6638023465268459,0.772249950578412,0.7704049781035058,0.7012929742003484,0.6240705496436645,0.5365233419354807,0.49974757146122517,0.4570520918712626,0.4261717098467903,0.40131390158923264,0.42338121061203093,0.4404911275323711,0.39377290970233236,0.36356398694998493,0.39936169639849606,0.3686534661057488,0.34912807955188807,0.3096807599000826,0.26312994045407656,0.23623968842312149,0.16975673947567227,0.10708074240376853,0.09644493628170903,0.0941289192691217,0.05213784124169596,0.05881641392804493,0.12357148757339687,0.2148473712811132,0.3004099896707748,0.36153698510676957,0.45541802175776613,0.5499299230705583,0.6574414252055556,0.7517902473624813,0.8166294016242714,0.8527869639769703,0.8114102573605608,0.8218251096754434,0.8855788809391365,0.9082487960027583,0.9082910671846838,0.9116710553960461,0.9460762092889121,0.8936690025895357,0.857939618174183,0.847884171822936,0.8213382982547062,0.8560301651931228,0.8212918629568433,0.7509065294126982,0.6573419134279588,0.5688415631405794,0.5594272187378992,0.5909199913898897,0.5547832431581687,0.5551562880828049,0.5909088260617557,0.5469982734330037,0.47655372869394785,0.41285510250917756,0.40842743950472826,0.43869709385041933,0.402550848390427,0.4234641932406058,0.4040162912061964,0.40566573515282567,0.46407129201020236,0.5345791686318337,0.629445892731268,0.7092939922185684,0.7530165363096506,0.7587856221763021,0.808366673825577,0.8562596955477124,0.8574999219299508,0.8326657200642051,0.8064359028864656,0.7721557845410976,0.7453233393959051,0.6801255054582596,0.6163526856178843,0.6279143948365595,0.6976743478840435,0.7855933670316952,0.8090709784732875,0.8482050366121756,0.8250851992795623,0.8072416283613011,0.8364190952532953,0.8575098281292375,0.8555178696472359,0.8136430681209346,0.8195286384532912,0.8772198295247398,0.845134215630984,0.7225165038626988,0.6068488470711051,0.49815445991400775,0.41775972363393254,0.41841771094042013,0.4863549347684648,0.5583810801791751,0.6741417588415723,0.7965521925902523,0.9009590672656378,0.9856784011362132,0.9575781142367736,0.8752503856196823,0.8057243607788438,0.7583514019338198,0.7556282247963688,0.7233244800620904,0.7054245115251438,0.7053264614118993,0.7007071811192391,0.6585201701075496,0.6581459814710167,0.6759059416263318,0.6359313543020297,0.6042167594488559,No
0.17526014774041965,0.17753439459712883,0.2212277174452124,0.2952914887900162,0.38993881645897677,0.4757517333895569,0.49516983289840866,0.47012059519280225,0.432135792019797,0.42395699636152173,0.39578874268555087,0.3267755573791158,0.23959240391136216,0.18273624852091697,0.10519958532594842,0.0459621734989657,0.006740952299762348,0.0,0.006519512316917719,0.0642160960894671,0.15286587940506635,0.21800969272264492,0.28794728577427975,0.3543153143148583,0.39210352198540654,0.4058607267332084,0.4712539173243524,0.5276571239393375,0.5692440619160317,0.6167970811068209,0.6643014523594548,0.7000969073307468,0.7241400520316477,0.7304693870171413,0.7304765741181747,0.7281475110912536,0.7041686094191899,0.701256948197611,0.7012550456425446,0.7022168451607822,0.7243760836666295,0.7304699909140178,0.7304769263249726,0.730476936108496,0.730786059938402,0.7477674516730586,0.7596472022819452,0.7592457199012586,0.7348915173788422,0.6890428711833785,0.6557037877243532,0.6336010519213033,0.6097505126149114,0.5890269880113044,0.622270918317092,0.6708526188116117,0.7307991072787061,0.7767372940028014,0.7997174548319608,0.8179207504765458,0.8125590380287173,0.7600344800772376,0.6800001532913784,0.6039061421790546,0.5188290325844651,0.42376082775287216,0.32864617734567503,0.234156632932228,0.15965504739466763,0.07404027607750674,0.012667136066527362,0.001693133809662406,0.04996430752718517,0.12552935341486204,0.21005758727468926,0.3051540046547405,0.40026865506193765,0.4953832217656702,0.5897190440315097,0.6628450493546927,0.7515130694246706,0.8457391014073563,0.8769543273911191,0.8134652770738224,0.7437758356537634,0.7066914962033106,0.750000404504001,0.7596874258197639,0.7596988972332408,0.7596988972332417,0.75970844013034,0.7660327723146931,0.7866171077685973,0.7577758763430404,0.7218555276528269,0.6805615142619903,0.6439883875658969,0.5967449450438096,0.5560151507412456,0.5162007491723166,0.47460030412195575,0.4675633335391822,0.4813791350308403,0.5268283966601066,0.5662060844245937,0.6312690575088951,0.6700195224635417,0.7156692974719858,0.7510819737988355,0.7971523645183369,0.8179234648781426,0.8181789518753577,0.8271765344217137,0.845070400583503,0.8214224488506536,0.8181453336708806,0.8181428390497425,0.8181470064717438,0.8235768653472206,0.8461479921116153,0.8473646838592579,0.8473648099579849,0.8473648099579867,0.8473648099579885,0.8473648099579902,0.847107124015694,0.8241931379648095,0.7772320243382724,0.7298834881937575,0.7027794665516485,0.7203967798146458,0.7039170564635304,0.7208537028022377,0.7568383140302446,0.8261809097224644,0.8796305075610737,0.9057904097477252,0.9249504652923859,0.9086161822173064,0.8868077489128368,0.824140162678221,0.7430207489668152,0.6678913023292488,0.5745949454865036,0.5022818528532689,0.41229723117642525,0.317286078611156,0.23589923186038675,0.15778892601342775,0.09919424192972759,0.11120598187448572,0.18162828042935608,0.2545583492840757,0.33116666175429366,0.42605274703986495,0.521167397447063,0.6162819489319844,0.7101908379851078,0.7828839769946887,0.8621000289408185,0.9130199829872998,0.939648206469264,0.8743371630597343,0.824622339200987,0.8011028494999461,0.7889865031099728,0.7887974690671609,0.7741460367501825,0.7595636512309021,0.7404109140006865,0.7303937164442846,0.7155010712408645,0.6934701935118852,0.6617412591969138,0.6158077447035533,0.5561590921395618,0.5187203135457965,0.4937777608247895,0.4697829712626378,0.46754163488189615,0.479862006381393,0.5208697621844118,0.558519694356086,0.613084821014402,0.6680797972528749,0.7142408206375856,0.7475106533340119,0.7788831362209532,0.8008886519194318,0.8179845525848322,0.8262768421741633,0.8467615361642586,0.8386558683399334,0.8186748918439131,0.818142885793308,0.8181428390498153,0.818142839049818,0.8181428390498189,0.8181428390498207,0.8181429336238679,0.819226714060024,0.8414996815137608,0.8473485235486962,0.8400715160046293,0.8090401161294274,0.7644426930422918,0.7322142284675204,0.7135737298832696,0.6824855718106537,0.6724655358787697,0.6993490225556718,0.7619471790239842,0.8291211136366705,0.8751702506895125,0.885609772034063,0.8978687983994291,0.8898654595342919,0.8664052644908917,0.7806417374178158,0.7078785882630223,0.6327051352394788,0.5485570913063551,0.4755977685998589,0.3865259386247999,0.3016319189307479,0.23126055675051305,0.20837395413058157,0.25660333533511714,0.31192615921368283,0.4002767982667681,0.4953220988222746,0.5788942021908188,0.6565857385729448,0.7515052857826374,0.8466199361898346,0.9416045192430058,1.0,0.9469159439880359,0.8662360705813565,0.8219296378673224,0.8181457843561004,0.8168912146239196,0.79420489572649,0.7889249519235761,0.7889208681416218,0.788754656144703,0.765762147519828,0.7223408095315396,0.7009050639120957,0.6776358867275247,0.6388616330683696,0.5789895960095732,0.5236133664565941,0.495713677300639,0.47238329701970283,No
0.9172274498061355,0.9274387957619523,0.921716707411294,0.9197269791875691,0.9369077667092167,0.9381526158060192,0.9385566053309655,0.9517460434903016,0.9404113229706854,0.934426021257472,0.9057997213042408,0.8649274977681372,0.8456612788169027,0.8135823027156888,0.7918055520753482,0.7941113842247018,0.8274031673666298,0.8774675394623603,0.917966850719274,0.9537474680297398,0.9591935051905991,0.9581731580161632,0.9400563152251475,0.9097928950779841,0.8489312889936049,0.7813839193587415,0.7296630746395287,0.6639887473725721,0.5989065888162579,0.5465796087021695,0.47901089429267696,0.41039723204747247,0.3512125020788037,0.29387812259880963,0.22535835511331603,0.1566832364674906,0.08895997382605181,0.038077333027687565,0.0,0.014439372797269812,0.07190591996160567,0.1400051240355098,0.193219045885197,0.25681391794042563,0.32548221842151515,0.3941543016637885,0.4588396353189901,0.5113188949595973,0.5768724565615466,0.6198921975791332,0.670257559835246,0.7210692383674591,0.771966417660173,0.8295389490037275,0.874060141392087,0.8956640392221638,0.9089399639557381,0.8985985403885097,0.8960582748668564,0.8960485172150161,0.8905246421403676,0.8618502027483674,0.8506849998072314,0.8297171143589681,0.8055375032227516,0.7720699760312257,0.7507952878680437,0.7179162625484321,0.705203947838521,0.6878000317740143,0.6912832546551173,0.7137213451206641,0.746010330056115,0.7734017013631109,0.802701701480125,0.8284110636529909,0.8624689709169133,0.9038928159147304,0.9415708744304636,0.9758719965453437,0.9999999999999996,0.9980264053026557,0.9804604720795282,0.962331330382586,0.959203708736613,0.959201064710637,0.959201064710637,0.959201064710637,0.959201064710637,0.959201064710637,0.9592010647106379,0.9592012819325118,0.960431138765407,0.9768935710674502,0.9802470517632078,0.9802493624382476,0.9802449233651216,0.9759728272186865,0.9467598154820913,0.9124509591812933,0.8814178378229642,0.8705234647018596,0.8423862141474063,0.8339432898696226,0.8519857824304,0.8881807745977772,0.9334632905503879,0.968204956546741,0.9911263111185571,0.9846887717346591,0.9956185120054095,0.9927834652952545,0.9509917727426385,0.9002438513095821,0.8371882319906363,0.7857043277602558,0.7190429862434837,0.6516846384359285,0.6002506771334768,0.5340647064646831,0.46539171673066937,0.39809771503999336,0.34671270855063385,0.2804122849780937,0.21215342036250595,0.16383656844277317,0.12657978085743027,0.1248550729724136,0.17964181208843177,0.23983062833167734,0.2960716297490702,0.36460724255162535,0.432826804361365,0.48638716914273905,0.5493683432898999,0.6057834997784748,0.6653910634996518,0.7094674703563708,0.7502380995362334,0.8024515810890644,0.8540855582750582,0.9013344985385086,0.9341348324256238,0.9381490071858885,0.9381527669830301,0.9380997248064498,0.9288272899811072,0.9062336012603529,0.8960990149999288,0.8877447381783643,0.8557127497578518,0.828783315292585,0.7974696009442224,0.7688714381356543,0.7402457432884386,0.7277990954837952,0.7284858119135058,0.7459722265593123,0.7687822514437781,0.7972294599286665,0.8315689852511334,0.8695440522739921,0.9024304239409666,0.9318139007727217,0.9391882998669532,0.9554887887542618,0.9591978030492223,0.9591874175386508,0.9514967944263608,0.9346409397959654,0.9168855201572699,0.8984454877455708,0.8815276162137029,0.8750341656689127,0.8750583650112631,0.8840817340818719,0.897316238754807,0.9098157209943118,0.8968261315552626,0.8960562428566314,0.896056171527813,0.8960584634785831,0.8987414773089477,0.9158998996325542,0.9171041284807395,0.9159516685993974,0.8928189115100618,0.8530417851307246,0.816706412313188,0.7947700809569263,0.7846415463635581,0.7703729233713825,0.783964274697591,0.819567274991921,0.8622488733338827,0.8965455395890665,0.9226893418449595,0.9364814503666881,0.919511917407632,0.9075767430593733,0.8637428300982886,0.8085769497369495,0.748595656159976,0.6889810038463704,0.6321024737995833,0.5650893031318094,0.5137720807309476,0.44731309268687225,0.3786394879767423,0.30998423625592864,0.2492348217419882,0.19339399291500126,0.12626231400340826,0.08361256146876705,0.09238177498466005,0.15561491415146422,0.2242852293030082,0.2920832442678165,0.3446222770080385,0.4092645780351738,0.4752879004083943,0.5267889251117501,0.5926558149221317,0.6419582971089759,0.675831480319744,0.7270867802174745,0.7792042295398756,0.8253604998608375,0.8610719668004738,0.8748701752143684,0.8750078738002052,0.8750075924940441,0.8731459225975606,0.8559613799266983,0.8498240283066494,0.832404381702442,0.8075334185396446,0.7818537806656254,0.7492154912079934,0.7227138782751306,0.6932781536434276,0.6856069451375473,0.6855755742212879,0.6883779227465316,0.7156014514139786,0.7410757363699587,0.774669174374151,0.8066130298455434,0.8339653017021282,0.8708308364106103,0.875463062587233,0.8913227811966453,0.9127731508434374,0.9170995773316433,0.9171044692554267,No
0.9508828950185477,0.9724517394225436,0.9737351411353816,0.9730413618604907,0.9538225984913757,0.9349349166222054,0.9381194103773569,0.9471584739288716,0.9314144613941875,0.9129811335318281,0.8769030047133621,0.8464569954240599,0.8063426391858592,0.7720607500788268,0.7199505124533201,0.6886753457294259,0.6123854661536394,0.5301253492286859,0.4478583458948191,0.3655916791303797,0.2849086435606232,0.2412922361938028,0.2159625920926218,0.22960564404326567,0.2147394042159365,0.2318996928321062,0.23455940245350826,0.2678433729311789,0.2843178639124688,0.2575413427006401,0.24953343028399377,0.3077009825022494,0.3805691900586812,0.4235770749579859,0.4693970652724264,0.4480444555652152,0.43619874332207687,0.49632571803288306,0.48723647787853785,0.49890676458938543,0.570123279978239,0.6175720567898861,0.680818654740071,0.6921346145074909,0.6597646214670037,0.6686468299677375,0.6971536755274008,0.732657238191496,0.7601036301044544,0.7928759373291521,0.8255591536122115,0.865862680525971,0.887755751542803,0.9143971221308296,0.9204685518317306,0.9038081855184816,0.9124536936551677,0.8961897922470734,0.8966891084028457,0.9124293859712984,0.8981089885774813,0.9124297467979878,0.8988073535338388,0.9106807567242847,0.8950341347287165,0.9080827873687984,0.9006301067200009,0.8944878838607946,0.8944740739884707,0.8973467191648976,0.9194011653965402,0.9208936150646454,0.920893615064649,0.9208936150646543,0.9208936150646578,0.9208936150646623,0.9208936150646667,0.9208936150646712,0.9208936150646756,0.92089361506468,0.9205324079770327,0.9040041247225452,0.9175636557051399,0.9430541821331757,0.9424790002337455,0.9167169351453262,0.9044791495640951,0.9207181551438439,0.931710347848012,0.9447044117125567,0.9232564598405157,0.9208945338082954,0.9208936150647271,0.9208945944514446,0.9232452511401363,0.9299976630956439,0.9049837822971294,0.8983477464659999,0.9313145533067577,0.928768070190904,0.920179627785966,0.896371112236396,0.8694802813107532,0.8684615672767646,0.8864919064157033,0.9051879722593195,0.9408451988220619,0.9521838038920598,0.9860395499636376,0.9999999999999996,0.9878723586358,0.9543886749249695,0.894417938814565,0.8608349186082189,0.7950939875085061,0.7348861899376797,0.6553896879513954,0.5731238459336621,0.49085684259979523,0.40868073746254074,0.3397854497144106,0.27034678117994515,0.18834946056866775,0.1226892065568248,0.07871053353199997,0.09462993987247481,0.16431996538810445,0.22501714321542599,0.27767596392256655,0.3212929671077962,0.39088491016087135,0.4511740638956838,0.5309825998779165,0.5934837230999235,0.6685074117501952,0.7303430448440307,0.8010707049640469,0.8640228692324636,0.9178905550980496,0.9391140841599817,0.9503731523232575,0.9723445353432427,0.9737338676297616,0.9704823733347312,0.9493288954822758,0.9543168561039006,0.9680115458737419,0.9426961882055145,0.9217031246995053,0.9193599259246947,0.8889684201476782,0.8501692534528371,0.8229681738650041,0.8032123617854556,0.7556247563487655,0.7097607631582128,0.6698275837751422,0.6567726561135934,0.6599936918482405,0.685899692573186,0.7132757241508929,0.7364233780617808,0.7648341093302045,0.8058653098441657,0.8385117051464834,0.8532432936256451,0.8951818190272962,0.9028939837483514,0.8954514997070206,0.9154466348327612,0.920889843061603,0.9208936150649243,0.9208936150649287,0.9208936150649332,0.920766130032709,0.9050722545939673,0.8952201889963498,0.9145523368067017,0.9025591284342025,0.8960951469020659,0.9168067663638584,0.9158917789934393,0.8956626964429355,0.9037594586278659,0.9207622686502446,0.9319810793548089,0.9383044992622334,0.9212580491347961,0.9211444634476291,0.9362105110067067,0.9472559551345383,0.9414512392343801,0.9069551213229432,0.9140197089876065,0.9208883542726034,0.9220183424231183,0.9388489634337582,0.9228343981623595,0.9271591862207464,0.9256839538813799,0.9295955858029701,0.9316669414474261,0.9314261550923688,0.9468398384289514,0.9292897777356894,0.9209219698368574,0.9226738943505626,0.9436105473684058,0.9419295240599577,0.9223016713886696,0.9398031576524803,0.9473085199731686,0.94731437810051,0.9467796705512499,0.9246585514561638,0.895451767825159,0.8738625358179202,0.8704990568353641,0.8925837923145097,0.9171273389658343,0.96578868087841,0.978203671276479,0.9990049410281059,0.9893397609646812,0.9687184413338898,0.9228549115490954,0.874715363042124,0.7975658709567957,0.7312496806578737,0.6592890005956211,0.57706105768044,0.4947940543465732,0.41259655998234157,0.34234370185860685,0.2745780804408744,0.21537124194515966,0.16191687188751347,0.08750148134312719,0.032584049282499805,0.0,0.03267202584622719,0.09387190233012177,0.17323266785269853,0.23426293981988167,0.3044962617961482,0.35978938307862984,0.41468207049530026,0.4810385857678008,0.561979491937199,0.6239372712882134,0.6995031152039277,0.7607888806546765,0.8308209744723052,0.8777020469003998,0.9376387034763334,No
0.7425980467332467,0.7606802174679252,0.7611749828259686,0.7786553547119608,0.7861490259617989,0.7628038530971937,0.7609258658214113,0.7609256837504512,0.7613490706553963,0.7821897479038444,0.7680891382720993,0.7127506647547195,0.6558226040715667,0.5814414747771499,0.5204638532862136,0.4504811005733469,0.4369510055038175,0.385673404329129,0.30155835647074625,0.21708760864061905,0.1326170344410782,0.050048734134108486,0.008720237928466545,0.00020270178159087493,0.0,3.074708665451453e-08,0.00035442450335754216,0.032414230990897686,0.06023169391759797,0.03337672204406328,0.01293211170172981,0.0493312360974798,0.13070500951416353,0.1837388130359603,0.2385476293093607,0.2622039242411054,0.24088924769716602,0.2845207266912313,0.28627188087403965,0.27989876780189515,0.3395422503633343,0.4237833766437413,0.5032849925837999,0.5289042871646039,0.5381061135878156,0.5394957966124476,0.5818205966966623,0.6414494420132968,0.7224209105165116,0.8067464575149064,0.8685766631114609,0.8227926279619187,0.7706527240328169,0.7285936518281284,0.6870664598679861,0.6584255281154192,0.6442189605246238,0.6599628545472314,0.6621250512941339,0.645045078270643,0.6705616930585911,0.6941735786612915,0.6737328779777254,0.6731256371417604,0.6680748022285128,0.6453049952199379,0.64527555810231,0.6649683486437645,0.6437771912316244,0.6171563142397849,0.6145943916815462,0.6145937849699541,0.6137282392535583,0.5909979617457379,0.5723447896548546,0.5624339162307921,0.5897548246661017,0.6144649865105052,0.637258066953934,0.6465534546257681,0.6710859558375297,0.6731389053533192,0.680940750674206,0.7018020142455166,0.7019143763218993,0.6814427891513022,0.6534753943964393,0.6470729709535528,0.6716189859748001,0.6754852271157565,0.6942351172601056,0.674464719805643,0.673126686159967,0.6731330514246467,0.6779786511207408,0.6994670696379197,0.6758621955105637,0.6731283300703774,0.6731265263957278,0.6723358887302524,0.6501457149470182,0.6438696731194584,0.643860155682888,0.6438601556828907,0.6439149344065749,0.6547351379496158,0.6548539993933247,0.6193136759629301,0.6145990318257368,0.6102369424049963,0.587219031269977,0.6009900197129516,0.6380766581952546,0.6558211107363787,0.6730394929363683,0.6755924345280269,0.6997477175261224,0.6883737439697484,0.6895212977074854,0.6806794067358632,0.6742077018634989,0.6961796443937072,0.6818190320991881,0.6280804337697798,0.5719258078751315,0.5157701097832552,0.4603808827637845,0.4462307460976609,0.4889209282306002,0.5460476899874394,0.6250962819512713,0.7095341385284906,0.783674521295934,0.8458659921375578,0.8332016601562247,0.7733752367280848,0.7289641947818968,0.6831421940337075,0.6865480537071189,0.6829523675857301,0.6843310558826152,0.7123429509813919,0.7153590788888415,0.7045260609434836,0.7235014879730697,0.7040777524370601,0.7023926830848612,0.699935397589285,0.6757037475062262,0.6840302686107158,0.7012017206631578,0.6721107614732054,0.6450622710662541,0.6510338591019407,0.6605373066856908,0.6335008890001967,0.6193119888268503,0.6463361938048751,0.6649687151974302,0.64484020400893,0.6654093395764065,0.6992997698545258,0.7193767075482782,0.7471324520195983,0.7619390488738995,0.7849936782684761,0.8128072977007692,0.8197796957755532,0.8398511679832152,0.8487051536113075,0.8439575254338898,0.8078012186098436,0.7655735969315876,0.7339146922529816,0.7443205321853288,0.7533667567654962,0.7347991004160663,0.7586988227023124,0.755665080921708,0.733017229061093,0.7316594299973991,0.7316656598546478,0.7364312852964154,0.7514233376210528,0.7349366902444752,0.7592325383186731,0.7608741977047258,0.7464759263162595,0.7491050581185341,0.7608895779606,0.7609257416276485,0.7618115180544498,0.7836179587332461,0.7718458463003399,0.7439879951524127,0.7317521966567302,0.7316706472007564,0.7388365483441799,0.7604067651874997,0.7753726487244794,0.7909679127661393,0.8113006001117657,0.7932260661830908,0.7904898683188035,0.8086668036277169,0.7959752037630992,0.7902005292147409,0.7901915148825154,0.7869741350175001,0.7342621473427204,0.6746809286919193,0.6115463624161972,0.5626228477724782,0.4983788452668563,0.4775220206669095,0.5217676920902719,0.5870555241044721,0.6575081224301291,0.7419283224496747,0.8233011293902903,0.8831836951013656,0.9657298216914114,1.0,0.9260081854658289,0.8635781129864117,0.8105399333063259,0.7806945487051635,0.7610261532666938,0.7424676679670297,0.7342615768833793,0.7584866922852358,0.7462832681935403,0.731819595186936,0.7316587204030549,0.7285763748604577,0.7046564845041807,0.702395242293294,0.705165885681291,0.7235014879732722,0.7032675746577057,0.6880172705609668,0.6732944837835353,0.6731260079158048,0.6701826097551908,0.6461815490033391,0.6439036732530639,0.6534185098067136,0.647926328268615,0.6653059783638371,0.6990305017101788,0.7041744906808969,0.7437206736814455,0.7847918169135637,0.7901909891677654,0.7901920092474715,No
0.8845114998328691,0.8895466351056607,0.8831512052841735,0.8811368515247202,0.8665960842557991,0.8485234342765553,0.8236514344943702,0.7874731627905449,0.7515598612148904,0.7173951059012524,0.6744896441696218,0.6403070054262394,0.6008141000839069,0.5715458086583889,0.5580379291003865,0.5587960007071653,0.5826937470336941,0.6276307887450023,0.6627006375560527,0.7001967473865913,0.7289415731569067,0.7355852767872302,0.7505494268461042,0.7323703583673431,0.7145922743433244,0.6934557834183483,0.6447760366231421,0.594624744574467,0.5625568454410863,0.5574133129359267,0.5573096161738533,0.5582126687004152,0.5781327498823461,0.5759316912927739,0.5648690997556818,0.5925198258397035,0.6334913528080997,0.6631718219097678,0.6680610651441494,0.6582884376586349,0.6865519151186499,0.6821968368727631,0.711792781873263,0.7521352913220154,0.7894419717608616,0.8237555554583738,0.8633219161888541,0.8968768005150425,0.9139497758203938,0.9148280838742648,0.9056048821880576,0.8982982739042091,0.9121228007010438,0.9218249869478585,0.9220997303765004,0.9220997303765022,0.922103830750566,0.924481314904904,0.9345492409456972,0.9397650424920498,0.9479525988467215,0.9481561815969477,0.948156181596949,0.9481561815969513,0.948156685845865,0.949018913964379,0.9594201423427156,0.9611826187498305,0.9608681048752179,0.9532989509777261,0.9482996791361358,0.9357086949977949,0.9386693533706838,0.9599408192618104,0.9793240020725329,0.9871394391350798,0.9872613477456902,0.9917375348019415,1.0,0.9907652528005131,0.9548721363443824,0.9086451822721293,0.8599353406172798,0.8196532386230513,0.7697968399230426,0.7191659573420874,0.6685346962451229,0.6179034351481583,0.5674948354978775,0.5251958864653343,0.47901756532718953,0.4284066163705189,0.3777753552735543,0.3271440941765902,0.27656850695777924,0.23223223360553336,0.18818479150411616,0.13764748465810905,0.0877885002288803,0.0480685434486432,0.025217836774831692,0.05182027957921487,0.10173645405852971,0.1445662576613138,0.1901500329103567,0.2407490765025586,0.29138033759952275,0.34194682576804847,0.38665485827184676,0.43031429548859745,0.48087715637716366,0.5315064134113043,0.5801836345188287,0.6206452614141207,0.6703610151870316,0.7174689088248638,0.7586175516489071,0.7999642637210291,0.8411510394715283,0.8752298740200324,0.9040702721389713,0.9196081859243121,0.9159841725529487,0.9064105395525868,0.8941385306733736,0.8814493580112481,0.8661415200213551,0.8525551686894839,0.8299990830768214,0.807753342404022,0.7846010401956551,0.7610975925458625,0.7412537390702258,0.7248761578944576,0.717652417110946,0.7365569952252713,0.7624581120728338,0.792467939558466,0.8261374014507665,0.8584584770131505,0.884445183027383,0.9071042738523856,0.9156780910683042,0.9102743585992035,0.9161976809889025,0.9100181471040734,0.9197232442083458,0.912335906981486,0.9090826922513444,0.9090715047663624,0.9088666080792436,0.9010038552329562,0.9063844429406087,0.9205386685182813,0.9220987100731604,0.9220997303765888,0.922099730376591,0.9222099496789284,0.9291693985111258,0.9350795186493861,0.9351279559868151,0.9351278882267087,0.9346851537655247,0.923334718137041,0.9102033212359415,0.9096723001299352,0.9236288572054101,0.9418624312077886,0.9516342339820318,0.9663635444197265,0.9633689921307904,0.9570525239102099,0.950577380993463,0.9497340503017595,0.9148080747894505,0.8658001821615575,0.8237818440334204,0.7772896870799539,0.7266763462233474,0.6760450851263828,0.6254138240294187,0.5748449742795616,0.5308670259402251,0.4864698595081367,0.43591700525178,0.3852857441548154,0.3346546305357345,0.28465788551704674,0.24720563593559053,0.21876314222056936,0.17120789387853064,0.12058859743120043,0.07310149684819,0.03215795103560426,0.0,0.011527268521557055,0.05283595642376637,0.09296810953550949,0.14204215710349888,0.19267236944689126,0.24330190488960213,0.2921817976617904,0.3325846387584177,0.3821695150674078,0.4328004493214961,0.4834317104184602,0.5340629715154246,0.5846942326123887,0.6351863023436592,0.6781975242060478,0.7234892585556285,0.7671262038511335,0.8048880091753752,0.8388625884574639,0.8716949267050098,0.8918119155527395,0.9010346926461397,0.9021350160173545,0.8961136146735265,0.8930684049683868,0.8808536815497265,0.8696109156760277,0.8507383605521834,0.8311538477509579,0.801962820309468,0.776232345937585,0.758083020059467,0.737983495189733,0.7277258734565311,0.7452573239457032,0.7777016024291057,0.8048502996594853,0.8357130410422693,0.8698528569033654,0.8994648086655497,0.9196051523312834,0.9220914591880107,0.9192623763384788,0.9131600256231382,0.9167195680804681,0.909266304053904,0.914166086031238,0.9116773854662852,0.9139380154470778,0.9219237568163892,0.9238462775791341,0.9340895531582727,0.9386287718292028,0.9478204411280982,0.9484023167605979,0.9570675471790131,0.9611701562864354,0.9611844072073255,0.9612016322986516,0.9642153181866369,No
0.8717991806992265,0.9075275846763198,0.9301434745540211,0.9326970500284029,0.9129065450917535,0.9127554655850707,0.9127554655850743,0.9127484889343958,0.9038304247087705,0.8699430093673781,0.8348382958114886,0.7855082263883189,0.7465609573403356,0.7085956608089043,0.7180199370133273,0.6964996322474644,0.7121880750368517,0.7404321807309824,0.7773695695129916,0.8202856262877454,0.8678241827236342,0.9063554812274264,0.9280902543362659,0.9831235539594001,0.9997503738731099,0.9737406613896509,0.9510782868673244,0.8999843570310606,0.7979894192456305,0.6827275485118998,0.5787949950523803,0.4947656013753292,0.38076701318309514,0.2938610916331621,0.2229879900363656,0.23772570128245452,0.3104326398251436,0.39551302964003376,0.43858255395028056,0.492128030020754,0.5961868852649985,0.6917681981955894,0.7493590973645077,0.792020431664028,0.8601198829776617,0.8691209575271746,0.8691260737376796,0.8691250166693969,0.8624792320434684,0.8276672754764673,0.825496798167725,0.8249275399825313,0.7938109561332247,0.7554529012269837,0.7186981498106402,0.6946151029223344,0.6695070621479369,0.6323401825340129,0.5663289514270353,0.5210739325432012,0.5201948700961632,0.5369532401722772,0.5922664802392541,0.6304570014578843,0.6852765775052454,0.7239811853027609,0.7759029147375243,0.8145997218250889,0.8057595871125969,0.7828848150013501,0.8132823127991324,0.8271233613748601,0.8493988973289026,0.839035034448731,0.8685880245709621,0.8690544156844062,0.8468199540246397,0.8476278427951875,0.8682019843596764,0.8332028641265818,0.8255006036136292,0.8254966818902956,0.8254966818902991,0.8254966818903027,0.8254966818903062,0.8254966818903098,0.8254966818903142,0.8254966818903178,0.8254876756685317,0.8151419978255552,0.7831451266371197,0.8035821907878384,0.7965880943975643,0.7459756779119733,0.7237958076545894,0.6950673098464328,0.674732234948169,0.6520174643898589,0.6825429120588931,0.694600208361881,0.6994543903267356,0.7484188773657925,0.8048984812579514,0.8421837803848735,0.8806921666567016,0.896302788691913,0.8693889546142604,0.8692846969834829,0.8896290729671232,0.8765245105963011,0.7658675102445835,0.6505513753647101,0.5352329043639292,0.4199144333631466,0.3066568620637149,0.23449680872861478,0.18289752032872464,0.2100667782713872,0.26692234165761786,0.302629537007963,0.33972106061427176,0.42608088877624617,0.5202954842754934,0.5984255016553517,0.6746839302451066,0.7307941564679279,0.7409664407377514,0.7861180874605669,0.8296248229890839,0.8664498077610334,0.8687262145306338,0.8400619887692535,0.8257479206658873,0.8477620543170588,0.8691045518276121,0.8691260737378999,0.8658252238501136,0.8208312657871355,0.7632356736235852,0.7248879283649234,0.6697091959405377,0.6318669644369708,0.5655871470487055,0.5210044021276019,0.5286819053724372,0.5838784701694983,0.6498144419197951,0.6960288349135109,0.7405545254783288,0.7801770963301502,0.8187196573858335,0.825495286560324,0.8254966818904643,0.8263841115706985,0.8565746927081701,0.8346787144683896,0.8134356647071277,0.7827092979920467,0.781867290043003,0.7818672900430066,0.7818672900430119,0.7831748707367252,0.8166506031077834,0.8533195452032096,0.8543695511939378,0.8408599885219186,0.8952294750932168,0.8992598089974972,0.8697523284638944,0.8691260737379896,0.8691260737379931,0.8691260737379967,0.8691260737379993,0.8691260737380029,0.8691299954613445,0.8768322559743025,0.9108485968777007,0.8764941301116487,0.8657375760377182,0.8293182305597648,0.8046382673317698,0.7510629781938611,0.741051071161678,0.786438789525663,0.824734074039517,0.8255010052998459,0.8342330521700863,0.8859352671242435,0.9418333694783181,0.9641258551726404,0.9991272704658529,1.0,0.9813268681506706,0.8801433369244878,0.7648432724398715,0.6497519231969191,0.5600335939224088,0.4623963467341099,0.3471987802842236,0.231897687486045,0.13428087505182074,0.04642165523621333,0.0,0.04325308634812863,0.12124635994613353,0.20893411716674404,0.3015858675518368,0.34749656884800295,0.4137780238188249,0.496169784862877,0.596866774786986,0.673394730214274,0.7497502844429844,0.8126941064569779,0.8495379968882304,0.8734320229720476,0.9120749979868892,0.9503563840882485,0.9563408373715996,0.9345001262048296,0.912630130669398,0.8845776585086789,0.8336913388877685,0.8225966868498311,0.7856331220362538,0.7467162960958875,0.7077988464852307,0.6700040759457009,0.6332374430818319,0.5963633063450429,0.5414118675329354,0.5202459868242508,0.5236071630621941,0.5715294319232846,0.6138365351941593,0.6649225424443816,0.723105828286049,0.7808439022627383,0.823645039988433,0.8062155096993564,0.7820711757225114,0.7818672900431931,0.7818672900431967,0.7818672900432002,0.7818672900432038,0.7818672900432064,0.7806881263860275,0.7453644360960388,0.738243289243993,0.7412715046745468,0.777693921746712,0.7788981127429659,0.7427125425501337,0.74797534085985,0.7811181082085792,No
0.8014416990218027,0.8014410584436584,0.7985618536838537,0.7713111129691921,0.7223001092630827,0.6581548629190381,0.5995699798422267,0.5404436897306804,0.47663281084659825,0.4027407751992289,0.341355334553441,0.2773092532361421,0.2199635868281007,0.2729726726961994,0.35263330032378093,0.41603831401363234,0.5001592053224595,0.5854212961028313,0.6568876144385127,0.7276876777599144,0.8128357583015324,0.8934648182520526,0.955585295134993,1.0,0.9927681462979585,0.9333777920892201,0.9141340825690554,0.8760430555624543,0.8529254889496585,0.850449185239599,0.8348577452701802,0.8238884192368081,0.7862455542248243,0.7423887957976119,0.6875774787092146,0.6590984616428148,0.6432679279153612,0.6095903107258716,0.6273212371492267,0.6418575270529852,0.6841329553803526,0.696062411103493,0.7151985304641961,0.7158302565047743,0.7335747836998641,0.7182092084052103,0.6881499386704677,0.694814354311605,0.7151522062952171,0.7155533729110521,0.7151075568268404,0.6941900573904807,0.6882139520338493,0.7134226720529959,0.737807285684366,0.717475123529459,0.7321836426608215,0.7414294751940469,0.7173704172861424,0.6958552891731857,0.6869463272756491,0.6928833490961912,0.7145499067381484,0.7155328885112517,0.7067765680221356,0.6873688543152436,0.6869922992166115,0.7012649760329186,0.7132549761357181,0.6824189074424458,0.6725607879851738,0.6787771410459209,0.6416592240000032,0.6110589020534327,0.5764642222391396,0.5706435651822739,0.5480679219669646,0.5567234332576225,0.5942194881231089,0.6228948645849695,0.6513459082144397,0.6792091700276632,0.6904622773843707,0.7169617171051215,0.7528671653249814,0.7712626118988428,0.7526654445478993,0.7705430930436652,0.7717069016592522,0.749913142360894,0.7441848725625198,0.7440750282650299,0.7312513490105568,0.7021551075937129,0.6604314173477812,0.6145378096410186,0.5570583969604526,0.47826644747939007,0.39648351949132277,0.3350268849522511,0.26208099855586653,0.19456671568736628,0.13027985070431303,0.06281125590399306,0.0,0.02160075410577811,0.10608328988121851,0.19022156131830492,0.25211392664960997,0.33343912589009506,0.4187615769506108,0.5040090750593631,0.5738254078030582,0.6462284973554882,0.7304192430279217,0.7921502272428116,0.8297512793715267,0.8586770104168053,0.8774552500374302,0.8389874002094873,0.7873005606980952,0.772851595275684,0.7708451693817233,0.7460342355227754,0.71181329159488,0.6691795987654956,0.6267415952058313,0.5948156209674025,0.5738250776856786,0.597809954335994,0.6278288297380197,0.6419137168254982,0.6790027284578795,0.6986920264711838,0.735728232555048,0.7296689731516475,0.7161125498469696,0.7345388427437056,0.7312146079440982,0.7427634594378256,0.7202295257474844,0.6927714501204543,0.689449141632239,0.7121274399576878,0.6954060234236774,0.7129299036638646,0.7155488335144016,0.7117010420001098,0.6881365049704788,0.686326216046095,0.6667771054961538,0.6835000749468696,0.6653986493509478,0.6582980865352992,0.6595791003468419,0.6836256784008796,0.7039433168368161,0.7053300842608294,0.6871529361898947,0.6869239567559502,0.6865613742027934,0.6668705517552436,0.6388242993389897,0.6296652701128371,0.618136669890414,0.5666247183186881,0.5442003255386396,0.5493500981450667,0.5912045519000886,0.6435217526167563,0.6862868525405226,0.7331549518843854,0.7761542178774938,0.7999832677824985,0.8061981226686408,0.8423836410115735,0.8804991660164312,0.8873026134030892,0.8803998591622442,0.8594333585472169,0.858700570154399,0.8586884076625045,0.8523859828430815,0.8308887465447654,0.8238870410230161,0.7874343428647403,0.7512026982746391,0.6731907822378318,0.6099978009715876,0.5437812204666947,0.4742464731744489,0.41079286682034066,0.3359629791468626,0.27437580524471183,0.21182031415875358,0.14509375472807307,0.08321010316474098,0.1127394629103966,0.19563115180181168,0.25315704054800836,0.29390367136514417,0.3677031363886254,0.45300462733385327,0.5383280072056458,0.6165537360884334,0.680852558378354,0.765590602458305,0.8338726136995351,0.889717643087387,0.9384192270522673,0.9723678938048694,0.9631325714776455,0.9156226255557929,0.8782603747700524,0.8473373563666149,0.8041206873514266,0.7822517215161655,0.7518404421593861,0.7096323040456598,0.6669316205448377,0.6326156249876016,0.6127410638245578,0.6238490470376918,0.6297153961598454,0.6440619960596656,0.6937748508618018,0.7281868816360699,0.7282079162538304,0.7501312290314512,0.7723510172089538,0.7551982434565385,0.7240892411313409,0.7407578590379069,0.7202524746292669,0.7155549711209295,0.7155533923222777,0.7153838271398243,0.7015741937901421,0.7071506053504093,0.7014547130878634,0.6869941499911079,0.6867936938600607,0.6762206850116694,0.68457020473158,0.6823016332651113,0.6593871731243013,0.6583128927328499,0.6670338354084704,0.6950643650497774,0.7112538219074827,0.6763567495077805,0.6662754705019722,0.6865227707285406,0.686923956755833,0.6869239567558321,No
0.7339092635687585,0.6992621990278627,0.6886455184968545,0.6886410077133158,0.6887130872412799,0.7036421736366512,0.7337297003524741,0.702929154514293,0.6887002612927509,0.6886410077133229,0.6886410077133256,0.6886410077133256,0.6886410077133265,0.6888477597009048,0.7146411370570371,0.7346139577613808,0.7346309592300644,0.7346309592300662,0.734630959230067,0.7366003776546579,0.7728202062617768,0.7832824309804627,0.802401507487482,0.7808439161063303,0.7738263946321711,0.7210476096568819,0.6609538544615106,0.6427532152054605,0.6299256882485622,0.6108822524424609,0.6505904082368774,0.7043380042283038,0.7459394398267083,0.8023589773348387,0.8604223050181856,0.8725912527792934,0.8726008137802825,0.8727773331748878,0.8972767535954205,0.9575877048897201,0.9840411270629552,0.9153802204128105,0.7974989134137784,0.6957281684698522,0.6023827645419688,0.5056083725527358,0.40739571948372255,0.28708560750941636,0.1722695156176064,0.0919480866360578,0.03796753915331941,0.009419954870987013,0.064322695436144,0.14648097893199896,0.24927066172296897,0.3365899024657013,0.43370765074773576,0.47810394518898924,0.5488540406546472,0.619792802882392,0.6586446764804874,0.6993613485829417,0.7339433420483159,0.7346309592301017,0.734744265021213,0.7524436565790413,0.7565467802504804,0.7347937365369921,0.7337977638633397,0.6917690297982073,0.6453203111819894,0.6348163312590476,0.5940733829238276,0.5433727236371144,0.499305362269002,0.4455799596430525,0.38546936975759927,0.36144078644838107,0.32351845867821094,0.320904555781123,0.34467170425862825,0.38310113633527276,0.4412028861666899,0.4859699131922097,0.5511947250160949,0.6006407046939541,0.646310840850262,0.687659343112573,0.7279853597325481,0.7346301035763414,0.7346309592301274,0.7346309592301283,0.7346309592301301,0.734630959230131,0.7346309592301328,0.7346309592301337,0.7346323450172436,0.7375795629029547,0.7756754038193892,0.7806209107468725,0.7806209107468742,0.7806209107468742,0.780620910746876,0.7806209107468769,0.7806209107468787,0.7806209107468796,0.7806209107468813,0.7811798361353306,0.81089494665353,0.7922992423662611,0.7808640128343649,0.8086846421734464,0.8265918890709978,0.8178395576673667,0.7421947546302894,0.6902206733354621,0.6499503153639976,0.6269504785186726,0.5973472684057741,0.625707198700975,0.6858086911383259,0.7344250760199644,0.7830831942975252,0.8423817477041782,0.8722720637522556,0.8726008137803634,0.8726049897428592,0.8824291889161291,0.9411925011703541,0.999234365975588,0.9279439552721751,0.8373619858080215,0.7544191704240051,0.6744543014711022,0.5673110195608295,0.4468868130811279,0.337502966592111,0.25077504730504074,0.13173868203035255,0.04928821752215917,0.05533827833492477,0.11600515181866022,0.21495067192379302,0.303479798479076,0.41943852390534087,0.46054841283492376,0.5043117963578903,0.5665395354468235,0.6388570876578274,0.6851449734178123,0.7340554993001609,0.7742813279119547,0.7806207247352228,0.7806209107469178,0.7806165580733175,0.7723772242334537,0.7360252919553396,0.7036914294688668,0.6816943835176019,0.6411609318003126,0.5914660625867061,0.5516914786569549,0.5159626754478426,0.46375855815480005,0.423368072028774,0.40224032313023006,0.3679463765847526,0.3667113470963397,0.36692726047572943,0.39529973346481384,0.4510278195279147,0.49283135590805127,0.5539733245648062,0.6324788936875789,0.6714219313698857,0.6895818726831182,0.7222605909015654,0.7346211006105117,0.73463095923021,0.7346309592302109,0.7346309592302127,0.7346309592302136,0.7346309592302154,0.734627201794031,0.7266592875279656,0.6920902519385459,0.7259786130974231,0.7639110677190057,0.7470443245801714,0.7497584253187259,0.7802007511608391,0.7806216454931425,0.7831615205663471,0.8161758187862933,0.7840701549720226,0.8096388131133931,0.826596688172736,0.8266108622636947,0.8266108622636965,0.8264954012042853,0.8022591971103905,0.788546389904698,0.8254551475356848,0.8045845263439144,0.7455882069921866,0.6860382635183644,0.6445298323477147,0.6426510561967769,0.642816581921207,0.6662344574604457,0.7265278942372966,0.787982934895016,0.863754734403015,0.8725967587255505,0.8726008137804451,0.8726115119832798,0.8843481819896937,0.9461360853303038,1.0,0.9408268681497436,0.8302492012247535,0.7342594451006672,0.6519072201620508,0.560389915704472,0.44021651426555497,0.33376657930601183,0.24453330330433065,0.12964563479285385,0.04897975345937322,0.0,0.0074227365453136684,0.09724676298063262,0.2176497983568737,0.33731025762593525,0.41248509424020785,0.4614969253920673,0.5211456530858918,0.591589974249751,0.6430538983413303,0.6771990442838227,0.7152669025666683,0.7346145529989956,0.734630959230266,0.7346309592302669,0.7346120976446606,0.712656904285268,0.6859194603782166,0.6477718142817217,0.6376740492751845,0.5994995180221698,0.5720707355942265,0.5164315351686648,0.4750576145588008,0.4210825035788366,0.3812468274289156,No
0.6777621081392118,0.7203261024892846,0.7523531977743074,0.7907715011946559,0.7717890705144281,0.7970571115335954,0.7994421428498697,0.7994423979207275,0.8000749405491305,0.8240681794632954,0.8321401428608493,0.8072193650184847,0.8046752143570215,0.8237064379994763,0.781466568982573,0.7504175903520238,0.7292566236709703,0.6918505078376871,0.6661902887345308,0.6659498627007121,0.684869674861261,0.7151331200473416,0.7329928659013936,0.7562040192692132,0.7678748092759085,0.7944599992504999,0.7994419488796707,0.7994423542774589,0.7996615611138607,0.8187214940071641,0.8211103849835846,0.7997111675850395,0.7994423712498637,0.7994424338052664,0.8008162970945003,0.8265889004219815,0.8328674949003583,0.8328687286208707,0.8345531451599149,0.8608195549439888,0.8662944715911616,0.866294913843296,0.8664931757251999,0.8841086893885359,0.8763401862049998,0.8585693698102279,0.82744086591756,0.7848928745271309,0.7417168412845054,0.7232145998267656,0.7023022280016287,0.7315828730578877,0.7629998525972956,0.7987540136346096,0.844903463404032,0.8895510368883306,0.9217746751764508,0.9677218411612243,0.9991357116988651,1.0,0.9999698589402994,0.9808585433981625,0.9088870211452598,0.8591639057222347,0.7781496559591776,0.6859079567370632,0.6172498923227208,0.5328096516460832,0.4398809238609367,0.3528328044870461,0.28590643632177404,0.19748942531977054,0.1427137591152663,0.14212500725442023,0.19580994725399936,0.28533334994738535,0.3782041486881331,0.4591740352442786,0.5307703754746882,0.6040920775607335,0.6820862386230528,0.7495968387986416,0.8217051387331988,0.8419195678617077,0.8728480988629794,0.9141800654323733,0.9331062165116171,0.9354431027419894,0.9626812660279969,0.9677470054449282,0.9932012858215185,0.9990746633827943,0.9723607819149782,0.9665599331475727,0.9555900247886715,0.9322377103595612,0.9043684449624161,0.8947965609571007,0.8555499052157343,0.8232801452404734,0.7796660822743471,0.7682139139247317,0.7966064342695143,0.8324992962188018,0.878268102925567,0.9101544982487759,0.9329118223930681,0.9506913677784699,0.9665392592977948,0.9665737531920922,0.9665733904677589,0.9621622447541753,0.935242736108159,0.9331475878516313,0.9331475791229726,0.9350624061376811,0.9616951884540663,0.9665732585680145,0.9655842188970256,0.9382729141240622,0.933152565097271,0.9331475126881825,0.9336853717220324,0.9504694375387555,0.9342965179801519,0.9331473255069147,0.9306820328884635,0.9025262474127995,0.8814983951733586,0.8658429720184344,0.8386057645046714,0.7925486332147331,0.7457665158410167,0.7050874891257015,0.699174498242388,0.7042916896216997,0.7346849011823515,0.7740963668713476,0.8074952479670179,0.8493855567932682,0.8711285017594879,0.9230014957067247,0.9352300109577927,0.9621417695163688,0.9553120945301732,0.9250709379876181,0.8807099632099717,0.8185694986926215,0.7511435929276464,0.666776936881341,0.574810621689644,0.5089531253067676,0.4213922977036626,0.32878282198408293,0.2573900852566595,0.17595713681288405,0.08828798441450303,0.03930717550591023,0.04632492994845805,0.10445379626374951,0.1961963458793461,0.2874800268208473,0.35419957089987,0.44158384939338813,0.5319966506050653,0.5973231960731029,0.6800417522906752,0.74150254679284,0.7659809686436114,0.7784157728288257,0.8284524037270984,0.8328683062508588,0.8328686340605538,0.8328686340605564,0.8330702030405392,0.8513175106867932,0.8636679808449648,0.8356651702795688,0.8320526869782228,0.8056167407620132,0.774860745309164,0.7658467117775016,0.7449371893680423,0.6992411716650668,0.6673572990393204,0.665740270799839,0.6690111675226751,0.7077910185623422,0.7527633937695022,0.7835465725325674,0.8138630716774786,0.8327840220790153,0.8425149261638465,0.8657736442559862,0.8662826564387167,0.857760697247083,0.8335513119907683,0.8328755400991801,0.8395377801275927,0.865240953578061,0.845524256542534,0.8428164960998723,0.8612811877100244,0.8349238234328,0.8328687465633449,0.8328686340606115,0.8328686340606142,0.832868634060616,0.8328685293166913,0.8318638716449644,0.8044291931786365,0.8074763545303618,0.832179690272131,0.8310986104804758,0.7963157177496889,0.7503273728540121,0.7184650223568303,0.67597689717529,0.6657479283354117,0.6659718751068793,0.6859566741845615,0.7163124793941131,0.7473286980447549,0.8020208975390721,0.8327281741362951,0.8530981750934128,0.8937736490322168,0.8984488662011563,0.8708318709312364,0.8612918287498621,0.8215222903711332,0.7648818895427443,0.6743879876691263,0.5814807199899414,0.5029571107819262,0.4287879315728498,0.3360654308394109,0.24971529643526313,0.1823585827348264,0.09069135693493635,0.010330306001334222,0.0,0.04019298753391176,0.12176090894654745,0.21458223904461793,0.2942266678340433,0.3673000513980025,0.45812231417011784,0.5242488927193056,0.5974048489331008,0.6571460600109864,0.6906467148034316,0.7365727624121021,0.7713605006107409,0.8105027269321958,No
0.9986420468913737,0.9924378886565299,0.9785200066635347,0.962108660615764,0.9313094971618381,0.899982453017214,0.8684328854053169,0.8306917331659873,0.7993766149215471,0.793625671322109,0.8085669925163521,0.8269047021144882,0.8605300229186414,0.8933670233986071,0.9172431895037563,0.9420703851145009,0.9573394553024861,0.9605763621466834,0.9605793976188437,0.9591543561434701,0.93911542535202,0.9389038305973973,0.9443278432308868,0.95705010474075,0.960580368074778,0.9632928069682754,0.9764958150036049,0.9708545238728661,0.9606739398588986,0.9520086892356976,0.9454361368523991,0.9560420412840105,0.9209369832384127,0.8869196920559919,0.8626765065667104,0.8431475824114898,0.8481249210890227,0.8761591312976047,0.9081934035332022,0.9430877790018442,0.9725370423152437,0.9809540612213676,0.9937850733693319,0.9963434777522848,1.0,0.9497825955667931,0.9007609105512189,0.8414062329779384,0.8023347496405813,0.7496423540643957,0.7005148437707627,0.6398415540050721,0.5771884088215624,0.5145343633918582,0.4526528499741067,0.4030614145688811,0.34349005133634725,0.28084273843636254,0.21818896744660643,0.15703184832353134,0.1081154969994782,0.06849205336028463,0.09670229976163247,0.14539658148828227,0.20698333355678633,0.26281668286722404,0.315588993824206,0.3764478641981741,0.42551440256948814,0.48577796213625657,0.5357355332236113,0.5911508107833079,0.6384362734850164,0.6871884829186685,0.7405782977576356,0.7918214524566154,0.8389420393891021,0.8827749229054804,0.9201428296775154,0.9267119051029691,0.9231877583984032,0.9097851850910694,0.8961607882049929,0.8916088898630736,0.8773413330075619,0.8565704405316579,0.8320884105789705,0.7976962622347705,0.7707154203887026,0.7428816012144037,0.7259797104524965,0.7402938178888614,0.7711635756533965,0.798122078909218,0.833692515373206,0.865247562446219,0.8899822114992046,0.8855762534378777,0.8760899415261831,0.8759092885658264,0.8681604421214772,0.863080171151799,0.8754805320180377,0.8781520403802028,0.8915552701789031,0.8903650395312224,0.8595464431847164,0.8272097364783537,0.7983711292831548,0.7915043847150143,0.8009931607247962,0.8082157200032825,0.8060701499279253,0.7757778012962908,0.745469509549403,0.7156281446757289,0.6937806586199771,0.7009703543672039,0.7335568382437421,0.7661304349448366,0.8020425175561039,0.8324048539013607,0.8545609288048501,0.8788009212518131,0.8971252288041107,0.909333547572774,0.8944018607575859,0.8446026360116532,0.7911752490688269,0.7286465991506783,0.6659951234768551,0.6062061603810234,0.556789153815457,0.49495466856887615,0.432300928765478,0.36964688333577334,0.30699283790606957,0.24433879247636536,0.1816847470466616,0.11903461862349296,0.06031881927363614,0.01404778637863946,0.0,0.03521767798597142,0.09125446242005886,0.15363158091633267,0.20558251955642648,0.26228607221414846,0.3235808348733902,0.37251423557365326,0.4192479344617186,0.4583995715935365,0.5050999582094224,0.5542027336843245,0.607087634298932,0.6584424138322276,0.7082689097040653,0.7651462582010522,0.8149460661344814,0.856109096051604,0.8838255396439298,0.8796680705225945,0.8890110640217488,0.869078900841036,0.8772411421022155,0.8858426140753846,0.8626411073248867,0.8498524191342178,0.8247027777430058,0.7973874072192073,0.7671996703026585,0.742907521170328,0.7187959136501054,0.7076912080558988,0.7220360737769846,0.748168005785967,0.7794539721090397,0.8123057100478799,0.8459908083161443,0.8737238050456959,0.87595535803178,0.876029127898807,0.8828719637673954,0.879525834388351,0.8759658381628759,0.8759566138024661,0.8759729857825058,0.8813748681084035,0.8925863222110131,0.8928811705657966,0.8928819377502006,0.8946078992843893,0.9115954264386454,0.9241424249403094,0.8947194923294144,0.8593952375968157,0.8316292568782759,0.8022706555953878,0.8089823766685633,0.8375824060896293,0.8629119693972553,0.8954859695224786,0.9338003909741581,0.9691358068437355,0.9794565730596756,0.9929591822735797,0.9940327423399409,0.9760996701373958,0.9241189391328337,0.8715954426997654,0.8156089570696898,0.753004686727798,0.6903506412980942,0.6276965958683887,0.5650425504386845,0.5023885050089811,0.43973445957927604,0.37708041414957094,0.3146148700576412,0.2620587573966242,0.2059957036067268,0.14451562120391648,0.10476389412410114,0.11224283850538175,0.15971180446371225,0.2087174651530357,0.26994026693859663,0.32687686766084,0.37860868530843517,0.44077549127782145,0.4928561211470437,0.5444492132755063,0.5941853044553174,0.6429616228055521,0.6981071473860947,0.7491564513229667,0.8000883357128155,0.8517964773918862,0.8985420591057411,0.9327833240164454,0.9528330396676319,0.9454495270081864,0.9410658991379202,0.9277088622545757,0.9264537833770059,0.9143781550580399,0.883646794485494,0.8502760587886606,0.8197638908365921,0.7913867549901825,0.7563294651633146,0.7276940383862374,0.7095028064005904,0.7257391025468678,0.7584482307150684,No
