0,1,2,3,4,5,6,7,8,9,10,11,12,13,14,15,16,17,18,19,20,21,22,23,24,25,26,27,28,29,30,31,32,33,34,35,36,37,38,39,40,41,42,43,44,45,46,47,48,49,50,51,52,53,54,55,56,57,58,59,60,61,62,63,64,65,66,67,68,69,70,71,72,73,74,75,76,77,78,79,80,81,82,83,84,85,86,87,88,89,90,91,92,93,94,95,96,97,98,99,100,101,102,103,104,105,106,107,108,109,110,111,112,113,114,115,116,117,118,119,120,121,122,123,124,125,126,127,128,129,130,131,132,133,134,135,136,137,138,139,140,141,142,143,144,145,146,147,148,149,150,151,152,153,154,155,156,157,158,159,160,161,162,163,164,165,166,167,168,169,170,171,172,173,174,175,176,177,178,179,180,181,182,183,184,185,186,187,188,189,190,191,192,193,194,195,196,197,198,199,200,201,202,203,204,205,206,207,208,209,210,211,212,213,214,215,216,217,218,219,220,221,222,223,224,225,226,227,228,229,230,231,232,233,234,235,236,237,238,239,240,241,242,243,244,245,246,247,248,249,250,251,252,253,254,Target
0.3422980788390757,0.33862409522760295,0.3267378275312458,0.32624062184798364,0.3245629143897575,0.3115857028770508,0.3044291343623913,0.28540545029881903,0.2811346030195434,0.25674791361815297,0.20321656086049877,0.14762691883379997,0.09873104547185463,0.06633981932464339,0.019402523401500282,0.0,0.005978980225655128,0.05715861591726368,0.09292775815100818,0.13715695505531977,0.19269797825580204,0.2476933641059884,0.2810447458638343,0.28924182964071665,0.26687114204871243,0.2491905882187484,0.24593144445191895,0.24637000196724168,0.2611401792074335,0.2828629527455888,0.3085619651530185,0.33062154779122643,0.35368185259865514,0.3672910513001555,0.3743999602186898,0.37579975158141377,0.3887249521675904,0.3904923491740604,0.3904930573077956,0.39049305730779604,0.39049305730779604,0.39049305730779693,0.3904775907202791,0.3851928282228103,0.3795371292149987,0.39026078678120335,0.387254212725646,0.3653063148114204,0.3470351125683102,0.34285174957922804,0.3601122895740261,0.39600049142992777,0.42137473944306647,0.4214987268152144,0.4120937639797897,0.43079225153758527,0.4243535815934645,0.41057594970240485,0.4048817185442144,0.38132837010897713,0.343363624302333,0.3052204194599848,0.2948534815585431,0.32042649397753253,0.36455536744984984,0.4147608744813591,0.46990506436992074,0.5138369703009658,0.5655554878768174,0.6211698382899016,0.6767384633595959,0.7255197443382735,0.7720943274099055,0.8275946879597913,0.882901518007472,0.9277647823200152,0.9779730575196979,1.0,0.9506836879810807,0.8990471785411129,0.855049866255039,0.7998946047007562,0.7498039875196065,0.7044388258757968,0.6508177448386587,0.6081326710815738,0.5553944140836151,0.5158368599019547,0.47866294140501164,0.4423083104252097,0.4144394504840716,0.4039891072246151,0.3816038787046354,0.354296078529575,0.3342572353505773,0.32630831212280853,0.3262404791483151,0.3244437961622326,0.3082253490579405,0.2943757859175484,0.2823479793677701,0.2686216478111536,0.2592182320100842,0.24669760392382178,0.2471674501324106,0.2625805765672484,0.29307543374444434,0.3217231327725072,0.34208049686227593,0.3559369211437917,0.36549132303104237,0.37437010127461345,0.3811892622845492,0.39035310567395864,0.38586342685625796,0.37478383753859523,0.37443011662461423,0.374430091947227,0.374430091947227,0.37443009194722743,0.37443009194722743,0.37442417864494004,0.3706024791775584,0.34867365429043184,0.3423926136770299,0.3499718905825939,0.38206985541419103,0.4075363956253737,0.4147988975712642,0.4089699720588915,0.4189839863841027,0.40740715912613057,0.4059477833843923,0.39266381978280007,0.3682966047781684,0.3316358827858097,0.29455897769139394,0.26628570221002956,0.27246430317517367,0.3130977603751042,0.3618461397578421,0.41308775125938757,0.45732330241461705,0.5126344755574408,0.5677483236083867,0.6114186041193146,0.6634430595284857,0.7190594389579017,0.7746813935202157,0.8303033480825306,0.8859251266843398,0.940577677552255,0.9560894186455329,0.912044905666769,0.8673270416718997,0.8120366973635411,0.759195536777511,0.7160618254498727,0.6613309463273964,0.6142597022459415,0.5665483226588224,0.5229982420095545,0.4765753780177415,0.4400053859386097,0.41119987991814044,0.38340394259495403,0.3607603533586561,0.3511855502280037,0.3421631523044466,0.33095517521101003,0.32625551174737044,0.326240801027295,0.3250382865534509,0.31150448398916675,0.2964493793699332,0.2796098492648982,0.26574052164698037,0.2619962971812879,0.26373196493532225,0.28418648782924905,0.30868780241521954,0.33178366304605245,0.35643173099557135,0.37326741193721924,0.3870432840631768,0.3904887262900769,0.39162875939628394,0.4032430194733454,0.39250434595236205,0.39049531847177743,0.3904930573078129,0.3904930573078129,0.39049027207236975,0.3873134374400409,0.37500202950892314,0.3747409930986989,0.38413791913900175,0.37332027137705603,0.3490927808151163,0.32814341363371424,0.32671389600301204,0.34206325778292523,0.37488345443969084,0.4050602549557998,0.3987735079914576,0.3905674039493423,0.3896012875418955,0.3768276538170552,0.3714345249766673,0.3531746391473862,0.31874117261663404,0.28164817651048324,0.2517955350150971,0.2625215446989908,0.3025910307421822,0.3551903677675994,0.3978600335168858,0.4522886161850397,0.5078952819398777,0.5587865153185065,0.6033254224586835,0.658713082818954,0.7143350373812689,0.7696668499413946,0.814217459734131,0.8462337530646233,0.8887458749291444,0.9364372685770728,0.9831814690338501,0.9968821219700534,0.9452762698552868,0.8949391683800885,0.8497986092363377,0.7944947251158214,0.7460431902186389,0.6991868693067995,0.6444124921138239,0.6012678625051104,0.5485753601672534,0.5016011992688707,0.4556020448523421,0.4165931641615983,0.3795263144858274,0.34619344753449344,0.32304558323022237,0.3104617031385071,0.31288280926907674,0.32579224912790705,0.33758467074312826,0.34233153368145075,0.3471294148919002,0.34376687246028137,0.3332755677292769,0.3153832769854823,0.3022058962063925,No
0.16836475338745371,0.17377823122754066,0.17381300104660546,0.1729136697160536,0.15673796054772726,0.13770836392226116,0.1184574134767371,0.09889627234922038,0.0858332423775181,0.07952490402883061,0.07951221809816555,0.07951221809816245,0.0795151791915778,0.08288936961818871,0.09766220399437708,0.11733247500146371,0.16219749086374424,0.21881192120731585,0.26790900885549984,0.32201415258179455,0.3745065626364421,0.43628099149959043,0.4754476583984677,0.5099736167081841,0.56925177630339,0.6321076295640187,0.6903155648442683,0.7394607172627161,0.8018493038132233,0.8600571728579611,0.9091993641829892,0.9681020045372204,1.0,0.994092264190257,0.9519053931678014,0.8898712502864585,0.8279025846359835,0.7796197309015196,0.7201266591008406,0.6572623579669661,0.5943950957396726,0.5315278335123792,0.4686605712850844,0.40579330905779143,0.34292604683049754,0.2800587846032041,0.21719158861142418,0.15479517854887526,0.10565002613042696,0.04748759495461652,0.0,0.028643725082764693,0.06709508623379534,0.08403152832615346,0.09790156668007599,0.09919733934415076,0.11378984352601362,0.11722816691212357,0.11564045169125237,0.09998863094702592,0.08417981012728504,0.07963153243775611,0.08986829821031517,0.098315849143364,0.09678033925856067,0.08159937067907963,0.07951265966818388,0.07962370892569792,0.08986471275567087,0.0948739403026071,0.08033722691143241,0.0795127479821871,0.08158480492694631,0.09171657510573938,0.07992541588169377,0.08159937067904988,0.0967881627705669,0.10303872415758475,0.11676165703417496,0.1172325091989177,0.11723257543442678,0.11723257543442367,0.11724039894646054,0.1218997258935004,0.13562479679576311,0.13946983938711988,0.15405431411546155,0.15536557859179156,0.167155085517261,0.15473991284699729,0.13643101536277724,0.12057484674283758,0.1104950155755291,0.09004403816292195,0.07962150466443374,0.0772267217378797,0.06188847777523998,0.060652304371868304,0.06065248099990139,0.06273919201079048,0.07792798410230795,0.0843669713726869,0.11686166699356493,0.16220498319805454,0.22224263332081362,0.26976786742430336,0.32697764712604105,0.3752582965993163,0.4372240894703894,0.49671705087854656,0.5449999046130083,0.6069686585775007,0.6698358104122728,0.7327030726395662,0.795567373773439,0.8550604455741198,0.90333061337792,0.9585272248380057,0.9828250148555724,0.9632310152408419,0.9166372672922667,0.8584297735821056,0.7955739203214773,0.7361458045480438,0.6878709802671006,0.625828638539141,0.5629614646258654,0.500094202398571,0.43722694017127717,0.3745066730287925,0.32201408634610873,0.26743809045506595,0.2046180699302904,0.14175087393850871,0.07935446387596157,0.03042192023662249,0.001352656188545076,0.0334816362183461,0.05831070812195094,0.06064983516859224,0.0606647253604371,0.06738573160863348,0.09137240697393256,0.07442906805096117,0.04663519274345118,0.041764539119970134,0.03528280431716757,0.03569638359844518,0.05555313012331631,0.0606374736776405,0.06065212774376727,0.06147704824309752,0.07606948618944731,0.07955587434582068,0.08785072613669431,0.09822584325139339,0.10045954934709123,0.11564051792656649,0.1172317523665436,0.1172355365277058,0.12060972695431671,0.13519457701723647,0.1382270159149397,0.16139042655916036,0.16112605058342178,0.15496561870130865,0.15496075628268358,0.15962008322972254,0.17338943474108293,0.1822633090117396,0.20411925504992245,0.23018690912559236,0.2569348369644384,0.29497659341462645,0.32448412869788523,0.35029889948684634,0.3617961615678742,0.3480748748267719,0.33300352292028546,0.3157157651744109,0.2797344229590095,0.255803009434207,0.21951429516911647,0.19389627040622015,0.16958217961138855,0.15536660036589822,0.15480593768578776,0.14443119590566234,0.13566907740466094,0.12189972589329479,0.11735971328589834,0.13226893350625168,0.162884669471409,0.2034321923329836,0.25997673334139604,0.30749109753992077,0.3672501471689382,0.4155227671886941,0.4749507946481084,0.5369895509214442,0.5852643752023856,0.6446924909758192,0.7075483442364479,0.7657562795166992,0.8149014319351449,0.8772900184856529,0.9353090200769398,0.9634341158247803,0.950006604066381,0.906641315279924,0.8467623217337619,0.7984799095693882,0.7389868377687083,0.6761225366348351,0.6132552744075412,0.5503880121802465,0.4875207499529539,0.42465348772565914,0.36178622549836525,0.29891898534957795,0.23636065778631288,0.18572368151934304,0.129164669326717,0.06635533219247058,0.017799480275142443,0.0431046037136551,0.08591450049716176,0.09822455653493867,0.09837248508001384,0.09920522909138274,0.1184534085301494,0.13202850117567966,0.10722689064005753,0.08588037368713541,0.07862628537312943,0.06414068177724142,0.07101108063522688,0.07987007282388259,0.09330863261317424,0.09835424555922767,0.09497690655999458,0.08867566871437838,0.09775457159490708,0.08417936855684971,0.07952004160980364,0.07951210770523742,0.07861656053585264,0.06740413820844626,0.07633106417571867,0.06188836738246151,0.06065256931366614,0.06188836738245396,0.07633106417570712,0.06740413820842939,0.07861297508120568,No
0.8988265232096824,0.8547394243441051,0.8056290341483061,0.7565188809014902,0.7095497449193315,0.6709818866289048,0.622625611651062,0.5735221991289126,0.5283941212256491,0.4884877647880437,0.43962218915381834,0.3908644711255298,0.35112422977932845,0.30572268930559376,0.2566730284836094,0.2136010389391383,0.19527581483023315,0.21546113933149158,0.23283683385355491,0.23827177131460386,0.23831314901270728,0.2383131490127055,0.23831314901270373,0.23832614554250187,0.242553468912158,0.26457195490224983,0.292659225536791,0.3240979887390032,0.34323900602983537,0.3660161367790571,0.3672129969157223,0.3444844008322354,0.31384689774292074,0.2771701893308176,0.24148177592465148,0.21557202823457855,0.21846889220162824,0.23046929949164596,0.23821076117464912,0.2383131490126842,0.23844486739095405,0.24630487756990016,0.25172137374066983,0.25172288952054167,0.2463551677599014,0.23681057834405017,0.22595569411477978,0.22272546754480382,0.21217491205487438,0.21140863893091622,0.21140863893091444,0.21102593399691205,0.19853429660745148,0.17422987268032664,0.14937352958632966,0.11938932760473842,0.09043264075453639,0.05901678357602691,0.034613807526874485,0.02682589392116075,0.05331654691883703,0.08193966854431967,0.11258422384530808,0.14163857516232214,0.16514043590447747,0.18434345183772605,0.20697595432560867,0.22238757277652965,0.2244455363854838,0.21484552563917259,0.2114486764819401,0.21851754538813184,0.24357533872509496,0.2800487840500985,0.3222523721666386,0.3606410860976781,0.4006433219692025,0.4435369114536787,0.4909160614975936,0.529273619775279,0.5773631224426814,0.6261202403148936,0.6653580110424713,0.7112600699318263,0.7603632461686356,0.8063075267668149,0.8456018328941952,0.8942196410095224,0.9367013107736568,0.9613177663862489,0.944870156167287,0.9006211135659354,0.8517433033584942,0.8112577319719056,0.766729974201791,0.717635459998498,0.6685215406139684,0.6197558306373341,0.5799812865819929,0.5346214953485999,0.48551811811672474,0.436550611444368,0.3955936715849897,0.3516043010684813,0.30252916822482145,0.25786820798016485,0.21752850797181678,0.16964546242485268,0.15811184181900728,0.1763548105005679,0.19561144875066683,0.20778895198142244,0.2113994451966783,0.21140863893087447,0.2114086389308727,0.21140863893087092,0.21166527764504117,0.2238242767001717,0.24801469500843965,0.2763102432863871,0.31556979913504435,0.3363522336402833,0.34560839128587384,0.33757009135101645,0.3121478835806064,0.279585553225401,0.2434162761778489,0.20407969449458507,0.21117777991226738,0.2243883516845977,0.22514470141690213,0.2347640105931741,0.24038763180184386,0.251026599162095,0.2576303978996739,0.2598870489491589,0.2562283178263969,0.25178474628785885,0.2508826769927248,0.24024771332827477,0.24418782141003526,0.2516679425000188,0.2517654040534629,0.25144489277650717,0.24135430298278138,0.2168761673281061,0.19077049311582917,0.1660938839048196,0.13349393365416606,0.09936039226225546,0.07869583503017097,0.09015261330248281,0.11789485784509601,0.14567828276084427,0.17432505133192944,0.19853663704704871,0.22514822809270152,0.2407823330298977,0.2512393737948635,0.2517647456524257,0.25034705597375817,0.23686529545742374,0.22658560955440255,0.2452715702490127,0.2788826993718301,0.3159212050561626,0.3594801579747977,0.398171258555021,0.4434342868540404,0.48279699442448365,0.531172826419454,0.5705518744360965,0.6162509219192622,0.6650744939722748,0.7045941613547226,0.7501409502832486,0.7992458072463982,0.84833800342683,0.8926115227716318,0.9333174436804992,0.9793047481628943,1.0,0.9780505289719228,0.9415756185203099,0.8933808900958988,0.8489669906283961,0.808392716731881,0.7594693354784741,0.7103554160939449,0.6612881796370789,0.617684306411169,0.5763412935386478,0.5273519935967013,0.4782380742121717,0.4295462897577327,0.3900890457619366,0.3443430740553821,0.2953014187259244,0.2524773138727534,0.21039914637440305,0.16811400233100704,0.1743557783903702,0.1985342966073409,0.2110259339967997,0.21140863893079898,0.2114086389307963,0.21140863893079453,0.21140884548797523,0.21250711766960917,0.22408868409318572,0.24868955174871976,0.279365871380552,0.3094412136018665,0.3314248331516234,0.34463427537295743,0.3381846643398032,0.3124874738854957,0.2722926789754303,0.23883641512309195,0.2084030489516131,0.20431018892753938,0.21615120247407393,0.22589611866988557,0.23686209349166987,0.23831258614420348,0.23831314901252254,0.23831314901252076,0.23831308446339872,0.23782308252148843,0.2278243617277136,0.21915574866950793,0.21152265486495114,0.21020945625018017,0.1993482390158512,0.19795729274148188,0.19768801740532016,0.18655686386641968,0.16586740328775829,0.13769214384400197,0.10714191226220082,0.070593226860443,0.0339207441323337,0.006408164303743691,0.0,0.025761799873868174,0.05197379410576941,0.08922305228056926,0.1051779457670019,0.12700093018398162,0.15550670424794166,0.17205045122196783,0.1867691938590066,0.19752784188414818,0.1979563838898617,0.19795638388985992,No
0.5113275136432462,0.5800120180649633,0.6566387836629728,0.7332760369450284,0.8083731180909952,0.8676460191472457,0.930995892773653,0.9143925762707359,0.8635847850855192,0.8067835879511951,0.7348588848433248,0.6770993407561963,0.619492972888894,0.5574838370718589,0.5089077000124065,0.4761057746252848,0.47160994907056075,0.47157120926345364,0.4627896596885339,0.44412587087940825,0.42829410978481786,0.4138495805305227,0.37769371743835745,0.3562403510208121,0.322085883818068,0.2978345661893207,0.296782240281392,0.3058646145779078,0.3413079117015849,0.36270441063303593,0.3913595986879157,0.4144616696144654,0.43346580828696935,0.44929257193488814,0.44579609574715606,0.43708869167201136,0.4339849621827261,0.42594704625494906,0.40819928141609596,0.4060222211195601,0.4018633134203333,0.3883944459026556,0.4048434977966786,0.4060234568033816,0.4060234568033825,0.4060241262341653,0.4081992814161062,0.42588663435457974,0.4164737406470058,0.37390653394968787,0.34689349452743734,0.3599630553590383,0.39792255946924593,0.43539377306526905,0.46216244406784845,0.4715073813313966,0.4613330485435445,0.44985697614836306,0.4483861869445178,0.4233309077228422,0.37362584079853667,0.3122793118241076,0.24382266195563718,0.16978497465913778,0.11070110773179298,0.043820584871730794,0.014941488994926644,0.03428855488232685,0.09441433074296501,0.15328913658303867,0.2281884861410055,0.3035569679575798,0.3630383235070087,0.4362428987377185,0.5128789399333891,0.5895164727083033,0.665535622110637,0.7264555836701017,0.797581625130789,0.8742073485919475,0.9507153032502775,0.998923560371789,0.9460216821076872,0.8853874819913901,0.8147419366602913,0.7620723389091579,0.701153037311887,0.6424685871789615,0.5799352549885737,0.5169102904886684,0.47073982368688405,0.4325014627814623,0.40189385526041566,0.3839297807833457,0.3667606738281566,0.3622989724855743,0.35667607378884814,0.34014173932840386,0.3169266716591528,0.28155930660642303,0.25153552122643896,0.22301726032943225,0.21024066115290152,0.22668291110222372,0.2487332123886472,0.2792565364764723,0.3139635225038604,0.3522735870674567,0.3905815332664755,0.42485928152097463,0.4555927072918422,0.47137168176354294,0.47126948994270634,0.4561396754658684,0.43724778989956103,0.42801836291751494,0.4363728633359618,0.4495245908363077,0.4497532998837128,0.4556078691858727,0.4711839042623751,0.4775316125361386,0.4930523707964847,0.49392215215699187,0.5067989273742475,0.49556950302527625,0.4866917184597743,0.454961890815603,0.4182292799173606,0.40658678502763745,0.42517077548415605,0.46930056714652935,0.5165585041743275,0.5421598579861073,0.5432696666454926,0.516121545096683,0.4962785529822584,0.47719035960877365,0.4581809957094123,0.4337605462733891,0.37842779376921953,0.31039413543429184,0.24708687646925664,0.17875511980006475,0.10461589513478353,0.04692967047794028,0.0,0.006715642857721527,0.06366346971554515,0.1398954840800859,0.20688327011600682,0.2715465123511356,0.3480308188476675,0.4240831781446155,0.4851787921441728,0.5560975752446891,0.6327216719155655,0.7093592988054231,0.785743913906781,0.8492637829811631,0.9174396422980666,0.9904120423511587,0.9922188358156672,0.9305887713597261,0.8675570064513947,0.8083745212593265,0.7362929039975503,0.6772635545767085,0.6162010997404006,0.5523594330422203,0.4947852690165009,0.44147184006231877,0.3912029443329579,0.35834476382973124,0.3410798181809689,0.3404154002274056,0.3320982571588744,0.3133291528636417,0.2938790933607529,0.2644241419256961,0.24372083570643888,0.20799945249607887,0.16982264645478162,0.14500591830448029,0.14406825024641456,0.158802637213578,0.18464693332625393,0.22995792511031476,0.2813349512293142,0.3143312417830577,0.350699341437017,0.3800296085823276,0.4158243912929538,0.4156391975780558,0.4175227814590565,0.42178760758647726,0.39751587684572964,0.39271196578277845,0.4057974841426053,0.4060239045624461,0.4079574127453305,0.4255974135683678,0.42788719858665303,0.4311474162258375,0.4484856857355539,0.4497428285298417,0.44953720739325753,0.43057620653240614,0.39701484395668274,0.3844231489545429,0.39837535639978805,0.4380259178586008,0.47634234468473835,0.49107774884484945,0.4724941394316815,0.45659208076052105,0.46614401305437614,0.4505495549504972,0.4441090636229892,0.4007471100021709,0.3340526324856774,0.2748155339849405,0.2014582984592641,0.1316719795828356,0.07567779280067244,0.06125828675382117,0.1046046065296844,0.17084349398807053,0.23044530506383332,0.30328449099145516,0.37984078693012213,0.446980744667973,0.5114968046723227,0.587973527355762,0.6646111542456201,0.7412487155402139,0.8173093773108175,0.8784489044203978,0.9491975473111744,0.9999999999999996,0.9589508508797722,0.8952231367779473,0.8433399932019441,0.7807293143417908,0.7231033202360515,0.6662464950284441,0.608918744540254,0.55128657916383,0.49490763728600173,0.45808613761087535,0.44978390583009453,0.44672604133253646,0.4293924423780888,0.4248144621580612,0.407512208395715,No
0.1834330377465112,0.17735088243641206,0.18197409265779907,0.18159767331501975,0.17133234344267434,0.17671404266244073,0.17549084176321061,0.16551186754005576,0.15494159170622002,0.13874176467303467,0.11957228530608788,0.1176408578108008,0.12798056165662475,0.14499289636958412,0.157263526338288,0.1718992858559374,0.18240211330418665,0.17201337919718096,0.17029126311908138,0.17250872099578896,0.19159302646407284,0.2158420490860946,0.26330906622278105,0.3117107216837258,0.3572215493510078,0.4052764415521679,0.451023796641711,0.5043436688571785,0.5522638299390827,0.598309878514701,0.6516923818568778,0.7040819979586885,0.7472106775847358,0.797772375050763,0.835910966117734,0.8420450004693247,0.8093165116332828,0.7668109732193731,0.7158893441163761,0.6625414515731625,0.6170181165981723,0.5685595055487411,0.5150636029677913,0.4617341366863399,0.4166090596927816,0.3677402010490436,0.31423313465831537,0.26070638704496396,0.2089731713689651,0.2014540220047616,0.23027185512159898,0.23664198682274318,0.23738111250318772,0.24761966726212492,0.24867726607082652,0.23807506437754666,0.23020916988241558,0.22882224645121196,0.23500939821916678,0.22099738537468117,0.2104744010481907,0.21010215445088276,0.20612011131850227,0.1965754334734897,0.18235651896854277,0.166366785859005,0.16295496257386555,0.15765611444483785,0.1394518165348435,0.11536192045458149,0.10181159625922831,0.08100840808996468,0.056529795945244654,0.04021798146483846,0.0249986097619761,0.02869334123443501,0.04765477501026094,0.05802979617775339,0.055198944997714605,0.050905552720682756,0.05866505322557192,0.07201397081671912,0.08804043900225578,0.12416750897221007,0.15409874511941668,0.1960519188787777,0.2391304754008119,0.2901845241744052,0.3354102233830991,0.3841892475043527,0.4367401678039182,0.4799385200223467,0.5314681150151257,0.5847097570075417,0.62946220164338,0.67879015681816,0.7322354098725512,0.7795532882611047,0.8180347594813853,0.8231726858309298,0.7829169612798741,0.7373724706868416,0.6891959048584959,0.6357110433314528,0.584439068561307,0.5411716183673496,0.4884040548191835,0.4348774503179542,0.3821936533453649,0.339148869595733,0.28757224311308516,0.23404701670232608,0.1814801537727213,0.13856002862900763,0.08711312406228444,0.05843501303583398,0.07963022342798576,0.09261917127684649,0.09681879960173445,0.09030896131087163,0.08087146717878557,0.07028038749970777,0.05386563936438771,0.043637419354733975,0.050052557849486146,0.04206341194896801,0.024941133617504718,0.012240219826216148,0.0,0.01374028665381477,0.035393124445755486,0.03551735471220141,0.026540039942308358,0.03606335344237399,0.039422077408787004,0.06817756994732216,0.11049319721825679,0.15311403534584267,0.20532097784558356,0.25166333267190133,0.2987466549297908,0.3348994160569747,0.3302942642887374,0.30262606764753963,0.27165418072275793,0.245631801352586,0.22053375931578945,0.19255389868282702,0.1843750149973733,0.19529023350956498,0.20785908712079193,0.21011762939626166,0.21012099533094153,0.2103546235954834,0.21837585801412773,0.2165196744152409,0.2387413674879193,0.2774049606848834,0.3175572070187984,0.3604615954378798,0.4044719884618142,0.45400553664349586,0.5075050667786112,0.5576533886808703,0.6017455522700645,0.6548171174102486,0.7083432535445322,0.7603947061417067,0.8034003113757731,0.8556476269916984,0.9075786971749777,0.9504478659820732,0.9932602966370148,1.0,0.9695755021736527,0.9242767561591463,0.8708516739964787,0.8173246526269846,0.763797631257491,0.7102706098879952,0.6567435885185011,0.6032166208160525,0.5500669634754507,0.5057638692241202,0.45590319199429974,0.4023876970470699,0.3503767590067395,0.3073075109004768,0.25508211793954816,0.2022792414527137,0.17891139109180676,0.1949533390275251,0.19804381189801878,0.20846476371066203,0.20816630018871551,0.19714081762272473,0.17954254307713935,0.15822362493714204,0.1637836381418447,0.1716974900452488,0.18651938983187266,0.20581961376113034,0.1989952132311945,0.19684689589700266,0.19852381756883952,0.20921858688181505,0.21949121199355837,0.2330642254281834,0.2229128434121459,0.20896012357010374,0.19726220710348086,0.19078968986284783,0.18017262837541503,0.15768740206255583,0.13424261189776576,0.11744308981126483,0.10453536024164345,0.11515083936302384,0.13001394978931113,0.140272222781626,0.1511943305832637,0.14406189832485206,0.14403510487172833,0.15298843909749138,0.16442167208296388,0.19297010378424906,0.24079591368857534,0.28348543871421805,0.3261850875607881,0.3760299283524886,0.42283305658162806,0.4699494234823467,0.5233937786890408,0.5753557174173416,0.618328592031419,0.670698842487528,0.7237403168906189,0.7671493614846585,0.8036613044963206,0.7990121552509062,0.7627823878700495,0.7110055373109327,0.6604328455697162,0.6167628003250463,0.5636961773269271,0.5105303629793405,0.46618362790136425,0.41638246336239204,0.362880022527742,0.3129463318765495,0.26872019153183047,0.21556464442221834,0.16566118499987104,0.16751484319349874,0.1829625650355,No
0.025768151842060938,0.03675589417971681,0.0625111650218555,0.08741128267963205,0.0927531638684167,0.08194259143823457,0.07743005348752297,0.06744096821186218,0.06453106506970796,0.04571885198930126,0.05048247931846728,0.07207695008147619,0.10705553794993339,0.1482118775633121,0.19287719750476162,0.23908533293453704,0.28252917611539363,0.3310671816306945,0.3791940002620584,0.4230655284611995,0.4756543466385419,0.5253784158261805,0.5679887930481287,0.6201249536995554,0.6650157809630683,0.7120706935886525,0.7636759022860411,0.8055642424570149,0.8559062006745481,0.8979783136101336,0.9439481192327679,0.9631836524766886,0.9414462159909189,0.9028131179339889,0.8522501491254357,0.8105231944455618,0.7594560583320251,0.7066491130725581,0.6539170454511529,0.6075981121217584,0.5620021061458931,0.509254492545351,0.456445868466997,0.4036381958408435,0.3521189889954064,0.31037349539647563,0.2590504808292158,0.20624269033197473,0.15393397459148916,0.1116390969240868,0.08777357202820468,0.09625436262211684,0.10750841593916194,0.10402208766258836,0.09501092460061189,0.09443366415722121,0.08202527823002548,0.05600035633187739,0.03302102458341283,0.038941710623295656,0.056991154115272114,0.06754965084537501,0.07833962660367844,0.0809165242058576,0.07908349154889338,0.06810639244651107,0.060429889077176835,0.053303826775805696,0.05324407588002256,0.05266529401871489,0.04237585843523739,0.039580240276253065,0.04794304135924499,0.053216195175312286,0.052615991377328086,0.04036988420953014,0.026292435606729114,0.012272355283400316,0.0,0.014971062587340267,0.03664898367737823,0.05451196349894083,0.07194580799896588,0.08055608473280484,0.07171266468565252,0.06647856975575239,0.051761400163595095,0.03987469810514055,0.05037384280976154,0.07645514442632173,0.11002659228786182,0.1528628129834062,0.19557739180565958,0.2425764127505512,0.28704043040994254,0.33933602597053447,0.38211474924540934,0.4314909076231852,0.48410883026364004,0.5284824842728315,0.5760901298885654,0.62750333619908,0.6692985691036846,0.720622684884817,0.7682145664386066,0.812579546749514,0.8648806647363734,0.9077342205035048,0.9539989791991177,0.9899659766404874,1.0,0.9697194209078832,0.925503653402699,0.8746215799479402,0.8327268684319851,0.7810585169065245,0.7282503123846262,0.6761136968336809,0.633917813825688,0.5836607665899685,0.5308555535762931,0.4780469389437525,0.4253854786115614,0.3809355250820685,0.3334293497151961,0.28065230897073246,0.22784917002749738,0.17755615570989436,0.13545915552183097,0.09063032044447894,0.09050231822817478,0.09474691218108555,0.09385503197957545,0.08050244756765235,0.06725155972397623,0.05606832500846881,0.04479270638733546,0.021329043214563637,0.027700039182834146,0.05357132735566106,0.07318367931483838,0.07442235753083448,0.07856359434288196,0.07129291975322216,0.06709777838279019,0.06696948998079,0.059508996104186807,0.05880637039522707,0.06400571362613006,0.053712269616277286,0.05324423925752653,0.053244153895359414,0.053243363675353095,0.05211348807031868,0.04268854387586174,0.04981899654709343,0.030114038604142745,0.013787691959240345,0.024299002285167237,0.03897561326694232,0.056459363487610936,0.07038611054607768,0.08049091568810196,0.08092381625729539,0.08065600203038814,0.07144826345944866,0.06710597437581622,0.07073986669345267,0.09998426008730643,0.15078834575632571,0.19540943866860117,0.24269442566914812,0.28852894695742837,0.33457547219516925,0.38475645750807974,0.4269440506317932,0.47901704780950416,0.524598437513911,0.5709276856550582,0.6209061891896388,0.6632595799989351,0.7154327413853103,0.7641299341525354,0.795813828926689,0.8326191995747032,0.8758917131227935,0.9130010408343434,0.9242052440210418,0.9057872026681748,0.8590742216097085,0.8062962187330949,0.7534875946547399,0.7006790948373238,0.6485377093613476,0.6063252465847975,0.5560895174774401,0.5032843500491815,0.45051055435707754,0.4031324881983198,0.35854391567048527,0.30588972952197313,0.253081137629354,0.20053799283001972,0.1569267566574486,0.11146407219226484,0.0961488117641851,0.10685278220220873,0.1093147694756551,0.11915461221752865,0.11053499403413758,0.10847284970303006,0.09616486859070017,0.06253843526250247,0.04592977139526777,0.06267335115273776,0.08834986791555721,0.10652882784727646,0.09802016235821531,0.09997041508627191,0.10842433033822862,0.10331516835333598,0.09493676838349652,0.09476378125391438,0.09476314525600804,0.09379589291531998,0.08689911169038167,0.0943328378090249,0.08688973729528948,0.08096507491664973,0.08087523909290928,0.07554183002106774,0.07784448997561899,0.07219344128313354,0.0547908030049542,0.04085066263943338,0.0483214527479956,0.06612978169237405,0.0937081524497625,0.11125741972605807,0.12449100274531322,0.13535198391544467,0.12357583803409788,0.09693394788990517,0.08474812634833917,0.09258613145469452,0.08473809670389176,0.09154148522169514,0.12410453531125798,0.16056844644473722,0.20681111643613503,0.2493602401167414,0.30102356620664317,0.34321828935552956,0.39338049082458415,0.4408804159811357,No
0.0,0.007355954130205511,0.04471603856035289,0.08463517989494163,0.12310166775114917,0.1654856500592734,0.1794604760609282,0.12868107328171474,0.08213400920423775,0.04735477482255135,0.01990626361437764,0.000603014986210404,0.003267195298640946,0.025954232603346394,0.0646977255317247,0.10908447357264262,0.164031322160322,0.21346413793849806,0.26341476480956194,0.32055770096263414,0.37266414800947967,0.420058970208288,0.477018739815418,0.5342320508053318,0.5914441510240591,0.6469074998550113,0.692048102979097,0.7478882852705047,0.8051013200232044,0.8623027312360505,0.9156655215805913,0.961569501302372,0.9853386925986216,0.9356466224706734,0.8847360849269714,0.8362533439086093,0.7791765322027828,0.7219632274909884,0.6647499165010742,0.6075532625246547,0.5549652643723699,0.5080265686180714,0.4579192121986826,0.41147716842456283,0.36810027277754065,0.3283056357545058,0.29716336221530115,0.2685710403570263,0.24557366173273376,0.24291278982066844,0.24791029306473833,0.26569488802644425,0.2711097910700717,0.265022926334634,0.2752019717326961,0.2874219944420666,0.29592101472359733,0.3166235823381087,0.34095782259103924,0.3733873811396409,0.40247040394316524,0.4370819448449921,0.4709050954666423,0.508964605747523,0.546028878774512,0.5802167145063644,0.6158923726598404,0.6350808770099587,0.6314681898038894,0.6080490103425746,0.5792277914644659,0.539511627700203,0.5032809219004415,0.4707928321454178,0.4384270764867795,0.4126270122969973,0.38957027644379494,0.3690206507905436,0.3429206521254953,0.3341283991670152,0.3340867579161748,0.3379141986010352,0.3440098816924331,0.34417720067970103,0.34897196673529773,0.338989637337733,0.33398122706532263,0.3255296193694006,0.3189380167954514,0.3158382931970296,0.307792741628913,0.32108136129229203,0.3333203595428733,0.3345191163543131,0.3398263578912468,0.3443324725925021,0.3376281321598391,0.34266962936376455,0.3431225271174907,0.32859664427317714,0.305629317792969,0.28645145918083514,0.2779850315640888,0.29635904190649454,0.32943407417785675,0.34812211229376677,0.3404277219298839,0.3512609882617328,0.3572390533186529,0.31067932230228923,0.25376526435218816,0.20886926883803048,0.1857848747379296,0.2035051874862237,0.24583182920587054,0.2961176102840879,0.34292022713410786,0.39568200879172144,0.45288084580953347,0.5085683898301192,0.5536393477653099,0.6093252589331608,0.6665378324696096,0.7237503885360081,0.7797742253410451,0.8247905298973612,0.8801954338418883,0.9373962483073548,0.9904058028703981,1.0,0.9481276694292702,0.892062592934185,0.8468175220267589,0.7916904659802588,0.7345306224922359,0.6845799956211729,0.6351449329047769,0.5780360338862112,0.5211984515682682,0.4752385428118391,0.4322899006418015,0.39224702946456347,0.3693702160293304,0.35031609157328036,0.33858034851657903,0.33774194371291166,0.34905100878021855,0.35742673256048985,0.3508935249062013,0.3531356608751963,0.3640936590764765,0.3644693877484486,0.36447045803469136,0.36600487886225386,0.38135610084386773,0.3898759116734447,0.38003058877629714,0.37967649092687417,0.3831081746675187,0.3945716325131059,0.4048511275622615,0.42200069422096487,0.426563440828887,0.441760608788869,0.46690845615058807,0.4897477552779743,0.5051768871521034,0.5268308926189009,0.5374000795343159,0.5515557562444147,0.558888211145244,0.5475391259630777,0.5452265988330547,0.5292971843314276,0.5170382766409358,0.5235852777087544,0.5298865053681143,0.5177447047923187,0.5164431330126269,0.5164422869195797,0.5164422785487575,0.5161072594412617,0.5055281922632728,0.5004040511248737,0.48295122238091626,0.4533231728333327,0.427208744813258,0.42973485254634936,0.45208776358707636,0.4684723908401405,0.4557566013972867,0.44073756632338945,0.42217676857855757,0.3767449379465204,0.32588773185304554,0.27195539024549875,0.22877392617782455,0.20032118477075533,0.21326799595262091,0.2554124502292301,0.3116367052643674,0.3688498174471957,0.42592662915302126,0.4744093701713856,0.5253316082914234,0.5825057819532735,0.6397190929431869,0.6969312843314492,0.7525067307572169,0.7976125112868555,0.8533754867276602,0.9105871513898749,0.9659147909357246,0.9891731985379519,0.9446025792250952,0.8953984647696194,0.8452491607796975,0.7881180633645459,0.7328898525019079,0.6878089844850184,0.6328914799271614,0.5876820041888844,0.5330424849635271,0.4874078771085326,0.4345034579984657,0.39032453455762717,0.3493430179929784,0.316790662794177,0.28434208146757145,0.25945540171547554,0.24338250341007583,0.23387155605962962,0.22740696362759127,0.2167799224067566,0.21248755604815273,0.20740015239757081,0.19961910547448403,0.20101546813110271,0.20900150412184626,0.21879466461291797,0.2181075936378778,0.23658703482616872,0.25893014086721067,0.27060530704002295,0.25909465721002034,0.26744821500099025,0.2732530008314682,0.27328571521251366,0.27328571521251543,0.27328571521251765,0.27328575497393714,0.27364970375338116,0.28423117318882873,0.2983210880810079,0.3036539952418953,No
0.1376203692628999,0.1442556213888726,0.150522449833129,0.14532405536523996,0.16065126136762142,0.1609636677113233,0.1609636677113193,0.16096366771131532,0.16096366771131132,0.16096366771130732,0.16096366771130377,0.1606968300607554,0.14625546596323957,0.13559383095363664,0.11646374699226092,0.11423872901820786,0.10587734195815823,0.08246070144408879,0.0821636221353308,0.09107162835429872,0.10611999786443116,0.12176372425524162,0.13729701376663606,0.13761490653198738,0.140489741323492,0.15922668483338676,0.16101376162105474,0.17130578981614342,0.19493024730151154,0.22295739301346806,0.2692790807423666,0.3176921143191125,0.3721732728643943,0.42758544851592273,0.48135915966418974,0.552050604928076,0.6233779087562672,0.6882078837363927,0.7430575000024557,0.8137315554193831,0.8695474258833489,0.9308040556206612,0.979868214523834,1.0,0.975082651851972,0.920931327744273,0.8666217459100265,0.7958961179140687,0.7248432501699629,0.6682037276501749,0.6052244058804579,0.5339200954118573,0.46261536396789094,0.3998149831221305,0.3431599964142418,0.27199206141681476,0.21213369106862245,0.17361898094288675,0.10875725506928591,0.08353521278706788,0.1317671441916688,0.18510084322201514,0.20740193939572338,0.20766334316599266,0.20766334316598867,0.20843553048928598,0.2261789125372582,0.23070822989390383,0.21356395710795484,0.17862898960313967,0.1531730275446339,0.15167317412833192,0.17515662566686396,0.18443054827026684,0.19927572558586526,0.20409397453797196,0.18564337580013612,0.20032188483406843,0.208094849280426,0.22419990461183437,0.21852260818803693,0.20626281752213416,0.18779044487050367,0.18431504752097672,0.18404372787230372,0.16954277150600383,0.16580371814233308,0.1834732077016339,0.18431337450699514,0.18431350543851943,0.18550156841646404,0.2050906149139209,0.20765926715950211,0.2041943762817353,0.1853264628776512,0.18430546697008587,0.17980194470302457,0.16179243700569268,0.15964040757892306,0.13584144966261702,0.10878464263564158,0.07606724684795463,0.04546547154031444,0.021690453996466186,0.0,0.002618011101619633,0.033323967964246304,0.05781719124118423,0.0815512240784595,0.09216375464301407,0.1117870264950862,0.11426317757121973,0.11426399225627604,0.11462905920186506,0.13089837684113048,0.1570441401521938,0.19247527114893526,0.23512962415288508,0.2827115688216577,0.33421724428305133,0.4041014359217492,0.46386610884867885,0.5236144159144027,0.5938348731536669,0.6464619930042366,0.7141300407400726,0.7842955697827358,0.8360639565977364,0.903285301955008,0.9548884944861937,0.9989239720791927,0.996641928866147,0.9549532653690411,0.895724270049687,0.8257235015572144,0.7725747754299315,0.7051503620606248,0.634056742224276,0.5765065656455768,0.5144688042811536,0.4431762162436437,0.37216303736132605,0.3163713651722473,0.25251541819760126,0.18120019374143315,0.11040931906767071,0.09132499838268693,0.1416590753601228,0.16791029191216555,0.1862049363798972,0.2056216614536157,0.20766388871382313,0.21067072940061005,0.22933674135059912,0.2295218535514194,0.20484485722629486,0.16923886603707583,0.14063780158148287,0.1495141225347414,0.1657721151812228,0.1959731571910428,0.19136339741905317,0.1843252996002227,0.1843135054383649,0.18568684654715328,0.20522645510669157,0.20414393245520523,0.1853177076005612,0.18430523758165407,0.17975229737662213,0.16178400905742185,0.16096366771094672,0.16096366771094273,0.16102154315363215,0.17184068578112655,0.18233129091447564,0.16367053989958702,0.1609673774375442,0.16601830588525646,0.18358638155416163,0.184313421787607,0.18428436324790143,0.1751941498934797,0.16105966715295894,0.15751952448986728,0.1385317316664083,0.12571759218212897,0.09545407000157358,0.07902484568964097,0.06226608850025217,0.03211003320989203,0.015098275141601114,0.008944392887197505,0.031932497341481625,0.044137408184449445,0.05729944114374508,0.08684208635821555,0.09616909896028236,0.11123401623034335,0.09353313292924703,0.11166095945031351,0.12080159886380448,0.13750686684033653,0.16058193490917638,0.19422976536990744,0.24009356973048668,0.2954471299975894,0.3494044673277399,0.3984990964647279,0.4497235528229906,0.5188159208515968,0.5726080531280653,0.6387952622056332,0.6981275363212429,0.758200321984825,0.8165171335293353,0.8709887357940165,0.8982716378220843,0.8877716074577382,0.8321470789825662,0.7609211694915965,0.6932284127867723,0.6406217389608564,0.57040418940222,0.5106244804723925,0.4508919187209326,0.37962803042850535,0.3085104845392701,0.2504892799990617,0.18893853263737936,0.11765200792629393,0.046718632086158784,0.018534489497437523,0.06915332125838258,0.1245823058358746,0.15783218836585933,0.1609622815025964,0.16096159333774507,0.15774328660865278,0.1406073687526188,0.1587914007839175,0.16083554862377403,0.14812939532971559,0.10531149296364628,0.07219321379059895,0.08504260465351443,0.10138267297507131,0.11407947224471782,0.11426399225599848,0.11514999817951388,0.13342497686855426,0.13727429678528136,0.12142703272052735,0.11427619063959638,0.11426399225597716,No
0.9133535343029702,0.9264077016699637,0.8868418149551944,0.8347467870359409,0.7691461513465465,0.7030020824219125,0.6417253500552142,0.5890434206867496,0.5232976451875926,0.4571444554130042,0.39099126563841713,0.32483807586382873,0.25868488608924034,0.19253307832355482,0.12848644561523548,0.07873248334237593,0.048872040377172965,0.050437797682045815,0.06986751126958701,0.09178742492616365,0.09734111143390578,0.07502966117441723,0.047871273491718824,0.02552043968889306,0.0,0.016160055888334135,0.029012786455675066,0.029188562756653713,0.034633817099853026,0.0458482541137335,0.042168714518569406,0.04781509778296078,0.03989314372741104,0.030504254942608888,0.04527187465431304,0.047955494617447414,0.05449988467227351,0.06640625626734487,0.06670082366212071,0.0667022376997859,0.06953301523581157,0.08939455941789065,0.1173431019616693,0.14849328780349413,0.16131325560259846,0.1752383606799719,0.16402926425445719,0.14682382485899526,0.12490164219809952,0.10596158981858572,0.10378480342339458,0.09062680165469539,0.07457693435510393,0.06673643897497428,0.07087946099549036,0.08373680272971473,0.06962643301203197,0.06670228898605535,0.06697495807314224,0.08696397085948693,0.13054052338015687,0.18202961726604938,0.2473689633850351,0.30092491696573864,0.36117982625925427,0.41943729747511993,0.4748775202261166,0.540883654042092,0.6052961389459144,0.6562209709229068,0.7205802947130304,0.7867330393954499,0.852422991890851,0.9049771590340545,0.9640391634998453,1.0,0.9908543005755326,0.9335861011258251,0.8824757437049304,0.8177120354545147,0.7515592632972696,0.6854145844147199,0.6238465895316545,0.5713672158314647,0.5057107571383148,0.4395575673637273,0.3734045900611207,0.3079714660347532,0.2562355481336045,0.1945521666696597,0.15162933198795425,0.10843054200792546,0.10035021568365732,0.1047400341939757,0.12270813283606108,0.14121843079395457,0.15073076684105446,0.1420214052432618,0.11120437383705406,0.08578524734698378,0.07767420045284146,0.09811676045641571,0.10420515064970459,0.10422932954077258,0.1042293295407668,0.10422912439540033,0.10351878185370689,0.08915169105643939,0.08546691558298258,0.08546507660134406,0.08546907013856497,0.08946470993713129,0.10257631026854952,0.08859206064025837,0.09196426891101028,0.1052405079940808,0.12320952470729907,0.15157323815320112,0.18034602326967342,0.21650253665385177,0.23499563905741905,0.22804886283751769,0.20083704342041342,0.17859916606293824,0.15130873663425337,0.12604085731106762,0.10531965781249975,0.10421914126437049,0.09883297445283334,0.0857739754860285,0.08546507660126368,0.08546507660125835,0.08546624886046228,0.08787245281175604,0.11345424109090096,0.14848666683768919,0.19322364949954762,0.24302491922496383,0.29807904360429394,0.350694116995407,0.4160299003909378,0.4696371635921319,0.5297671411892506,0.5828099108161089,0.625526471994005,0.682652978024787,0.7382885881010774,0.8043199274443409,0.8704260779141428,0.9226420690106663,0.9206492233484194,0.8762044971457605,0.8109667838434271,0.7508242413030981,0.6971314620677473,0.6318267686796792,0.5861101956537973,0.5362019678348178,0.4703195132504101,0.4067058775180108,0.3555125922803648,0.29062065963357586,0.22447199827306763,0.16108410006419627,0.11213477669602856,0.09686376525696527,0.10436220390064177,0.12149419482591961,0.15500322727398652,0.16035552571311174,0.1475132697539805,0.12089096267420363,0.09167690810989626,0.07474993585508916,0.08540233954029874,0.09766548455561619,0.10419495781027699,0.10702081410818343,0.12181687108989081,0.12149504048557835,0.09953603786547793,0.07682503238868765,0.08211003933103012,0.08067641837727146,0.07797841278110207,0.08022427325660342,0.06690882123554642,0.05720492654896869,0.06390285383719574,0.06784722206128224,0.08496277585288015,0.1132068362731844,0.15094812838564353,0.16177096685367998,0.17655457568788435,0.16699924673047928,0.14607450014445122,0.1272903989371872,0.10555588630430579,0.10164327583937105,0.08636274917141495,0.07289040715804829,0.06635389775442224,0.05387173218246177,0.05610263823876904,0.06658140586363581,0.06671906886941059,0.07252049384658221,0.09791579661622096,0.14200684515614181,0.1918087331926146,0.2469050418189993,0.3009474040338298,0.36669224048927074,0.4233580358618294,0.48041116321397537,0.5464506453048874,0.605428989653118,0.6602431641043194,0.7261716881069171,0.7907625721709146,0.8417872937332649,0.9055349703191689,0.9457387934159427,0.931835050444441,0.8790548575031898,0.8161379541094393,0.764721997667694,0.6995344522060862,0.6333812624314983,0.5672297596447682,0.5032521633553433,0.45218998319848147,0.38753219944941986,0.32137956649795596,0.25522637672336623,0.18907318694877917,0.12292865482128867,0.06320793012325865,0.05836588782157914,0.06749335134132073,0.08368853593041914,0.10222883510004133,0.10412027335068386,0.09211193076898017,0.0653539423421381,0.03310464098458077,0.028065965795391445,0.05148410409582782,0.0660364447206856,0.06619444682683229,0.05288336090866297,0.05229926356656245,0.062162751756074996,0.048635519300820995,No
0.0,0.004223980329001398,0.028678949997569703,0.06214937739928672,0.09220863937274038,0.12392185566762559,0.15731672219227466,0.1773423327571122,0.19120133940242923,0.2228708250446121,0.23911789439305098,0.2393027825105225,0.2383151975047535,0.21314368852309462,0.1686056656232997,0.12364738951180376,0.07869019539685107,0.03525461753765624,0.013323680940580784,0.005811309814799381,0.03978483454717896,0.07712118931258383,0.10425768689322945,0.14805667985142779,0.19299365234159227,0.232083827606139,0.24356311007281395,0.2531220964401464,0.28218339646685475,0.301279430488401,0.31877573571914253,0.3285327046115074,0.3324143984624408,0.3367148553205026,0.3371475722252315,0.33242965826390014,0.3324011649577634,0.33240116495776517,0.3322899130922061,0.3243273098257684,0.3190596802161956,0.3111355268975182,0.29669525884572945,0.30646558886286357,0.3178323755500001,0.3191010609079865,0.31910151439745915,0.31962370544624097,0.3297479265168093,0.3251264573645134,0.3191588011298805,0.3230216725312829,0.3320486238579625,0.3232427857607014,0.3235184659129833,0.3322529696637524,0.33240116495778915,0.33240116495779093,0.3323974258739675,0.32959656508584345,0.31566403163651024,0.30548165983725317,0.2880104596603852,0.27073849074068956,0.26718009611184756,0.2833654823865195,0.31010491638646887,0.32746821765179224,0.3194997613835957,0.31910149793502196,0.3191014241111554,0.3187133398205315,0.30223176636816795,0.27645585116284854,0.24270117885023268,0.21647166025411746,0.2213618814282401,0.26052107828389914,0.2947609019387287,0.3382690958701531,0.38319229752088724,0.42286467170131825,0.45995105660990765,0.5048023154229178,0.5497606550692402,0.5947189947155627,0.6396285399191335,0.6781311204009448,0.7163584515952235,0.7612526124542045,0.8062109521005274,0.8511692917468503,0.8961276313931728,0.9410837608044171,0.9841405938351144,1.0,0.9640107219018059,0.9193213472537849,0.8836971990576648,0.8424479499671449,0.7975009257421326,0.7525508601438196,0.7113520109252982,0.6756416612967997,0.6309672753357876,0.5862932062973822,0.5507765147052761,0.5093947238770071,0.46937089331704707,0.43260328858271535,0.3917509897480973,0.35643030441509627,0.3227804043102007,0.2960729320606328,0.277731056121056,0.2664068355479614,0.2607844817269167,0.25276755369031223,0.2526027198779217,0.25260248014327447,0.2516787534142346,0.2408926472533932,0.23930458497506235,0.23930246560814528,0.23725589040106065,0.22834089204239616,0.24066155810784595,0.2522208171599889,0.26198242459421817,0.2769186811006481,0.29182652178633095,0.30361906684713214,0.2938394613862969,0.29707593919834174,0.3056232733028925,0.29976079463948313,0.29763620193981355,0.30562327330289607,0.2991380347286783,0.2925522984865436,0.29250194241789984,0.2925019424179012,0.2926308869108296,0.30027255604652714,0.30562340011533307,0.2975738535109129,0.3031809861294037,0.29426505089379784,0.2972276170632395,0.3173875433373743,0.31735148993694384,0.30681035129753864,0.31005724245226673,0.30651017051442375,0.2967724957355178,0.3072622190488685,0.3125191449696527,0.3108997562751399,0.3171136355595334,0.3067106860512032,0.3045849916817249,0.2914385467496112,0.2726951014707151,0.26667074060379825,0.28215039747203763,0.30996218446863644,0.3274158793768587,0.31692461266278116,0.3084278501919404,0.31846185011510064,0.31895792060119676,0.30992427472343875,0.2922519625786939,0.2633782276197363,0.23345277536100584,0.21400268754310448,0.23160533218573187,0.27179287314257206,0.3073874629106448,0.3520899602122549,0.3967528657066537,0.43238927243074476,0.47367315045773406,0.5186236147342167,0.5635819304585206,0.608280712411085,0.6442316435663327,0.6842004715722747,0.7119476523809287,0.7485238500980107,0.7922343050836811,0.8192468417708989,0.8567917679820991,0.9003824735994335,0.9338281933839037,0.9414952277878199,0.9095148713133159,0.8653555675177769,0.8204043206809888,0.778929127834949,0.7434590926457778,0.6988220182012568,0.6538814261692636,0.6144180698321557,0.5771164060866907,0.5323275990999314,0.4934347159056678,0.4556051691136558,0.4158149584410973,0.3796811301436933,0.346858354918147,0.31507963944103734,0.2860090923169736,0.2788863701299622,0.26919653615661643,0.2659075296423845,0.26592392671426657,0.2703057850769319,0.2747750926044086,0.26614050874875295,0.2657560692211063,0.25704242386361464,0.25188186622539277,0.24119175248739522,0.23950619787240512,0.24946605785906106,0.26753020154021545,0.2864434556134734,0.30164816995777466,0.3087266220513709,0.31864668115555395,0.3196119759201488,0.32980802842336887,0.33239794162394176,0.3307806382453693,0.321436234666888,0.3310690115916439,0.3232492060761323,0.3206206828115459,0.33116454180818167,0.3229991383286852,0.32804997834198746,0.33200377386319646,0.32257146768720313,0.32862650056115905,0.33239284107515354,0.3324007626564427,0.33092993491656886,0.32143623466690396,0.3309280569849711,0.3235933982761461,0.32723727075055686,0.33118361540813845,0.32037439512517896,0.319102253109131,No
0.13583303733031915,0.11057061322818651,0.08879717025556966,0.08356037125785343,0.08554058920646934,0.093986901193021,0.10714162908049762,0.12667474694547476,0.13470915280159512,0.12152302024186734,0.09688842403946318,0.07289483420637044,0.07210623052227816,0.08428166032705198,0.08135123789249854,0.08593140708685265,0.08601951484891757,0.08273126050276236,0.077338926868455,0.08442277872656612,0.0761558684406376,0.06673806960503326,0.0662641986893433,0.07225838469853296,0.08550246499331426,0.09881288225450935,0.10586952653169224,0.11210868550677255,0.11315966862053939,0.10617703547577917,0.10548032462495871,0.09483061682072336,0.0752912697008068,0.05911876875826105,0.03956659481350577,0.01954462230884091,0.007270917723726011,0.00793138679956984,0.021660554299127055,0.03473039226758834,0.04440483645495208,0.04986440143932458,0.05978160420709755,0.0678441108316743,0.07819448915058635,0.09882995195894795,0.12173878077878553,0.1560363529961808,0.18671668011096565,0.21946754822446501,0.25836525293892243,0.29085265286649875,0.33012703089667284,0.3704377106588921,0.40766917181887985,0.44134973430979185,0.48148693958395583,0.5218083211357101,0.5621064159837288,0.5986192152113139,0.6329800525387412,0.6730820360829033,0.7060982214042766,0.7344549931409299,0.7733576999185021,0.8058866375427041,0.8450034718527539,0.8853227734019531,0.9244781475670507,0.9569107633508533,0.9914711611204274,0.9920336474905986,0.9569251169044835,0.9166220926866782,0.8786741670926865,0.8455707213391794,0.8055758818440508,0.765254500292297,0.7249332208374444,0.6850424902525099,0.6520055437693735,0.6138887166399583,0.5735722569116106,0.5332508753598568,0.4929549146258241,0.45649870699975903,0.4221061612015269,0.3818900135309249,0.34156863197917087,0.3012947097871992,0.2655562060676673,0.23076560278628477,0.19779107697772513,0.16844434251020002,0.1483838071020025,0.15007324676932088,0.1578318433905046,0.16787553022211354,0.18519939854291434,0.20499488093275975,0.21038792199511547,0.1923819615828013,0.1708445941816803,0.14942770524839122,0.15292641552143582,0.16477125102862655,0.16543483326205433,0.16543502945748356,0.1654350294574829,0.16543494053437424,0.16503130263823906,0.15648019336398455,0.1463973776503147,0.14222515169420324,0.13425679333630924,0.12749907264197358,0.13505680626288363,0.14330781510667867,0.14558024447123863,0.14558570070130683,0.14537892155165344,0.13867840685024202,0.13445597611233406,0.11862378683888086,0.1008035543846113,0.07877453549664626,0.05562745248324941,0.035421926104546975,0.01528085966471826,0.0,0.008505190029448384,0.023963464324969985,0.03518139968368783,0.045482539555968815,0.04947626827817708,0.05745286926314175,0.06598801727387493,0.07482515920288657,0.08862044117583534,0.10999128941567449,0.13823648274670708,0.17056644995165016,0.20672109050022214,0.23926750345707992,0.278240350162833,0.3160160459567314,0.3492997119095149,0.38928492031047734,0.42960624305065176,0.46991763461329517,0.5071048274748113,0.5408198050582786,0.580967104879583,0.6212884864313377,0.6616098679830915,0.7017669163113798,0.7358152138022129,0.7726697779310774,0.8129707298120219,0.8530473024401388,0.886626836278344,0.9240238433046359,0.9642704560063504,0.9978425591886659,1.0,0.9723082118855726,0.9380003947637565,0.8977779599290789,0.8574565957855516,0.8173810172996938,0.783861358810725,0.7464085561583804,0.706095716548393,0.6657743349966387,0.6254547488304367,0.5864954582405111,0.5539248450653411,0.5144131250031565,0.474092091615953,0.43377071006419965,0.39359910326995373,0.35952299251196007,0.3227165446188909,0.2824139239353394,0.24425412493375243,0.21158236911731843,0.17944754405365693,0.15606549384897184,0.14589149423388936,0.14636229190710148,0.15498061023825738,0.16978245766996647,0.1908339395720382,0.18877676546273037,0.1696265567585502,0.14780292751835034,0.12842637049895544,0.13889878108139353,0.14554349109645015,0.1455857007012964,0.14558570070129573,0.1455857007012955,0.14558570070129506,0.14558570070129462,0.14550715102728495,0.14041755076590423,0.1344181351850946,0.12660523785029487,0.12819902928745242,0.13632042364585284,0.1445071000942595,0.14558466605216913,0.14558257402698582,0.14372244162734615,0.13609951680484467,0.13342501818174113,0.11687162121573191,0.0967212886737201,0.0765080471357229,0.05333612404621113,0.03250357313216301,0.028866753708786774,0.04293869721426313,0.05580627227760471,0.07307270806320698,0.0832586742667134,0.08711031322079799,0.0953007885434356,0.10353260215053761,0.10722072818278106,0.12212434761293678,0.14458546520251847,0.17441943803439064,0.20644699051930293,0.2432071491763348,0.275919323996227,0.3156868226472127,0.3560080456429475,0.39632942719470265,0.43665080874645645,0.4769651768508627,0.5146983453935254,0.5480141921466988,0.5880117237410549,0.6283330521271422,0.6686544336788955,0.7088962023421486,0.7434948374996915,0.7797222020284047,0.8200152955078268,0.8601849181642667,0.894306459975823,0.9310717880374675,0.9692028347509569,0.9943138148694475,No
0.05255121223823389,0.06645709497533803,0.08942040866647005,0.10806546784498217,0.12191018287986655,0.12942924256598864,0.1385185219435594,0.16007762531003333,0.15350920724553685,0.14726526625409297,0.16307968349374935,0.19022330320942382,0.22908409603250712,0.2715862667529034,0.32356489990134607,0.3800332910890689,0.43651284017553404,0.4926138948193728,0.5372427471094654,0.5893858704087767,0.6432605379042338,0.6867451760245471,0.742189357206331,0.7909378515159675,0.8371016549800219,0.8579779364002542,0.8452444696026178,0.8018801923757017,0.7506121602534117,0.7054385421467693,0.6505451607790387,0.6073732580494031,0.5527860301016712,0.49630706935798186,0.4398376293760453,0.38779124142811217,0.3430904982762648,0.28696227349203873,0.2304827244055736,0.1740195272527525,0.12796956070413223,0.14839703938155457,0.17754967655552356,0.19176768431990743,0.18339098441803614,0.1792775521886778,0.19024138168834037,0.21720663045421373,0.23269909914002618,0.24481223414617181,0.23399595443168186,0.20701380980772788,0.19584861526935393,0.19571108026141992,0.19571108026141903,0.19585750325604545,0.20520010245660103,0.19890383683432233,0.19570972734593362,0.19223166406653114,0.1879845513652847,0.19563344056919973,0.1911801151675565,0.1732662700068066,0.16513376109278743,0.17799977598845107,0.17187265014299902,0.1658460761428877,0.17846881881329502,0.1752555578127506,0.16264089593461994,0.1501927681141253,0.14083177345296205,0.1155201578358267,0.08728626943857254,0.05949933619473313,0.046730828613116504,0.04656256965234373,0.05282228665784272,0.07782468786492336,0.08877399152969012,0.10228110418904057,0.12071380922034214,0.12963229791109399,0.14129995607322154,0.14597683673880946,0.14599662658872248,0.14986058948043235,0.17801204342883326,0.2187754143373546,0.2737684941518337,0.3277971501471644,0.37121688092224225,0.4265885136568337,0.4755518556972631,0.5231158741845277,0.5794987586091627,0.6348755579612155,0.6778309954907256,0.7193849150125629,0.7562850018761256,0.8094600262608505,0.8529970163831861,0.9064042123975034,0.9368291058513094,0.9264557634150838,0.8900223709789286,0.8413703402157684,0.7928162783152737,0.7448857586154225,0.6885973295249754,0.6411070066474145,0.5920655317552161,0.5356283317041379,0.47955140805206264,0.4348385039241043,0.38275357871797544,0.32628347855218864,0.2698039294657226,0.21332913339126858,0.16273035432063532,0.16454254380702915,0.17851779701007908,0.17913755514569063,0.17931266181922112,0.19028484215068442,0.2114867415879944,0.2283066716386588,0.22751126828033508,0.20796216464189232,0.1833189268858635,0.18009410110030633,0.19334789798572105,0.19150537165186376,0.18823220192296075,0.18295560658748755,0.17929799219150455,0.18940214566191838,0.19536890358516779,0.18444321758162596,0.17545058696181215,0.16311937965667722,0.1625642793015274,0.16257442655307042,0.16710103364245477,0.1775653638128989,0.16480343143611176,0.16813893511514344,0.1785198069722984,0.1673986313847049,0.1537153045825974,0.1333063242892769,0.11290901241448381,0.08420790127789735,0.05609293316163244,0.033453630038415394,0.029516995046764638,0.017861179849100406,0.027027659530774795,0.049240489393235,0.06583270990873835,0.08814594031563061,0.09852710925012609,0.11538679401755081,0.1289167682155905,0.132479507633958,0.14526870961916805,0.1485104331741538,0.17120635006934792,0.20617151258290178,0.25047174773286063,0.29358707390403893,0.34678244290075,0.3907487386092754,0.44379651848545265,0.4993860163310595,0.5426729058683986,0.5966607378232998,0.6531363018127223,0.7075375610142878,0.7507920730924029,0.8060023730462214,0.8623762517720244,0.9098584913065428,0.9584124861032395,0.997872898832127,1.0,0.9630000238878096,0.9182492322008233,0.8671477785041111,0.8106817286573489,0.754202179570882,0.6977227311219969,0.6417497204289697,0.597676908381354,0.5448518454371123,0.48837783461847417,0.4319403828600308,0.38187624706550194,0.3353660394344611,0.27903303875253105,0.22255348966606636,0.1661337566718064,0.1253982234147717,0.1515181558098062,0.1757535944230133,0.17913813075324247,0.18263826525054316,0.19520787034137133,0.2028736476898847,0.22250797211341045,0.2434120311534369,0.23980210468694585,0.21429070743341416,0.20349553314716395,0.20091277707409283,0.1921194263929653,0.18914567280094063,0.20987891120102198,0.2029454015430825,0.19574389413296034,0.195711013685691,0.19528612118864652,0.1833823136414936,0.17914629070503763,0.17913767978139816,0.17913767978139727,0.17907985054018116,0.17150497606399062,0.1635877529344163,0.1814508297978512,0.18657017026436273,0.17913133281511628,0.1712811167631294,0.15715699942183825,0.13160378028781494,0.11226573517472138,0.09156395547803431,0.06336582013563552,0.03512657568756916,0.007612882440819924,0.0,0.012873660946573384,0.02522010671751662,0.04395770412961397,0.06277033164492707,0.0866268954353746,0.11027569484421473,0.12680135287673666,0.14453515571142272,0.13367385720280422,0.137149608891042,0.14612539968775584,0.15832468556002421,0.18420309398678514,No
0.29505349128933167,0.31458719820028147,0.32934681203206795,0.3246581648606641,0.3075280215174696,0.27817524406406946,0.24289283495799996,0.21297169039808006,0.2151669997962613,0.2301158380677788,0.23391104723270884,0.23392136345351577,0.23392136345351267,0.23392136345351044,0.23392624403994233,0.23703432181220752,0.24179554622083588,0.24288904386570254,0.23553581201235962,0.23557032993487415,0.24545882111555128,0.2352571923876745,0.23917562456276187,0.24333959483162326,0.2340849422077964,0.23371592778689498,0.2258406187444173,0.22966523788437065,0.22034020280942457,0.20871743073756965,0.19276983690737248,0.18375590998946434,0.18215597848960075,0.20038788816899578,0.19393451528596772,0.1963798306824267,0.20822564139163902,0.22686102356353777,0.23387662938749498,0.23392136345346115,0.2339178501513599,0.23069168542034824,0.2104413148648856,0.190499247447947,0.16310999039315055,0.13186830947276684,0.10239761212060472,0.07359917938009097,0.04401419527846162,0.024014084344067932,0.0,0.008598642803745893,0.02615814464123556,0.04932446798510881,0.062449832480416134,0.07967465013814445,0.09929335895929459,0.11337507875007047,0.1323981624318722,0.13993614613407823,0.1518437983963845,0.17009192776552817,0.18215250549622164,0.1941002286562048,0.21262442635235423,0.2260861231789728,0.2553806718035916,0.2877739379152282,0.33239218854328056,0.3765546029936053,0.41296858105749834,0.4595628390550752,0.5065981915382962,0.549264933875925,0.5869900455577062,0.633777651341382,0.6807785303471658,0.7213813911660618,0.7610254495029305,0.8079318267142441,0.8480828869026986,0.8881692514834088,0.9346057549643003,0.9708774885013889,0.9997252656384843,0.9900416672578523,0.9574930641012123,0.9120365067137963,0.8731699203666947,0.8317471250703301,0.7849071941587717,0.7464684246300552,0.7045803322362758,0.6587086537834166,0.6228851358369472,0.5774216450297813,0.5304096437980625,0.4886929422152426,0.4501319620401971,0.4032071763248335,0.35616204101051707,0.3091169056962011,0.2620747549883089,0.21756919326017643,0.18171327081778488,0.16459366103716322,0.20640234284096026,0.24233970706701813,0.26152587092187307,0.27155604921146415,0.27901041195681353,0.2908215747696574,0.3086287648954027,0.32528262730812996,0.3315033352131329,0.3219519766983372,0.29332321717775,0.2654511284192904,0.22345588628142155,0.21036206185561301,0.22207732709940364,0.24398144712495018,0.26131925651359245,0.25405204201188614,0.2558425713409971,0.2618116398195065,0.2619639169056609,0.27024686063621184,0.2757826642117611,0.27581836987415276,0.2758183698741501,0.2758248904925491,0.279352647149298,0.29420458194633037,0.29405866963207083,0.2770960112920027,0.27488964106849156,0.2638611042233556,0.2618528465904486,0.26054358669925515,0.24047401222334752,0.22765038912919344,0.22004916126228746,0.22363585781933715,0.23400940202432619,0.24469902936412868,0.2562920154899926,0.26399389490421976,0.2749911404660783,0.2802757203637549,0.2895043901347716,0.2843846829280583,0.265205611427513,0.25232149291865236,0.22785826486415273,0.20265862686036895,0.17006315903598512,0.13822611444075683,0.10310571432559401,0.07547804563970884,0.047037941769250136,0.026662314826881417,0.01461645977629189,0.039059929836449125,0.06371829114364491,0.0878673458603938,0.10731394859387988,0.1225304087254111,0.13604439341417374,0.1462872261423489,0.153672859018664,0.16873383598623626,0.18452628639202162,0.20015756505529714,0.20799883312245093,0.22227200121682156,0.2464032446680564,0.26809152621984733,0.2989127206629223,0.34049108322070687,0.37851713921475305,0.424311067837551,0.45997920649735224,0.5054505483906686,0.5484790077291235,0.5858710790823358,0.6326275478811958,0.679641203710021,0.7205954650192603,0.7599064830275606,0.8068423885092355,0.8538795122669982,0.8970729781107942,0.9343154239285472,0.9778180743753238,1.0,0.9896227570847911,0.9461127156992646,0.8997728462157735,0.8635675652623487,0.8189941067897366,0.7787036435231678,0.7387533836149096,0.6917764149541328,0.645764375336479,0.6098339637480628,0.5646060637716288,0.5178011109373553,0.47988569049639107,0.4374264590721162,0.39042554188680256,0.3487917882416047,0.3101503657670599,0.26359353875004077,0.24075686107273242,0.2662732355205262,0.2841646113118941,0.3023192300914692,0.3140912813008261,0.3178743866556024,0.3327783336494594,0.35913172529980697,0.3710216727415392,0.35286608778883544,0.3348200104184711,0.3051912027555761,0.27003858845983375,0.24449378802864308,0.24366572806696807,0.26123827415688394,0.2792135259637134,0.2894789409938108,0.2897445269815768,0.2838844776647238,0.27829661882655055,0.2886958679926863,0.2792740318095719,0.2758245923047933,0.27581489943913784,0.27279904868951155,0.2623463616622974,0.26185269808374523,0.26162642294828276,0.24819778624150235,0.23151956563859688,0.21282125684225806,0.2042367449771234,0.19291355853042003,0.19276212339901955,0.2039090556560872,0.21146832904536206,0.22062929076708837,0.2333835271445852,0.24658803428835352,0.2478862338817711,No
0.35538987036732284,0.3224018991058939,0.32201783905422054,0.35424142600536435,0.3610044376807222,0.361116056259136,0.3835214305408936,0.41398911448742304,0.44164858202664004,0.44190941556330277,0.44190941556330543,0.44160876223420864,0.4129376944452625,0.410997606565755,0.4322582028649169,0.40251993352328785,0.4014577413901712,0.4014577413901721,0.40108222685129924,0.3703763386462562,0.36111277934919084,0.38003654828740174,0.4013466302730757,0.4019686580495634,0.4273237843905484,0.4138919563534458,0.40156445352234016,0.4153463039697254,0.4643076481643327,0.48232483982914687,0.482359742370968,0.4761454663780702,0.443539588487571,0.44190965011780126,0.44014083681619276,0.4076719275656382,0.40147034951390737,0.41002787852972755,0.44149605832544303,0.4253750517710264,0.40172643094749017,0.4014577413902032,0.40111567547697646,0.37130982865092665,0.36103124138478293,0.34973960379384916,0.3164167337906223,0.2725992147776699,0.24074851099117467,0.25356837716407377,0.2875279870529299,0.3344674588382688,0.40303842969841064,0.4340893333094016,0.4029489483380848,0.37950295075099927,0.36563779313532674,0.40832510030567803,0.43195914719985495,0.40248652288856945,0.4014453833583609,0.38457182812566515,0.32878089877781314,0.26665013712599883,0.24018443294969583,0.259755619325424,0.3206455677304403,0.4002741592501238,0.4671450696458148,0.5359325379849107,0.6261842036172327,0.6939765296515965,0.7572863572835065,0.6954591247078135,0.6306292285627357,0.5978235269896404,0.549099342870635,0.48230637651279196,0.43211536662119965,0.38192580880017957,0.3598523196905683,0.32761316541407126,0.31993962475449145,0.2881838850555365,0.2802094310029748,0.30134789894953684,0.3224036362058813,0.35572377420921164,0.3610024695395788,0.34943508167206794,0.3228959464362182,0.354460588727771,0.3565457843211046,0.3220760439765593,0.2879379931978061,0.25443590554559314,0.2610348480983484,0.2736590627902755,0.23866533951509084,0.19837296255310033,0.14887303365496418,0.11917103515966154,0.1343628623590618,0.16741131492753514,0.19880955043915183,0.207066358496097,0.2519418322988125,0.30125375947707766,0.3204926584695018,0.32132424212285216,0.34905310590336125,0.3610024695396046,0.3558610286725523,0.3225103196572565,0.3205547651567189,0.32055439304399513,0.3205543930439978,0.3205543930439987,0.3205543930439996,0.32064560018063837,0.34027208448615553,0.3609092912253198,0.3610060672171471,0.3610060672171489,0.36102116078799096,0.36993181959654375,0.40106629893444623,0.40145774139029644,0.4014577413902991,0.4014577413903009,0.40145774139030177,0.40224429578655396,0.42979099362785966,0.412425509070931,0.4014917604964259,0.401457741390308,0.40145774139030976,0.40145774139031154,0.40145774139031243,0.4014577413903151,0.401457741390316,0.40145774139031687,0.4013215744432612,0.37302963536905676,0.3104469013496711,0.2909074223122907,0.3099442787758182,0.26201054394417866,0.2397577568299143,0.24769748598794816,0.29258172509460234,0.32827950522317106,0.39026449762002,0.4014905751559956,0.41256163711388183,0.4415960199007971,0.44190941556347596,0.4423284529772378,0.4672011466878674,0.4815496945551221,0.4456854761961626,0.39689931518975463,0.3623447965065658,0.363071663087954,0.4172380000823086,0.48193118310909266,0.5463805980413499,0.6399644523408821,0.7353217402188523,0.8012901286422629,0.8945021936790374,0.9588186502451421,1.0,0.9340172154212194,0.883546078955546,0.8005707550221821,0.7239923291588468,0.6443897187061784,0.5831637076593772,0.5242251114471355,0.4638053460984697,0.4143644068732497,0.3839801699555645,0.3539348658245878,0.3218755175966699,0.32055529246345316,0.32663522350456553,0.35915227881287315,0.34874767907154514,0.3212908314881693,0.3190323009350493,0.2820111479292331,0.24085130136271182,0.20683644620642738,0.19919901269921603,0.1833985789506407,0.17139246141097164,0.18469506414967096,0.13633534372469036,0.11619495586221795,0.08310065902702224,0.047570677662845284,0.0035523699236721384,0.0,0.034904801412558584,0.07228997940435544,0.12113755630620915,0.15958869182354096,0.19506406034316282,0.22838458127459393,0.24030128298677678,0.2670807636455308,0.28002842948168727,0.2605904434675832,0.23974883462933594,0.23964913299074286,0.23233738563293294,0.20049543710120332,0.1991994639937582,0.19919937052468661,0.19919647121985573,0.18671191225508732,0.1594590768195614,0.15921700314783394,0.18593619207610157,0.23595708071268007,0.28474178237787307,0.32018075513182076,0.34279185584948024,0.3610571747348894,0.3814876449448805,0.40320825840176866,0.4422587131510083,0.5092091877662623,0.561287146220927,0.6007778431627351,0.6189288337611023,0.6452313390103477,0.677200383926996,0.7069296824382167,0.7182913233824539,0.6859415948936425,0.6613658740471218,0.644923386384713,0.6718265755009156,0.6851025240313682,0.7119773821145783,0.7619634245111282,0.8036277068632591,0.8389782346975272,0.8462366240351731,0.8213365760825218,0.7915695063747537,0.7660170202907066,0.7655228089487105,No
0.15031793818765782,0.14496632498231676,0.1322140680861028,0.1147272509191557,0.09318399658803611,0.06839356739188451,0.044450455344868356,0.016306533282793856,0.006966019292391712,0.0205943109224076,0.04182438969533786,0.06107452610050945,0.08287145271990948,0.10020474432681392,0.10877009192908083,0.11808937680299092,0.12749762488560212,0.13967555102204088,0.16014136595441708,0.18728627256977126,0.2157630290358894,0.24861037023588994,0.2800260070780827,0.3072564927428121,0.3344389617438581,0.3696301513286939,0.40717778244355274,0.4447391908473839,0.4822963257157169,0.5182923025500736,0.5500977991642899,0.5872669272540789,0.6248266417072608,0.6612993794028232,0.6929286896589482,0.7297948351133685,0.7673556712474121,0.8049170796512433,0.8424243921854437,0.8761171243980623,0.909941523210483,0.9462661856488459,0.9692447397117905,0.9624907681158941,0.9341709504871878,0.898149598487912,0.8651108451069611,0.8306153307677999,0.7930826633048289,0.7555212549009978,0.7179600933884123,0.6808288381280438,0.6490721635235299,0.6129901637486399,0.5754323104990677,0.5378709020952366,0.5003094936914056,0.46274810560779156,0.4253449006377996,0.3926460238091227,0.357765894216832,0.32022054928947585,0.2826628285319568,0.24656764134469755,0.21478393805650153,0.17963207835780692,0.16612631620870189,0.1660793723655154,0.170589953833169,0.16668841198617823,0.16126554028123286,0.14769881612452496,0.15533509563000303,0.16409295821925385,0.16585373752027377,0.16585859694495708,0.1658543234094576,0.16425204863925424,0.15855790082484256,0.15814064563328833,0.15814049932772667,0.158140499327726,0.15814049932772511,0.15813593284763283,0.15644462187408625,0.14766737304022537,0.13111374760593564,0.10781474774746513,0.08400425657465771,0.05729186944423037,0.03147836593213693,0.00974956191877463,0.0,0.014729238936804778,0.03349322455611503,0.05226960971701744,0.06993991725615767,0.08588893816846843,0.10005794441749116,0.10533358084559508,0.11402976905088957,0.1305602316515142,0.15372031023442867,0.18038359979494922,0.21122749987681955,0.24302321536120952,0.27723766585930587,0.30893012835222233,0.3455025450637792,0.377314309766523,0.4101602241434821,0.43652500741353806,0.4728181066899644,0.5050214211586621,0.5404545036166937,0.5780050097047844,0.6155313384355634,0.649826157243089,0.6830637917046976,0.720532545702883,0.7580939541067144,0.7956044360070107,0.8293975159854474,0.8631252612161555,0.900621392567772,0.9378494403870345,0.96981424854756,0.9999999999999998,0.9947240930418808,0.9615999265635458,0.9294904688598791,0.8939246067281845,0.8563710637660513,0.8188096675543501,0.7813737477696934,0.7485173354300823,0.7138211255592859,0.6762821193641217,0.6387207109602906,0.6011593025564599,0.5636087964683691,0.5281757140103374,0.49597164134125626,0.458631734046014,0.4210703581545294,0.38350894975069827,0.3459627561224552,0.3108119832277729,0.27835350833931716,0.24098141375259918,0.2034207739631102,0.16728297858466745,0.15622562377664373,0.15827175242401936,0.16305058396260264,0.16578699140706332,0.16106845283526416,0.14625262579692788,0.1482245723882234,0.15758556608796614,0.15814015947116156,0.15814049932770424,0.15814049932770335,0.15813886229354068,0.1571488285146756,0.15111976642791802,0.1504230204629109,0.15042256427220768,0.15086778433275483,0.15659975487546407,0.1569379587807853,0.1499395181557026,0.14101555628144657,0.12473963722516146,0.09984271996386185,0.0744546774696393,0.05149929538840503,0.02773038522203386,0.013920201841362001,0.025104782510852797,0.04683499276475489,0.06590903934561276,0.08455739153400721,0.09980355734534707,0.11362865134468136,0.12129385723482655,0.1288838003555921,0.14218147931739056,0.16393965069863348,0.19306927783068661,0.22340001845002067,0.2555276165965452,0.28947494414487984,0.3210300936763113,0.3575331546648848,0.3896689560670008,0.4251961417128154,0.46273878308334404,0.49813259933397314,0.5304091970602711,0.5677142575862666,0.6052563884430502,0.6400529460796645,0.6728222027587376,0.7102417651360615,0.7478017887116122,0.7843305156562117,0.8159416310054233,0.8527698548619027,0.8900779566939756,0.9198642118376774,0.9236740974818367,0.8923729583495972,0.8575399165505138,0.8248270394426842,0.7874227250521431,0.7498613166483128,0.7123266229129952,0.6779286755205787,0.6447917947137907,0.6073337806502133,0.5697723722463812,0.532210963842551,0.49469275504151633,0.4605729211955292,0.4271736617118518,0.3896834278444521,0.3521258696486669,0.31647593503430294,0.290631113703852,0.2601508093492939,0.22501938338311023,0.18796777561424216,0.16836553586054714,0.17307126465036138,0.17358490195213827,0.17544314950987627,0.17540888787968,0.16423729255176456,0.15348839734450892,0.15775085537805866,0.1581402989190812,0.15814049932767715,0.15814049932767626,0.15813798345973473,0.1569438693504237,0.15108959630152308,0.15465034680161938,0.15338727230725735,0.15288509160790653,0.15793319115948656,0.15812244322720148,0.15439326654172292,0.13846373652222965,0.12164582042092542,No
0.18637725660222926,0.1770533656835367,0.15801411971548918,0.13340943472206712,0.10575738662371803,0.07908851287905638,0.053164419356656945,0.03095073111480251,0.017187729573255428,0.027558245263858083,0.046329006583042176,0.06724719549710034,0.08563115384785092,0.09592594741761173,0.11083094111593184,0.1232745405431317,0.13258680073127094,0.15113353658845208,0.17609315540128256,0.21123377977604618,0.25144304912969706,0.29161241056573095,0.33534366732642296,0.3746610810736801,0.4213180690560321,0.4679207431406269,0.5071382217958174,0.5512010436621446,0.5980854909980537,0.6398430315628822,0.6811499851143223,0.7280146952533524,0.7722833211702611,0.8018234966060402,0.836236959531856,0.8828716586809378,0.9270983657244611,0.9655812295803397,0.9881164352640275,0.9628797611926745,0.9173449905092796,0.8726071798400927,0.8339262680235546,0.7874656888437868,0.7405127951269053,0.6938216870523115,0.6544188722426363,0.610625502633708,0.5636849332716614,0.5167318700297818,0.4697788067879023,0.4228257801544111,0.3761183490815243,0.3365725895982601,0.2929368564261039,0.24599792280481525,0.1990448595629355,0.15209179632105663,0.10519590831176351,0.07121550154354872,0.10152500284487176,0.14373079058478666,0.1831296232646984,0.21297625759295769,0.22388089580534576,0.2310081618147446,0.22415256594256272,0.22331736096077948,0.22181482062985935,0.20279069023958263,0.1777739740749904,0.18329177413938358,0.20050875538796098,0.20134907611959574,0.20134943652019133,0.2013301913539869,0.19781626978994482,0.1905982817188605,0.1903650042938685,0.19036159344193893,0.1885746341364567,0.18008561301148585,0.1782486551005702,0.16960497925567908,0.168397176272012,0.16839613984122614,0.1683970201476035,0.1696220021955004,0.18392543270997752,0.18999079779875183,0.17909214037912924,0.16041132524566115,0.13683452722049316,0.10383662182122944,0.07229027563085944,0.04533247950143271,0.021808743534732944,0.0,0.0015146546591331411,0.019725020186322606,0.03839515652644043,0.05548569602258735,0.07113262202848492,0.08628632655070234,0.09569419673347568,0.10723509686745158,0.117095391295446,0.14155410030234794,0.17605862482796342,0.2136092454711096,0.2526167322488242,0.29851309011216975,0.33698465679490885,0.38212031764274035,0.42746932193055387,0.4658233591183627,0.5119940016595945,0.5588372559239387,0.599536432321931,0.6419097380919869,0.688821308241881,0.7357741754880827,0.7820215694033752,0.8204864358986146,0.8656523843901651,0.9120593858716199,0.950610305562815,0.9912618381836016,1.0000000000000002,0.9673780490138941,0.9236964254072946,0.8842940908536716,0.8376495665704822,0.7906965326153135,0.7437434693734344,0.6967904061315549,0.649837342889674,0.6028842796477953,0.5559312164059158,0.5089781531640367,0.4620250938645991,0.4151993210540772,0.37440511193386494,0.3321143706508449,0.28519726918094945,0.23824420593907059,0.19129114269718972,0.14433906412391284,0.0995743297443279,0.09799702268232435,0.14170008165895487,0.17766720212576548,0.19020158976947443,0.19505804000155558,0.19567181592902405,0.1990728685899681,0.19656950324471967,0.19039591710371284,0.17967192584108171,0.15104231285939318,0.14661997870895016,0.16524433161988283,0.16838832870428155,0.16839613984114465,0.16839613984114155,0.16839613984113866,0.16840331756350424,0.17105069277694485,0.178956381255456,0.17938051462042925,0.17926144144560574,0.17319581358415892,0.16843654604017133,0.16839616912782596,0.16870470808651317,0.17627258438653448,0.1835226622277244,0.199091978472415,0.20403422894945367,0.20965054093816815,0.19172045162908669,0.16826382328911782,0.1435063593101895,0.11593689922537642,0.08914981310424985,0.06453211336950893,0.05128024737544279,0.06124773107523018,0.07174095085845011,0.0877996895076203,0.10106726781246755,0.11275965027090362,0.12057195506329665,0.12746077938689981,0.1432254292355064,0.1723631455624388,0.20762909713950117,0.2454136136800671,0.2869753619731088,0.33165682616748127,0.3704071376041902,0.41679510906207073,0.463086009669728,0.5015643790434521,0.5466573688605714,0.5900923457015128,0.6298167860267603,0.6765446208475152,0.7234976531130657,0.7704507163549452,0.8173478179030325,0.8591876370862435,0.896402960880166,0.9106359010171541,0.8839264550785992,0.8400087468528838,0.7931183409345766,0.7513342140052466,0.7100614013660469,0.6631916873522312,0.6171982968329506,0.5789292220757345,0.5333148602014564,0.48636314563916483,0.43941008239728485,0.392461029873979,0.34740880558306286,0.3089169333308537,0.26258479651655686,0.217626865660403,0.18693138544133436,0.14409153163572141,0.12348940087176974,0.16049318466897322,0.1906969177253499,0.19997620475209543,0.19103440595168908,0.18211392924073322,0.18956962689291523,0.20047570605745002,0.19347145094340945,0.1714237947418864,0.16384056055237406,0.1855835195030291,0.19073285767650616,0.19650328673805828,0.19047736511925817,0.18219408037037188,0.17865769982055135,0.17009505971165617,0.16840672571202475,0.17116961551664667,0.17819907097060117,0.16997669033674145,0.16839806097673948,No
0.11240644251377141,0.12788595437544048,0.14017050126876063,0.16081271961888133,0.19633440130858304,0.23916465586883584,0.2800385529756504,0.3182755271739266,0.370193882487591,0.40919039081550546,0.4604960886411318,0.5121273650314269,0.5513351223539273,0.6044425358713603,0.6575554984342098,0.6959149830893518,0.7483939674207698,0.8026510484564233,0.8479932945583228,0.8924577753455143,0.9446038197360327,0.9817177465874418,1.0,0.9777487401203961,0.9305194485686892,0.8887668505528659,0.8348431550754905,0.790715407299869,0.7450283914351314,0.6907679922342762,0.6364808782363705,0.5821939232597781,0.5293628080447661,0.4905504960189373,0.4382435968067879,0.38395680287725753,0.32966973648445874,0.2758248887076493,0.23556261059401962,0.18571492631000153,0.1314327275181455,0.07731391690083678,0.04766048151381508,0.07081013173658324,0.09142250253094852,0.09396027717857036,0.10987100851453802,0.11174086685957407,0.11174252428528941,0.11161236243786687,0.1003396033178734,0.07290154974285512,0.04056703053577637,0.04846428586434426,0.06647293926873754,0.07387249668786167,0.0739195350244457,0.0743298408419033,0.08805268150098078,0.09275302905545901,0.0845461462061814,0.07877125267861373,0.09247150280473226,0.08693992791866689,0.07737898927618891,0.0918725770762121,0.09283092532876847,0.09283102965485224,0.09283102965485135,0.09283102965484957,0.09283163332811473,0.09637931500668939,0.10975188502048816,0.09550257626229408,0.09998544958291333,0.11157688421939005,0.11174252428526055,0.11173254953215972,0.10557418205058111,0.10281440352300475,0.11164804525695704,0.11174252428525477,0.11174252428525433,0.11174252428525255,0.11174252428525167,0.11174252428525033,0.111742524285249,0.11174252428524856,0.11174252428524634,0.111742524285245,0.11174252428524412,0.11174252428524278,0.11174205504915191,0.11012046473917714,0.09440839558909442,0.09283127679622494,0.09283102965481893,0.09283096381796874,0.09222281408675759,0.0779660711201382,0.07839937529949959,0.08608261376376936,0.07413411029108463,0.07391953502439419,0.07393856997979542,0.08301220740959181,0.11013678790743331,0.11183957715286041,0.12331566684064166,0.13447134242711645,0.14888356387050905,0.14956534135737476,0.14866236154803403,0.1339784501693,0.13065256819131443,0.12859625377832717,0.11107860851321716,0.09431894429821375,0.09282437513013564,0.08823822399345538,0.0743536025917968,0.07567608714525154,0.09124278198339164,0.08566512269613069,0.0740323996852843,0.07446290662239097,0.08956135916923325,0.107330383499177,0.11386587779802548,0.1373620613442439,0.1803894749522934,0.21689066099411036,0.25691341939900125,0.3102383524524943,0.35004629680501864,0.4004261859973388,0.45272750675800566,0.49153981878383357,0.5443708813293653,0.5979892789957133,0.6367708890788641,0.6882972284349718,0.7339809234085171,0.7781086711841372,0.832032366661513,0.8737850821707913,0.9218748774168994,0.9599436336459553,0.9483464005311255,0.9097717047195744,0.8709127782786981,0.8199726681350898,0.7802644307411413,0.7294803386132318,0.6751938201855943,0.6209157303890871,0.5723256528063634,0.5309510779876825,0.47695685882438754,0.4226697448264818,0.3683826308285756,0.31409669898053627,0.261541063540065,0.22312419681090967,0.17014547094394672,0.11585855546946311,0.061576578147024996,0.013497654218815658,0.017193184278137874,0.03941020529406547,0.05895909429620305,0.07340345366580125,0.07440805912227821,0.08867115647602741,0.09273042498504358,0.08300598421595895,0.055871115777401226,0.020336189770288282,0.0,0.014230267439879984,0.026879626817981617,0.05055391348683047,0.05500163020971005,0.05500804039392948,0.05500804039392859,0.05504632232089657,0.06588742391252111,0.0736973684835438,0.062445531269395005,0.06304887835436457,0.07379142830262042,0.0799798608403135,0.08599117075778118,0.09090171206662756,0.09341947058227174,0.10823526071574152,0.10050071586595344,0.09523655444005863,0.11046474655227367,0.11759680185550536,0.1304527983309267,0.13065400574821417,0.13065456586786972,0.13388885707594156,0.14862549449422913,0.1495656907990539,0.15132206566687367,0.16693493261272696,0.17311833476175176,0.18703576748170292,0.1974881088246656,0.2062150065472883,0.20629999743724392,0.20621500654728564,0.197488150352517,0.18742276148266468,0.1871801661184067,0.17407136767852505,0.1669864432665218,0.14027369883820917,0.11927247788368867,0.09254673610018083,0.07162582458960598,0.05532928291093331,0.04099798995331794,0.03610469346547385,0.03942085851080224,0.05301740112910913,0.038972839361933964,0.035415284842647665,0.022400541640992255,0.03524360016513661,0.052765004289401674,0.058688473681258735,0.07318923136946909,0.08230720084654486,0.10231700596613758,0.12934612562963688,0.14324082906168423,0.14959771821326973,0.16034454601773795,0.15587848534370252,0.14958055486125987,0.14858352426481414,0.1301341707839594,0.11229421452618338,0.11137394456640903,0.0975591627204202,0.09283772441920046,0.09283102965470036,0.09283102965469991,0.0928310296546977,0.09283097394659334,0.0923149817210005,0.07826624882309652,No
0.9195099145255052,0.9587731103086745,0.9951087386703037,1.0,0.9739022372326245,0.9386583587910908,0.9017546032068786,0.859556135537594,0.8173378063593346,0.7751194771810752,0.7329011480028158,0.6906828188245564,0.6484644896462965,0.6063797064267682,0.5713830807019042,0.5340003413772423,0.4917971524575857,0.44957882327932586,0.4073604941010669,0.36514216492280704,0.3229516734557736,0.28520511302483476,0.25056441232405247,0.20889395321504622,0.1893164128891991,0.19868810667293602,0.20788496924038258,0.2082593505447754,0.20850877671101475,0.21600329960793552,0.20933593031854247,0.2104527877114526,0.21990697332437703,0.21950614781564504,0.20809288446906926,0.19003270877663203,0.1733965627065619,0.17322058258362394,0.18294017911004223,0.18384729127680544,0.1838474690467784,0.18384706883934232,0.18270789104641016,0.17384028327846712,0.1823748405888459,0.17565593422325398,0.17165302381776137,0.17164148952245006,0.17164148952245006,0.17164148952244984,0.1716414895224494,0.1716414895224494,0.17164148952244895,0.17164193335083766,0.17272251265522032,0.18265762245825545,0.18384689965422396,0.18384746904677485,0.18384323397672597,0.1810789440926368,0.1704835220730201,0.15382287465679556,0.1327265597453744,0.11108955777370944,0.08384023433926924,0.055778702144225534,0.02984910012862363,0.003956017716552962,0.0,0.015801167183108644,0.03522556187876469,0.056332169344911476,0.07743905801756412,0.09854768508430234,0.11843621237893753,0.13280007659714088,0.145553396571382,0.15286946020496095,0.1593752310086387,0.15944400769276235,0.16282809943967336,0.1718853791468713,0.18156440504378013,0.18902680839073494,0.20942283436387577,0.23690459359133342,0.26586770144628424,0.30383320971009153,0.33626331831042844,0.3762646091091981,0.40861083555110733,0.4497227104557897,0.4918508522582834,0.5272416117765082,0.5642125100981707,0.6063897602271422,0.6486028180989667,0.6879312548034897,0.721200086389211,0.7630571678079905,0.8052753359194953,0.8468069976592552,0.8793109282569391,0.9197180070264448,0.95731071871232,0.9637390820649263,0.9394840578436248,0.8976100717016622,0.8553919012039817,0.8139477354457472,0.781348532232875,0.7409420520671479,0.698724405334691,0.6565060761564316,0.6143228674253316,0.5769661064757416,0.541949658575215,0.4998387389677199,0.4576204097894605,0.41540208061120154,0.3732049684751355,0.3351040448793339,0.30080480726781644,0.25873474342249025,0.21653198644570715,0.18213513375745194,0.19203265485405696,0.20708620878660167,0.208259027887987,0.20825976693214932,0.2092166110354361,0.21909273025654663,0.22046421788177506,0.2205241793784083,0.2266756916178223,0.23024885803338035,0.2193537004814461,0.1982903245802925,0.19003697739038206,0.1959925075147111,0.19605344857109364,0.1960534485710932,0.19605344857109275,0.19605344857109275,0.1960518076728115,0.19454780337175626,0.18457913792004543,0.1765333459599181,0.179350013099286,0.180150287694949,0.17173406337267805,0.16481391828211844,0.15945731701957033,0.1594355099981104,0.1594355099981104,0.15943364351967526,0.15786338088070795,0.14806698347412195,0.15009565822129978,0.15894064588776158,0.15208308193936748,0.14185782624865872,0.12780132754594775,0.1071888147190605,0.08002065578885542,0.06344159677350514,0.037411788080699004,0.015743955395793208,0.002087147075460649,0.0177242294291442,0.04060183097115955,0.06171452393606969,0.08170669941479658,0.10185927829582453,0.12222947450938815,0.13628322495942058,0.14782151110057185,0.15821230810728282,0.15960060276076993,0.16782775234828606,0.171626894438776,0.17339550031472295,0.1831784427576344,0.19213729981722816,0.21208909498277917,0.2362772312524073,0.2647999538182022,0.30382989933666593,0.34542944553224153,0.3780645646198062,0.4182771265676295,0.46033246656380733,0.49442678694989484,0.532740328444615,0.5749414129820982,0.6170270409272982,0.6515995015060572,0.6894169345699686,0.7316086881302821,0.7731715241005941,0.805703853474121,0.8460605833753485,0.8881076271877641,0.9194806688863846,0.9263065827912356,0.9038854341354448,0.8679697495663885,0.8258267747206602,0.7874777969094557,0.7534176293942734,0.7113611841363365,0.669142854958078,0.6269576600262687,0.5894945901272188,0.5545806008394085,0.5124755177693663,0.47025718859110643,0.4280388594128479,0.38597597736571165,0.35117731637337224,0.3135756600815012,0.2713715222241362,0.22916603334038088,0.19439695165283233,0.19563970154114507,0.19605334000016095,0.19606915819231174,0.2010360982262367,0.20829507022298577,0.21647117852864284,0.22044683884515504,0.2204641614867242,0.21907266373750645,0.20683303116479745,0.1891775471768673,0.17627749295817874,0.18273279385848706,0.18386359400575225,0.18900601142584295,0.1959505642537005,0.19612778442961432,0.2026191327416509,0.20821305251089406,0.2082594280954071,0.20825942809540665,0.20825942809540665,0.20816092401250463,0.201255964131152,0.19607010355075438,0.19581477698486216,0.18781445429808574,0.19233141626037975,0.19159123915254428,0.18869703533657667,0.19590660561450557,No
0.32844426825245465,0.3417445239557537,0.3665018055774487,0.38407598860822834,0.38494292899851823,0.3849430553999076,0.38493102130635215,0.3797071180093532,0.3469919269488444,0.3025626028783295,0.25523262553530257,0.21235288880795178,0.16655635436290206,0.145106141160547,0.1571343121815474,0.2002016340367283,0.2545374924818842,0.2979055059354554,0.34863009197834316,0.4035144494164311,0.45840744737682426,0.513300445337217,0.5681923609191482,0.6213541062288037,0.6536177439973643,0.7007014417584618,0.7555497516411367,0.8102732971118427,0.8557491409410498,0.9041384354522783,0.9589689236424852,1.0,0.9697792274311752,0.9249304668676728,0.8705558947757126,0.8269827300667982,0.7765720696273584,0.7217673473485475,0.6749559150976769,0.6280738670112807,0.5852160438508149,0.5509963814457719,0.5099906433149224,0.4652810580551918,0.4285687779417193,0.39440183154278685,0.370130757745629,0.35443902267595284,0.3582821002611074,0.3667034235691542,0.3556184642885256,0.3675036872124746,0.36815881932013195,0.35588480053851423,0.3602599989661144,0.3573526180340951,0.32585947448537267,0.2961565575486209,0.2629740174881703,0.23585856250740456,0.21605476245326916,0.2027445284641276,0.18486088122385524,0.1756582624467522,0.17575206212326444,0.18558106257506735,0.19175913507808628,0.20076250716309874,0.2077264393271827,0.207155739056621,0.1954373034099528,0.20361213369027542,0.20059334136317641,0.20309055894239636,0.20777558469907742,0.2133589625145107,0.22370820005285408,0.22871274080925685,0.2403207377162646,0.252845943435716,0.2560766354994932,0.2560803214077705,0.2560837785041321,0.2586657253293634,0.2706407525237071,0.2610944577669554,0.27116836234996233,0.27217527745586745,0.2667642436953681,0.24168149887752088,0.22463551367515366,0.23193989093875356,0.24563790174232913,0.27084831043610436,0.2959100433656019,0.2908373115282341,0.2882994422128724,0.28829600490582896,0.2878847784969958,0.27287568898930337,0.24089948787689464,0.1911276785787437,0.14883086146519675,0.1005056395233832,0.055793980750719285,0.007597425918692835,0.0,0.025896866449619083,0.07021523441973887,0.1249435391686915,0.17973564485224225,0.22589193042855582,0.27355579504459415,0.32840768926124175,0.38330068722163446,0.43819366486751754,0.4927801102270424,0.5368950705620374,0.5867772107648648,0.6416578352745756,0.6965508332349684,0.7514438311953615,0.80626319496674,0.8443038870332478,0.8103700906763494,0.7556762291040835,0.7016614855808201,0.659637136811686,0.6071017554768159,0.5523896805933721,0.5078888005354436,0.4585050754729725,0.4051060647021729,0.3640287274160183,0.3233011115219835,0.2841749055702958,0.2564560347069693,0.2354482420004933,0.22341174460408997,0.2105508655299846,0.20776051051819655,0.20759977931374474,0.19727433110851678,0.1798795948195293,0.17534991083762952,0.16448318794125516,0.15565225305124697,0.14379898769781763,0.14799698872883127,0.15919374051575197,0.1633805968257036,0.18111278603948078,0.2067791371467389,0.2283819263641771,0.2536874585946056,0.2713122388240774,0.272638940941909,0.2844417861878812,0.28828906116917796,0.28829600490585783,0.28829851211505986,0.290412734783152,0.30337581160275073,0.30440360288077795,0.30441494595343954,0.30880253416624104,0.320192238813501,0.32051168840391053,0.3205638158488595,0.3276147622102106,0.33651087440200333,0.33661953015293644,0.3366192592928199,0.3355518847333814,0.322563812365106,0.32051401750927777,0.3205116884039203,0.31985019668685943,0.30343789759616735,0.2782291910721444,0.27226369562845854,0.2788404078546183,0.2981406046412971,0.32439130063641475,0.3364534914701456,0.33661953015294976,0.33661767677315035,0.3337338126004812,0.32105784561683937,0.300797492476256,0.25623715036889694,0.20931043459093157,0.1616343931483839,0.11574743459772519,0.07242130209323694,0.049820892154407215,0.07264859119841427,0.12286059676705285,0.16680582719527592,0.21686475175631914,0.2717459871088548,0.3266389850692466,0.3815319830296411,0.4363550152205664,0.48283516469158716,0.5301580563615564,0.58499613312219,0.6398891310825827,0.694782129042975,0.7496726989514317,0.80248010882696,0.8443988711773209,0.897668269403602,0.9192666634802351,0.8794263753685394,0.8248450340985749,0.7705003666961705,0.7276026254797907,0.6762692387886915,0.6213906994094538,0.5708844864831883,0.5273278765948275,0.47385974484728166,0.4319917714994719,0.3865872958463048,0.34478824444587675,0.30387204922541944,0.2716883705176172,0.25093164102394194,0.2402156552851773,0.23530403283355117,0.22352334266630614,0.21083971399523804,0.20776068916208423,0.2068255864512536,0.19392360986175872,0.19165189698591867,0.19146199974341638,0.18088653686350442,0.17556724712054228,0.17565104257279396,0.18477491684892255,0.20308768021545376,0.22408433418031093,0.2498961732402183,0.26796986070309536,0.27672242399275904,0.28801616568292854,0.2882960049059129,0.2882960049059138,0.28829600490591467,0.288296004905916,0.2882960049059169,0.28854484290521576,0.29857597210531894,No
0.5190032480021136,0.5034683614881006,0.49442811858671964,0.4944010434791317,0.4944010434791344,0.49440104347913705,0.4943712768318438,0.484994849291291,0.4524470837358878,0.4449574359563693,0.4451395134203664,0.4644079044054603,0.5074935096536053,0.5207270342964856,0.5396489192441241,0.5201650315225566,0.4955779887858447,0.48193422265869357,0.4648630483288474,0.4407594527176415,0.4147021977791394,0.3686095854755429,0.3044252278544164,0.24380980521093631,0.1787679283223058,0.10998007291517808,0.061162869845657664,0.06335492705319012,0.127757280797006,0.18280038521728237,0.25688304800495754,0.332039256723784,0.40262423535613756,0.4585433663793044,0.5328070725185006,0.6066440924420071,0.6625484648055435,0.7335696606218178,0.8087155835236786,0.8747701577034919,0.8657364629576385,0.8052317609762367,0.742462725847715,0.6795976499989012,0.6055447196828325,0.5499529332256587,0.4800329011361697,0.4259875087547247,0.3758601203263221,0.3257409135053111,0.2807111353719014,0.2433066581798844,0.22118823863542492,0.20013797635777042,0.19566727724473232,0.17491394985722186,0.15615007752461585,0.1395745194412994,0.12094511731765412,0.09131734912568223,0.06453732609715779,0.03943579266483255,0.014384766462065102,0.0,8.00992785787713e-06,0.016074629333620916,0.05461720956675764,0.10250215416389574,0.14088385456228947,0.1958971903986697,0.2524313095036592,0.29044254353641286,0.32761263975727006,0.3457707779556456,0.34859972528275396,0.37848199866159016,0.395369141347536,0.3954756572734013,0.3960727888759239,0.41447232991683913,0.4202040082892968,0.4202069779268687,0.42020697792687134,0.4201751924704218,0.4110720538175925,0.3957656198761512,0.4008529853560652,0.4194564961918763,0.42611147702529184,0.4442651200672425,0.4449383331110175,0.44493833311102016,0.44493833311102327,0.4452247434248804,0.4607100144916423,0.46963992164786106,0.4696696882951601,0.4696667877189338,0.46406035503262766,0.45438170014768176,0.46346246728467877,0.44415867067605763,0.42289748921871295,0.41340369016426326,0.4062591212872704,0.43080891737215143,0.4488815800536887,0.48423816552040666,0.5182122395599178,0.5307773032384864,0.5262825773350297,0.5191515015089188,0.5191309483753326,0.515582490001258,0.49219922849093,0.4553928698992218,0.38634756072829735,0.3155569256290294,0.26747164207675,0.22981575244397456,0.17373032552605316,0.15135008879634837,0.18143158160813355,0.24814864024652827,0.3146462913839878,0.3739479829224033,0.4489147470818611,0.524078669700283,0.5987366821027358,0.6556085648319954,0.7248378929158408,0.7962070518318276,0.8514713210696625,0.9241295953244473,0.9430475618810243,0.8898482530794647,0.834977057259743,0.7715290409881126,0.7110123919520497,0.6360971608283927,0.5616291205196839,0.5047880045831672,0.4477009688357638,0.4094935384884155,0.3824674165320312,0.35087194697465307,0.34098219745283753,0.3221981190339207,0.3202231220136751,0.2991104419464041,0.27521999856337764,0.2657886520827013,0.2474433113094201,0.23032496115138112,0.1986874634665483,0.16820058994012355,0.14852954519148298,0.1520899635689128,0.17290982956100276,0.20534280845662112,0.24703034476065477,0.28472997730515237,0.3310182997002622,0.3809627464716834,0.42187289458090493,0.4457964401039627,0.46766859869058264,0.49119927390778306,0.5092950921043622,0.5190925379704447,0.5191323986635199,0.5190541805965019,0.5059667175214679,0.49450711134035963,0.49677769999836485,0.5172735134983433,0.5191288765352571,0.5130002365155826,0.4952303520769181,0.513000236515587,0.5191291527806214,0.5191319842955151,0.5170747564293956,0.496686616734515,0.4953716205291454,0.5187794368150636,0.5429617072429798,0.5450997114014111,0.5642517605045541,0.5685934860903581,0.5701031768650697,0.5857329310407362,0.5700576179678043,0.568613435554747,0.5755544335911367,0.5948208519312717,0.6230925553717794,0.6606577936524287,0.6898703780858808,0.6922512634004248,0.6922518849524764,0.6921554976030615,0.6775089510584706,0.6663145981169452,0.6388442966308547,0.5941851465235732,0.5234127394606309,0.46881682891581766,0.4042979569468388,0.3740449992810042,0.4067695777392135,0.4619987733430615,0.5323248028473255,0.6074746773495763,0.6771411532640705,0.7338240882745506,0.8080282736118782,0.8692162840411397,0.9338733208354881,1.0,0.9962052674498194,0.9399936211596529,0.8770493247700353,0.815108400264152,0.7524407130044253,0.6983628909262256,0.6472027032281584,0.591220802245223,0.5529676135789767,0.5219040011955141,0.5176718736377648,0.4967630533739289,0.47832679589737914,0.46196213339798176,0.44494437571720313,0.427709726258128,0.4026914143815139,0.37808338010388987,0.3607639869486512,0.32832842584897026,0.3111125257503047,0.2969947786493199,0.31058506649110784,0.3279048691956108,0.3621908022164053,0.4095002415360325,0.4596214511358694,0.509442475059656,0.5434495907516608,0.574251616558362,0.5933620982997017,0.6105001480428358,0.61804102640453,0.6120250357866999,0.5937876097401444,No
0.0,0.004265523680677674,0.02716593292269831,0.08301198163631751,0.12788129644860247,0.17246156842986338,0.22114165412246578,0.2694111489843807,0.30747490323985405,0.31321058858451867,0.35888092252672443,0.3883877478851936,0.38928721916746145,0.3895631057083828,0.4045250991076266,0.3750942237440338,0.3090020350032585,0.24209810245802021,0.17660508735729152,0.13747514140898742,0.08712560294642469,0.034352879312622875,0.015525129293008533,0.014125749684286593,0.07502512168596587,0.13242286247532897,0.16596560719461273,0.22997684573973665,0.2950279106577778,0.3317159384748125,0.38333260461855234,0.4148456386864199,0.4216920011854324,0.4488964710097316,0.4914168636199894,0.5149398949723016,0.547725330377943,0.5742354436628463,0.5943513449657871,0.5953880481987412,0.595388176682146,0.5946682707635738,0.5770673829977491,0.5864060110393376,0.6140504107978524,0.6530816736963323,0.6757221393155808,0.6869449138299277,0.6869758403149788,0.6803660366078859,0.6584388325770161,0.6418393994947866,0.656632633348309,0.6446863363350701,0.6411930647812123,0.6411883908907985,0.6411883908907994,0.6411883908908016,0.6411883908908029,0.6411939961221651,0.6451578052979374,0.6734341935351886,0.6869778530237114,0.6960878018593979,0.7265903687039166,0.7405084622675191,0.7554370669617096,0.7514653880571665,0.7332013278361806,0.7115172923869819,0.6878592756801267,0.667413838552211,0.6345065752950623,0.6109573309740619,0.6056012573568381,0.6182709687667307,0.6271778470521068,0.6568103303787618,0.6444541710246607,0.6483010828198963,0.6639563495305687,0.6779454901846784,0.676757552767814,0.6637686136664231,0.6355045317278138,0.572644033063606,0.5247360343888983,0.47478610396919185,0.43751860351063243,0.4376063702531283,0.47539920854332296,0.5274427667551813,0.5941187912820434,0.6545468439837894,0.7054638405768516,0.7719351129852123,0.8338482384075534,0.883484914398522,0.9496590692446385,1.0000000000000004,0.9700229471494031,0.9253213324140721,0.8752978222263246,0.8088161084169321,0.7544542737531037,0.7027810861022679,0.6758799923364456,0.6606367654111955,0.639266874049309,0.619718720008362,0.6097947583227099,0.5956096246453857,0.5936229747001356,0.5745642011177092,0.5724112904381955,0.5586416608539113,0.536535285871012,0.5267635378375894,0.5266878553692846,0.5266878553692864,0.5268555264442254,0.5393934892418328,0.5544269013742507,0.5831514351638445,0.5960997134952772,0.6132284811778872,0.6021722931893216,0.5691849943803078,0.5500367890377174,0.549586908909705,0.5450915261751201,0.5292500267763232,0.5467845258093624,0.5393528571455146,0.5173366779347988,0.5039770637179601,0.503787748264994,0.5035369166815404,0.48861661262844747,0.48090412922208436,0.4831189035953689,0.5023855622168063,0.499017681667838,0.48168394281767934,0.4810878880135654,0.49461060129683876,0.5037578020999853,0.5039223874459249,0.5128758517136922,0.5054712339602121,0.5044679651418198,0.5216470618709552,0.529205722931088,0.5506525866696377,0.5709958619016993,0.5724395396401825,0.5598738267073422,0.52735426791484,0.5049495824969124,0.5091677119348406,0.5309892232642941,0.5534304790938238,0.5865560751018206,0.6275729415712559,0.6346908561551405,0.6185749989407165,0.6182883030591233,0.6174641391269025,0.5989758258724418,0.5829246218957982,0.5387639430569693,0.47344108168704,0.4232998872740992,0.3710077705816617,0.3288654988212265,0.3244436439301901,0.3565717472204488,0.4185268310375925,0.4768702255646069,0.5296007077413019,0.5944162410711091,0.6424185022846602,0.7072847974447978,0.7740047164206785,0.8278824474361457,0.8851227494092773,0.9458067007338662,0.9370915079505502,0.8908866595077929,0.8258258345273508,0.7590337293048708,0.7062080493443865,0.6622787941383956,0.6282783295618426,0.5986377686850823,0.576872850587292,0.5719139956668946,0.5549596703078641,0.5495972930688215,0.5495660342862703,0.5416067708999943,0.5266924122129817,0.5114768202740203,0.48925243330506607,0.48000361350115783,0.4610162760038623,0.4653477381055988,0.48058469020672945,0.48108236770822854,0.49444908112139974,0.509128364508856,0.5261069344389981,0.5267960044047442,0.5375928570620028,0.5594575526936816,0.5575110989785506,0.5499347214277881,0.5663862364813608,0.5724776104157558,0.5679003332415977,0.5506727894091519,0.5636519239165936,0.5689645523638811,0.5477962778512042,0.5281824452026624,0.5266880802153651,0.5266878553694108,0.5267473045541973,0.5358393729634354,0.5342801362700031,0.5087067785219066,0.5250301909440327,0.5337961859418612,0.5492504901186233,0.5510823531577156,0.5693571251664444,0.5724948179842433,0.5771153783700513,0.5947030170108469,0.595388176682377,0.5953879968056133,0.594169271672103,0.5748980312252461,0.5804130538296408,0.5815682613853763,0.5414747903379884,0.5227601702715265,0.5050728049758408,0.5169843148088944,0.5391448273136006,0.5623253791996996,0.6017162944142749,0.6026990541966692,0.5984169186298218,0.617373672127921,No
0.02201979463464543,0.03550389910663343,0.05509552504831783,0.08750873552460403,0.12196727927767226,0.1663509748192329,0.2119628412364758,0.26131007872238143,0.31213993597808054,0.3566877320075519,0.41164184752288735,0.45620285550477746,0.5069522961737887,0.5624589737838601,0.6139024611712807,0.6579627799923964,0.7130618242132569,0.7685176963611937,0.81600908089285,0.8636625940127995,0.911342944900305,0.953108890879883,0.9729232027232952,0.9511591698796318,0.9019138318670881,0.8594177622449357,0.8052998679258097,0.7497755073606425,0.6983273161762198,0.6543237987859838,0.5991751774262628,0.5436494332411872,0.49172996577615846,0.4480609910279205,0.3930498807622125,0.3375186101997909,0.2828932337042436,0.2398921180535578,0.18693954450340478,0.13712387503892565,0.10531445225114533,0.059725537984831156,0.06626102710933024,0.07965408837451227,0.0802352302700986,0.09120557704014276,0.09546783121444147,0.08348859785015694,0.07166009155702957,0.033436178573723385,0.025124151845709708,0.04461786103392962,0.06656176459153063,0.07934672688205646,0.0739178774186815,0.07870683396819622,0.06675849523246358,0.06560924617031905,0.07820468175310102,0.06867391033602743,0.06401524127772174,0.06400237521992969,0.06372580733060751,0.057463194828669906,0.05800636522386471,0.06266773522475555,0.05180386741935683,0.05640540058047394,0.060555924448792986,0.049661306041096864,0.061892911918640436,0.06399975660935064,0.06400237521991103,0.06395077380009795,0.05726778321885995,0.05126837861590072,0.06342421298646883,0.06400222367877628,0.06400210581345389,0.0626203730740893,0.043815097852956786,0.028281417008100274,0.010710225213064195,0.00018002976128883574,1.7763568394002505e-15,0.0,1.677308458614135e-05,0.00553277132115193,0.0157428978394738,0.01638344506249645,0.027912073805628435,0.033636906112826104,0.05468087355130713,0.08383796311304126,0.13225382372209094,0.17860224101409594,0.22743801435719435,0.27863957696719854,0.322862388191099,0.3779711711020224,0.4274152330130554,0.4732522791582934,0.528584322404229,0.5839357652601986,0.6293886492302221,0.6792118651490235,0.7346602101114641,0.7826994371227038,0.8298503286487295,0.8844393030284912,0.9270254360308221,0.9650482333174288,0.9752892710803418,0.9494322158476827,0.9054702282188272,0.8551692075633914,0.7996532056884584,0.7441217330712031,0.6885902604539487,0.633058787836692,0.5775878580001526,0.5293068485633672,0.48236330651129444,0.4269334911726421,0.3714020185553859,0.3158712209101817,0.26190164338363475,0.21939401004596037,0.16527611572683343,0.1098239441830513,0.06508156287676048,0.0657680278228514,0.07959504432483921,0.08002229628024304,0.08610970698646403,0.09573911999731077,0.08838079621127592,0.07475614880504367,0.05358659926240428,0.026842880653023204,0.04191116454200161,0.06320472211699668,0.07944743420088418,0.08000283432159305,0.08000296902481363,0.08000296902481141,0.08000296902480919,0.07996477964635318,0.07402496676034653,0.06416934290066978,0.06400237521983021,0.06400229103031396,0.0635407461747346,0.05198263309351692,0.05612505930688272,0.06393289107820044,0.06400237521981911,0.06400612488174318,0.06733281668115731,0.07945394008843554,0.07995570358220094,0.07355291302431066,0.06414321873975082,0.06402435767345827,0.07068007248365049,0.07764271173010462,0.06376697367017892,0.0478758532984509,0.02945466897238136,0.016515885858394697,0.012618887088474473,0.0006058909830461978,0.005532771321059116,0.015742897839380543,0.016383445062403634,0.027911400289421184,0.03203102859861984,0.03925585885242677,0.04816537037274449,0.06251604447733561,0.0899361063271944,0.12045406891633359,0.16196328878097077,0.21051094120554348,0.2659863417225363,0.32092869644123834,0.3644303998684788,0.41658550547380724,0.4719316086252987,0.5173844925953239,0.5672077085141254,0.6227053277301553,0.6773040394170478,0.7200960344595977,0.7733026825461402,0.8285854189339075,0.8729234789661398,0.9236721977396312,0.9674844954365796,1.0,0.9985383240183796,0.9696703410889649,0.9212365473131539,0.8784166988513942,0.8250650379253046,0.7695393918557767,0.7171486481101419,0.6738142160038989,0.6189406168322038,0.5634091442149489,0.5078783465697443,0.4539087690431982,0.4114011357055225,0.3572832413863951,0.3017523749336437,0.24622090231638882,0.19068942969913172,0.1351580581092935,0.08039979195598157,0.06296190221267084,0.09158167135840811,0.09599800423249061,0.09600356282970379,0.09598325617305736,0.09096948282032935,0.07940939584651474,0.06158584250321342,0.03702890204137388,0.04455167102845792,0.06155788136007878,0.06399859042607803,0.06400237521974539,0.06400237521974361,0.06400237521974139,0.06400227419232163,0.06351161287755902,0.05171581103390599,0.049147298035825404,0.06180286119483913,0.05410628949353313,0.04802115918387706,0.04801725215707631,0.05310640663852162,0.054409825154341895,0.052982568549082565,0.06382725617999974,0.07355291302421829,0.07995570358210591,0.07945394008833606,0.06733281668105473,0.06402680499302393,0.0703960965015824,0.0798326729504426,0.07997405776518374,0.07563618277083028,No
0.4454950170717029,0.4304513288920786,0.42894150338069137,0.41149820684939,0.4093415296850398,0.40326076652228604,0.375246734040414,0.34640010254614895,0.2860605102599818,0.2233984930087911,0.16073593434039957,0.09807798593599015,0.03906027472723572,0.013946290773129366,0.0,0.04459588551661753,0.10315386748667477,0.13543296034341168,0.19098346274476175,0.25362971442098026,0.31616277556035577,0.3641736867160037,0.38479776794584497,0.38856857514941723,0.3887114878290987,0.4006269181126907,0.4277060520727498,0.4487843707861545,0.4796267658242921,0.49241822518002554,0.49246451215452014,0.4924645121545259,0.4924645121545317,0.49246451215453835,0.49241925787677454,0.48298193481033413,0.4773395276551726,0.49199670922508343,0.49246488943170963,0.4939874253706198,0.5106730997926712,0.5132425118675479,0.5132433840147188,0.5132433840147246,0.5132433840147312,0.513243384014737,0.5132433840147428,0.5132433840147494,0.5132433840147552,0.5132433840147619,0.5131783011321729,0.5010026394264835,0.47049653770904243,0.45155157015639835,0.45288303088265414,0.47214143792836794,0.49825866262050944,0.5204365348015019,0.5359598568070489,0.5534980208404878,0.5548010003427906,0.553814579784889,0.5363857433141437,0.5276710939638054,0.48093449635592433,0.4333910559457337,0.372381766052408,0.34738983426881687,0.3586964076714443,0.41261527805143094,0.4581829838320801,0.5199219066913683,0.5795551220926765,0.6253476394647257,0.6871340214639305,0.7497964649892981,0.8117435843120955,0.8585824050670063,0.8935594823295085,0.851875369938325,0.8102097154189627,0.7828761680326535,0.7541227054836588,0.6979827301426957,0.6430502917785788,0.5956708306873892,0.5525113403832878,0.5107551769649215,0.47496138511093866,0.4496611854792878,0.43157571828176433,0.43013849137499127,0.4349384614125045,0.45032491518132334,0.4509067684345096,0.45090676843451627,0.45090676843452204,0.4509067684345278,0.45090676843453403,0.4509053671194345,0.44743468086185123,0.42771972483814835,0.41614812381165045,0.4354822455984868,0.45204783264538184,0.47078995402137114,0.4916644687843785,0.5108890698569621,0.5132426392600902,0.5132433840149777,0.5132433840149844,0.5124591834133057,0.4960532409403795,0.494302263814582,0.5113567086143607,0.5132434207627847,0.515166203890447,0.5323356611051575,0.5340219030965296,0.5340422018494402,0.5413218960342534,0.5546313272645351,0.5538550492548211,0.5366539881738679,0.5416791426443077,0.553699964954868,0.5362857051210153,0.5201437595334433,0.489321157954429,0.4720397025868057,0.48000176122617777,0.5012373378291066,0.5294930482308939,0.5527185478683361,0.5775382156784046,0.5954569414875381,0.596358871455632,0.5963439797290051,0.5897620503905716,0.5670749597351374,0.5199614259727161,0.4713026462584593,0.4231088828172913,0.3834269268206292,0.3719179214412991,0.4027247813192387,0.46125721557255117,0.5239104640405707,0.5824589544680845,0.6291601692007447,0.691126824292255,0.7537893829606461,0.8164426526737798,0.8745483982140305,0.9214200710847762,0.9547903422596562,0.9182055121855943,0.8727517471925119,0.8503039399676235,0.8177390370778288,0.771823108746641,0.7234132303620444,0.6754144289828079,0.6297814449660049,0.583870068191009,0.5362178308713585,0.5043677628413943,0.4825712573118208,0.4718182797305963,0.47168399399466177,0.46779815858777907,0.4517765668542304,0.4402810452249284,0.4301768714825216,0.4192640103275873,0.4094651023926632,0.4159597243830375,0.4298440457802366,0.4292958684179289,0.41264836525072024,0.4093723679588184,0.416687831806831,0.4446729666715816,0.4675009046370904,0.4909838073603985,0.4924642867687914,0.4924645121551423,0.49150003846115986,0.4741849209065627,0.47200915469665006,0.4871038971824606,0.49246202310596,0.49246451215517606,0.4924645121551823,0.49233521300219163,0.47968875380280585,0.4875639737764996,0.49102582555635443,0.4742709126156681,0.4861740239519512,0.47365914176060775,0.4716861645633319,0.4716851993218132,0.4698313049279368,0.4458947746330062,0.4234232935004485,0.4097026313343157,0.4200319621833044,0.45062023383067595,0.48190796999104935,0.5101174347690174,0.5350965917356709,0.5710172580563486,0.5755783728943404,0.5751563451787236,0.5605663691635439,0.5520766434674327,0.5242835308518043,0.48222555754342444,0.425062850773513,0.3624519680592968,0.30918931164295493,0.2861736570519797,0.2979301818642117,0.34174631334982974,0.39858998764314535,0.4462740791127926,0.5084357234674064,0.570894123111553,0.6177030093544871,0.6502247377645829,0.6971769063064124,0.7594119012289804,0.822074459897371,0.8847370185657621,0.9471626228812289,0.9947428082183838,1.0,0.9624692172480378,0.9164511357192167,0.8546506746070359,0.803175326864122,0.7500239351644287,0.6988675727048066,0.6474298296058372,0.6183222024415267,0.5827494584968211,0.5377732042389067,0.4901141455502964,0.4492429926730068,0.4256254291609314,0.4097854333806614,0.4083661803058538,0.39095831403227077,0.38857095085172455,No
0.16381151887992296,0.1638115188799194,0.16380940988468407,0.16144906778898926,0.14569216892013337,0.12904579900070123,0.10923362595731456,0.0846675571541109,0.07286350338951841,0.0671252876866193,0.04239673640509478,0.0363561010844089,0.03700444349111365,0.050727916337272916,0.059521783348861934,0.07464553342756997,0.08957134810025646,0.09205174075625777,0.10689815310785811,0.1097551556477585,0.12782316042629738,0.17200344022003744,0.21231973377096347,0.2590370332081897,0.3045798425736561,0.3554315741541991,0.40225308308982255,0.46072454414018305,0.5062091717719746,0.5625610830443417,0.6221804218216014,0.6780895483861826,0.7238642350212707,0.7828521898769858,0.8394145866827261,0.8796381799505335,0.8890691264598227,0.8555799653946687,0.8052683320578744,0.7461371619569723,0.699702426886684,0.6446943103432257,0.5906573549339429,0.543397558219016,0.48400864121959764,0.42438228146186097,0.3647559217041243,0.3051297589207991,0.24659961723105095,0.20124548011852195,0.1445162154487054,0.10302885056702715,0.13000128769294017,0.15967623324558922,0.165061327928556,0.18004201697085742,0.18211177615658425,0.1913623685992656,0.18679433850070692,0.18455546565735625,0.19361897584904542,0.17305355693021118,0.13315279067272767,0.135758872236456,0.16905918002748432,0.1832322257534389,0.1973082989899444,0.1850801292023725,0.18202316993610035,0.1820207664704827,0.18202073784894024,0.18169822438031735,0.16945034799192582,0.16991837099660545,0.18148520733731122,0.17049539268680958,0.16382244660689782,0.16379478317476392,0.15876500836269258,0.14597241351720003,0.14560363521060138,0.14829606486964098,0.1626383791019399,0.1637621782424712,0.15545101687381946,0.14541632916406932,0.1279796904090631,0.10676886168480548,0.08297750796165193,0.06740677866289779,0.04054320506640474,0.019210065479567717,0.00860507684295797,0.0,0.0047612248211512664,0.024079910353996592,0.036798759815229065,0.05100788661876843,0.059830402396069626,0.07247863948845001,0.08132461940559965,0.09101172106886724,0.10297500434128626,0.1250500554626699,0.15762961455147417,0.19850441438318311,0.2550662849521559,0.30167896320104104,0.3523223431793001,0.39841836239988515,0.4575835752449917,0.5136390482515383,0.5593436432995333,0.6182572800656168,0.677883431522154,0.7365426413651774,0.7814592631653592,0.8385556859475063,0.8980840417706561,0.9479482517490889,0.9918833180277162,1.0,0.9674960352107633,0.910781295203599,0.8660169394526047,0.8074903909173332,0.7479034515538667,0.6954261632196985,0.6466936112450479,0.5871944220890417,0.5279748099353472,0.48147509170743286,0.42651759863615313,0.367229153220173,0.3199693502679155,0.2658458814635041,0.2065979797846098,0.17708696885716213,0.19777763310744323,0.20023129013548369,0.20365788925414652,0.21760463195940716,0.21044408094768352,0.19080563868244838,0.1820830315743529,0.17964667300657355,0.15548757986290118,0.13391726208369636,0.15531009158802345,0.17962453603992312,0.18874924598656806,0.18929531615206496,0.18205366653888433,0.1820207664703144,0.18202545693291539,0.18585180542187096,0.19266860219572246,0.18215409244728997,0.18174877440190773,0.17014369963137588,0.16324446783321278,0.15643273506956845,0.16359455938676248,0.1638117955544729,0.1656978226863708,0.18042564064768474,0.1820198162755391,0.18202076647026955,0.1818582787779235,0.1713871702525953,0.1518164745976307,0.13786822985871128,0.11703619538763865,0.09341444198331139,0.07614555336764317,0.052387281819795906,0.03577747571405521,0.024479520456298864,0.036035585986523344,0.0491553272969778,0.07151348228889143,0.09123479639444954,0.10696304709709237,0.11645182318895708,0.12730299575410875,0.13794508224951807,0.1456015110835005,0.154165544825565,0.18243565724535094,0.21623478164048215,0.2579345560047721,0.3023758134461567,0.3475427087528393,0.39877543065670684,0.44577514078310054,0.5000952957359632,0.5597019841452542,0.6193283439029904,0.6789547036607262,0.7385810634184646,0.7981902144570654,0.8509154523903457,0.8994805713409786,0.9577232913002285,0.9944181157808276,0.9967550266960266,0.9645507710340349,0.907462246439426,0.848779533615172,0.8035629163225106,0.7629028338657577,0.7231175710828044,0.6641549656765213,0.6151545410423211,0.5628856100757393,0.5032998854392936,0.4481504405080159,0.4017427073984492,0.3426191829782965,0.2831552966021311,0.23371964896881225,0.18196155193271446,0.13929418310542774,0.16059621255391932,0.1807945831285691,0.186696209610127,0.19969445492771287,0.19032011670822824,0.1761910537155802,0.16398253080854497,0.1627750706062958,0.14322390954727826,0.10944680264635487,0.10431909183119359,0.13350975147451916,0.1594885179805119,0.16152900994278285,0.15288234962627056,0.1588572505345942,0.14606079873574096,0.14508129176198103,0.13133380582523824,0.1258027962469117,0.11107007991416973,0.10918406232277711,0.10918374430567512,0.10884460026159459,0.09760172375227594,0.10717537493389973,0.10990619605329499,0.12383646324093833,0.12739010354246982,0.12739302369804717,0.12736082203829646,0.12200078558965011,No
