0,1,2,3,4,5,6,7,8,9,10,11,12,13,14,15,16,17,18,19,20,21,22,23,24,25,26,27,28,29,30,31,32,33,34,35,36,37,38,39,40,41,42,43,44,45,46,47,48,49,50,51,52,53,54,55,56,57,58,59,60,61,62,63,64,65,66,67,68,69,70,71,72,73,74,75,76,77,78,79,80,81,82,83,84,85,86,87,88,89,90,91,92,93,94,95,96,97,98,99,100,101,102,103,104,105,106,107,108,109,110,111,112,113,114,115,116,117,118,119,120,121,122,123,124,125,126,127,128,129,130,131,132,133,134,135,136,137,138,139,140,141,142,143,144,145,146,147,148,149,150,151,152,153,154,155,156,157,158,159,160,161,162,163,164,165,166,167,168,169,170,171,172,173,174,175,176,177,178,179,180,181,182,183,184,185,186,187,188,189,190,191,192,193,194,195,196,197,198,199,200,201,202,203,204,205,206,207,208,209,210,211,212,213,214,215,216,217,218,219,220,221,222,223,224,225,226,227,228,229,230,231,232,233,234,235,236,237,238,239,240,241,242,243,244,245,246,247,248,249,250,251,252,253,254,Target
0.3216757521014322,0.3216757521014353,0.32167575210143884,0.32167575210144195,0.32167575210144506,0.32167575210144816,0.3216757521014517,0.3216757521014557,0.32167575210145927,0.3216757521014624,0.32168285830643084,0.3277817345754279,0.3428911472497935,0.343248731430116,0.34324873143011914,0.3432487314301227,0.34324873143012624,0.34324873143012935,0.3432487314301329,0.343248731430136,0.3432487314301391,0.34324873143014223,0.3432487314301458,0.3432487314301498,0.34324873143015244,0.34324837777341477,0.33954028385819246,0.31055579899494656,0.2722420104952765,0.2428779480209724,0.2355982059834263,0.25563220817581156,0.2954173482825029,0.3316882175337357,0.3432216328230968,0.34324873143017776,0.3432487314301813,0.3432485349542169,0.3412770978159201,0.3233864694467363,0.32167662900253324,0.3216754770352006,0.31847361744280844,0.278196586809917,0.23583377562162422,0.1816806096243977,0.13760227515988976,0.07825862074924217,0.033199730013994344,0.0,0.007113654100532774,0.046657197581856824,0.09948929444357546,0.15987840713675672,0.22025571584581227,0.2733732981376802,0.31974503103773344,0.3799227962888998,0.4403271384090952,0.5007314805292915,0.5611358226494869,0.6215346158907136,0.6770463351814273,0.7212644611730425,0.7811802118016309,0.8415845539218267,0.9019888960420221,0.9622703404793862,1.0,0.9693041642725992,0.910617210872501,0.8502137456532868,0.7898094035330918,0.7296316382819241,0.6832599053818731,0.6301426767467482,0.5734520228695157,0.5298948405181547,0.47250087431688037,0.43008283818539406,0.3846997867163173,0.35398797722606856,0.32632001633255703,0.30621430412587136,0.30010987897790997,0.3001027727729477,0.3001024977065967,0.2972734517215385,0.27990465589051405,0.2785298425633109,0.27791019464142286,0.2601583085006638,0.23745648052108637,0.21321033833232184,0.18810692884344382,0.1703863740413638,0.1412429580074379,0.11059416548016365,0.09025793397046744,0.07011753935541032,0.05828233764335655,0.042072098147719394,0.05358931580441606,0.07400667342834621,0.10422488911007965,0.1438507208480857,0.17493182637507187,0.20528134887684457,0.2429034700975241,0.2764672386671987,0.3064794813449616,0.33558589938295524,0.3554920711565619,0.36480054674188667,0.3648217107589362,0.36482171075893977,0.3648217107589429,0.36482171075894687,0.3648217107589504,0.36482171075895353,0.364828816963922,0.3709276932329195,0.38567952172696485,0.37093012745990306,0.3673113671413679,0.38528074391049305,0.3863945722020339,0.38639469008761784,0.38616811321859235,0.37213550399845197,0.36484874417012625,0.3648005467419422,0.35550730058363866,0.34339065610055997,0.3432487314303563,0.34324873143035983,0.3432484563640088,0.3404194103789502,0.3230504966623453,0.3204662854858653,0.28915151894034485,0.24917531483748467,0.21598732525238873,0.1936207216820347,0.1947484250336351,0.2217285260710371,0.2608433042038554,0.26885760261282243,0.2571011730130084,0.25943936429326264,0.2773887486602735,0.26747891717111383,0.2570604416996862,0.25695681411583804,0.25695681411584115,0.2569564604591026,0.2527809390693192,0.21654570357951197,0.16859225106724418,0.12236580308435085,0.07381665507832391,0.041303716358656484,0.025702880565252162,0.05565669633482129,0.10363145664128304,0.14960696901098647,0.18100145342355667,0.229015765048441,0.28925083472574187,0.33982079649966224,0.3693769066705399,0.41339086767338706,0.4662299430306933,0.5266190557238737,0.58702339784407,0.6474277399642645,0.7078320820844608,0.7682363750856651,0.8278604067581994,0.8532985945187894,0.8033448305022746,0.7602317424623459,0.7063428157171825,0.6633113788665677,0.6053956390699238,0.5629682219947427,0.5087309257231842,0.46802025653490764,0.43382247115386763,0.4095899234087721,0.3951814397171374,0.38646002058521844,0.3863946900877253,0.38639469008772886,0.3863913298407806,0.3818496405052798,0.361837854918754,0.34393020391634055,0.3277725085053844,0.3158377843093345,0.29589827598962426,0.26769362568477195,0.24002790254227113,0.2179506353117051,0.1928417535030187,0.17314832387976153,0.17017873953671625,0.15399013830015296,0.14980064847129704,0.1664883755258555,0.1881106256826972,0.2180778341515568,0.24739224242110858,0.271213591951577,0.30861012274188404,0.33902932079139836,0.3703216272280474,0.4048841952925706,0.418489615290933,0.42951355013799164,0.42954064874507303,0.4290520572534682,0.41286584112489066,0.4079732182954112,0.4079643091694929,0.40342297349073375,0.3870978427360301,0.3863947392068039,0.386394690087815,0.386394690087819,0.38639433643108045,0.38270768159926094,0.3658607183063971,0.36482166164019736,0.36370776458207477,0.34573128160799005,0.3432511656575348,0.34324873143056056,0.34324861354498326,0.3421347852534491,0.3241583022793635,0.3216781863289091,0.32167575210193444,0.32167575210193755,0.3216757521019411,0.32167575210194466,0.32167575210194865,0.32167575210195176,0.3216757521019544,0.3216723918550062,0.317103603912428,0.2860469945281534,0.24842730753445474,0.218087197755247,0.19398274291521123,MI
0.195747903342542,0.18288347498968438,0.17352381700548314,0.1735121639068491,0.17351216390684732,0.17351216390684598,0.1735121639068442,0.17241180499513398,0.1546909530051508,0.14948934075982345,0.13066520407914917,0.11680982282531005,0.08860910154856327,0.06805539939389504,0.03832644614645986,0.015314845356279694,0.0,0.01623499349213109,0.03320030796365492,0.06278104140623642,0.09263257740164477,0.11403321288238821,0.15237243272959367,0.1828643187793486,0.21294800423051585,0.23871549294360772,0.2589345426847842,0.2864725421833585,0.3217725235555693,0.3515339976032017,0.3831880024780898,0.41756728619581907,0.4194486835553328,0.41939587360811004,0.41105963277094615,0.39724646770240746,0.39631945749180897,0.3791845473702864,0.3747372902524093,0.37466672610740215,0.3654468227979213,0.35249489516009813,0.3622464927627531,0.39680373423506365,0.4364051431140177,0.47646740477727256,0.5248831066169641,0.5693158529588533,0.6103043831300647,0.6407612190962508,0.6685798215192937,0.7087319868717401,0.7333646885725038,0.7712369391177001,0.8009164842638636,0.8397949802350935,0.8850245687889808,0.909340353116165,0.8791659560783209,0.8370738901614763,0.7775719960618259,0.7176000205637445,0.6576523399734251,0.6045782982834318,0.559780342194192,0.500070091893067,0.4400981163949842,0.38012614089690233,0.320155050171123,0.26175620999491267,0.2203509794008771,0.1685087897801818,0.17636843148102432,0.1951875130769194,0.19587013722844748,0.1958701372284457,0.19587013722844349,0.19587013722844304,0.19587013722844127,0.1962628291806099,0.21293787407783293,0.2192272689382624,0.2375954728336387,0.24315855675962306,0.26149756126372914,0.26294347453846134,0.2657193657653174,0.28093779449842193,0.26394606411678145,0.26191656923282736,0.2443258546142384,0.2389913643613566,0.21471957114370355,0.1853813046420929,0.17187065894750164,0.15312983109930345,0.15948260337461484,0.18856538300794723,0.21467413305878802,0.21822588782940455,0.218281479545551,0.23029001162202567,0.24050403521286245,0.24025086994706824,0.22490883164376374,0.21823562032473642,0.21822811055006097,0.2182281105500592,0.22105604864628736,0.23919648108017189,0.23321839950533807,0.2184541175410435,0.21822811055005253,0.21822811055005076,0.21822811055004898,0.21822811055004765,0.21822811055004543,0.21703666294939916,0.19915445561372103,0.19656830064214592,0.2147924107182284,0.21822593098899778,0.21822778685285416,0.2168909210470935,0.19874878424562237,0.19587013722837865,0.19587013722837687,0.19587013722837554,0.19584089199908883,0.1887253641156672,0.17367563144900933,0.16329235391525465,0.1436404617656164,0.11526996250358623,0.09577401912438299,0.07623940337217361,0.046674003329552516,0.020452722517152466,0.01702400144465166,0.028405703581959152,0.04764015262448762,0.0669626841288018,0.09576165790551272,0.1323832289450677,0.16601311034619481,0.17738227425349518,0.20440632477607457,0.23454889257045286,0.26425622756559086,0.2968419404548506,0.3353030539649202,0.36522326361331636,0.3746683762144629,0.37473392380157655,0.3747305357710471,0.36922114293246144,0.35270668713525355,0.3445635441766499,0.3302058705841229,0.3262113699983602,0.30817175647533457,0.3076702758272525,0.31634821022892545,0.3501471359733155,0.38986062326374293,0.4296394222485702,0.469489449331864,0.5217810715885007,0.564772543020565,0.6185488411981446,0.6596185790341291,0.6993979606738865,0.7392956120318015,0.7925713003158501,0.8422687910217679,0.890259417984379,0.9496350026074039,0.9883211056685894,1.0,0.9737015529389268,0.9143501857941709,0.8543782102960886,0.7944062347980063,0.734434259299924,0.6744622838018417,0.6144903083037594,0.554628433286493,0.5067482641329213,0.45691949356304606,0.39696037963308317,0.3369884041350004,0.2770170544514734,0.21851229587907106,0.1858559435185052,0.19452621044773188,0.19586977037151598,0.19587013722832358,0.19587013722832225,0.19636403076406417,0.21419895899321872,0.21822558571193484,0.21874581622302536,0.23685365817733928,0.24058899714627957,0.24580940205454205,0.26275279856090394,0.2798634311114294,0.28501812493273126,0.26996110203561186,0.2629520848834357,0.26259062553082835,0.24715469704909898,0.24059342100778514,0.24013053602873624,0.21707856750449572,0.18282937328152382,0.1628403338300668,0.13454066862453873,0.1396098660424001,0.1688688170607482,0.19856208201827785,0.21752722550100678,0.2182281105499464,0.21822811054994462,0.2182281105499433,0.21822811054994062,0.21822811054994018,0.2182281105499384,0.21822811054993707,0.21822811054993485,0.21822811054993307,0.21822811054993174,0.2182281105499304,0.21822811054992863,0.21822811054992686,0.21819721521346436,0.21100915597159808,0.19610805028791534,0.1958701372282663,0.19587013722826496,0.19478799605434238,0.17710073581800856,0.17351259550285336,0.1735121639066053,0.17351216390660396,0.1735060201777534,0.1674059313125449,0.15148139915951075,0.1511541905849456,0.15104574021130146,0.13906281634953244,0.1264120921567442,0.10773128144721111,0.09301826730940066,0.06597605122925065,MI
0.21493558184628636,0.23649656214891301,0.23770297220772285,0.23567222709235303,0.21369988985371347,0.21129207481545187,0.2112920307102515,0.2112920307102515,0.2112920307102515,0.2112920307102506,0.21262733803355172,0.23393154854409204,0.2377033581282264,0.2406473388135657,0.2609770091649848,0.24028986564537913,0.23770366686462996,0.23770353454902793,0.23770353454902793,0.23770353454902793,0.23770353454902704,0.23770353454902615,0.23770353454902704,0.2384131315124014,0.2585001003413394,0.24107299167261598,0.21405864207271108,0.21129225123625073,0.21129203071024794,0.21129203071024794,0.21129203071024705,0.21129203071024705,0.21100724738895416,0.1946982699616333,0.1848826439210951,0.18484568770322252,0.17632167485881567,0.1585960322795108,0.14937423493195912,0.10919641931446034,0.09853782803606403,0.07639437614462352,0.05455982570837925,0.042475049868140324,0.026526128400768734,0.026763627633980214,0.04673664501756036,0.03222609734858395,0.026413753204021617,0.030428190712493475,0.05130412874796075,0.034730099855353025,0.027480525625477092,0.04861585203556906,0.05282248944146506,0.052823007677570644,0.05282521293759945,0.06314041500287271,0.07900595934548349,0.08830275825381495,0.10548643031400129,0.1262850692238464,0.15806795658177375,0.1911154730371516,0.24798565998072064,0.3126790252539795,0.3663586649044044,0.41589519301051237,0.47066447772590614,0.5190895783348104,0.5819354277714002,0.6251982636150561,0.6865426483616002,0.738264042701088,0.7896855942926013,0.8425686205769756,0.887690521799235,0.8979222081801925,0.8885514757001802,0.843908602584583,0.7921886637167113,0.7308619797249447,0.694440696096029,0.6693635017228354,0.6134214279886141,0.56966420302874,0.5094822718300867,0.44614584459759854,0.40348230048908995,0.34169204877000325,0.2769801116642565,0.22051049837266667,0.21129379491826494,0.2112920307102426,0.21209106212346374,0.2330624883207708,0.24277203540959746,0.2583824757402482,0.23826123892265016,0.22410754971151015,0.21013281624214297,0.18496844423986847,0.15998533835790507,0.1655386128296108,0.18429879962637852,0.19070095608055304,0.2105732760577359,0.21129201968394007,0.21129203071023994,0.21129203071023994,0.21129203071023994,0.21129203071023994,0.21129203071023994,0.21129203071023905,0.21129203071023905,0.21129203071023905,0.21129203071023905,0.21129203071023817,0.21129203071023817,0.21129203071023817,0.21129203071023817,0.21129203071023817,0.21129203071023728,0.21129203071023728,0.21129203071023728,0.21129203071023728,0.21129203071023728,0.21129203071023728,0.21129203071023728,0.21129203071023728,0.21129203071023728,0.2112920307102364,0.2112920307102364,0.2112920307102364,0.2112920307102364,0.2112920307102355,0.2112920307102355,0.2112920307102355,0.2112920307102355,0.2112920307102355,0.2112920307102346,0.2112920307102346,0.2112920307102346,0.21129203071023372,0.21129203071023372,0.21129203071023372,0.21129203071023372,0.21129203071023372,0.21129203071023372,0.21129151247412636,0.20705926427646837,0.17840424004687971,0.1582125901082767,0.13930491321954364,0.10935254888104762,0.08786752016963639,0.05711237359893051,0.037193476416283566,0.017714952609155787,0.00015038030639491495,8.881784197001252e-16,0.0,1.7642080232249668e-06,0.007819086149630117,0.025909734851881083,0.026449508948426903,0.03872756810461908,0.05275784670086647,0.05282300767755732,0.053070439290232585,0.07328667732607563,0.07922340245904813,0.07931338033389235,0.09354923272271432,0.10564473009451802,0.11888238813400509,0.1509940073197651,0.18297290965669788,0.22766793069811975,0.27145132293854424,0.31916456299950724,0.37375033504907496,0.4234703206895096,0.47690777168824994,0.5414050544314426,0.5876022774182204,0.6446734045859657,0.70381132366062,0.7484503728102956,0.8121860554622495,0.856563924827829,0.9152780161785481,0.9602611773256848,1.0,0.991673312189123,0.9589357221650907,0.9157809901215526,0.8512790198075386,0.7865468224521202,0.726743302105537,0.6828680167611223,0.6187798222931873,0.5615635896580367,0.5155063152534574,0.4509634812315353,0.38654130972480694,0.33833891802527205,0.2831765578217187,0.22464286042788828,0.2112994321441457,0.21352113121699734,0.235382114000954,0.23779224439933433,0.2525179199905203,0.26406306080606967,0.26411503838778483,0.26385730109059224,0.24688928506602537,0.21419542781228174,0.18996552984862447,0.20940591211484083,0.21129168889492256,0.2112920307102275,0.21129203071022662,0.21129203071022662,0.21129203071022662,0.21129203071022662,0.21129203071022662,0.21129203071022573,0.21129203071022573,0.21129203071022573,0.21129203071022573,0.21129203071022484,0.21129203071022484,0.2113606836008035,0.2251070876814687,0.23736150028800385,0.22110977380038932,0.21129414775985111,0.21129203071022395,0.21129203071022395,0.21129203071022395,0.21129397133904781,0.22011044533012303,0.23731025839490716,0.23770353454900128,0.23770353454900128,0.23773643169516046,0.24973097251053655,0.25494976184999363,0.23784369892841895,0.23770353454900128,0.23770353454900128,0.2377035345490004,0.2377035345490004,MI
0.0,0.026985023481335357,0.06648616201016155,0.10396623148687123,0.13711268046580538,0.12049167693264873,0.10788357942747617,0.11287892107098774,0.11677103494066032,0.09362770198757797,0.058305699567969826,0.01806266950962132,0.005313565322895952,0.041755318922773954,0.08084769043624385,0.1274364699450281,0.17429761214564166,0.20837834977755354,0.23829724677527442,0.2658450223575637,0.2816585185760814,0.29461326417750566,0.29545977766450005,0.28920860249513525,0.2775381787699127,0.2598479216889933,0.24792732866640566,0.23561116860788722,0.23623448323369622,0.24868743750773148,0.24838628996471868,0.23352558321686478,0.22302157754566032,0.2469326187170926,0.28244058583805476,0.3200723127448857,0.3292403601013869,0.30765928907718276,0.288039321977849,0.27156216241398234,0.23182767499471968,0.18273608306275202,0.13652898492296117,0.08746326458926301,0.046077620228710536,0.015787740405646344,0.03513686038390729,0.07770241105083908,0.13118992606778357,0.17660647504116023,0.229623243285364,0.28426624365068953,0.3306829712931356,0.3822013261004984,0.437176801348623,0.4918951205744868,0.5388187805111251,0.5897671145576497,0.6447336700474828,0.6997223182301138,0.7543915443687097,0.8009695686502178,0.8523065532154948,0.9072792120803612,0.9621703377206736,1.0,0.9623246103110326,0.9162743114088152,0.864385749946774,0.8100160682306794,0.764314363237335,0.71182156211579,0.6570734906236764,0.6101595117729097,0.5592399710751694,0.5042718050598953,0.4494526487989128,0.40196432924176184,0.35523024564958394,0.31429101123960246,0.2864627531981907,0.26996175763715646,0.25938899446731645,0.26539356952348103,0.259209590708821,0.23856007222693765,0.22511913778485293,0.20322711425576334,0.18310510020267667,0.17237244717068556,0.17428920595557074,0.19157968790980928,0.22089227518203103,0.25138898257761855,0.2749967539274052,0.3051297438323828,0.3332046208002897,0.3476157871740022,0.3569809363048506,0.3535144787387261,0.3377491932834702,0.3311260245566605,0.3167984534787722,0.3047559158353881,0.28925487300777486,0.29248138225708287,0.3012360566446981,0.28827869631961467,0.2743534594464119,0.2781523055579693,0.3066255616827207,0.34211269383381193,0.37137853844659396,0.3624660387842349,0.34290706424523565,0.32406182273594153,0.30403998202594673,0.2588821374006045,0.21013969461480442,0.1557134569415386,0.11042963541591355,0.07131693453561017,0.05213069941445303,0.07838437759688821,0.12180313494276729,0.17552973482714695,0.22373046880931646,0.2732721878987474,0.32822043326348016,0.38313135542390775,0.43200937518455884,0.4808707888609849,0.5357772701039178,0.590764694613326,0.644517804467033,0.6897569492630105,0.7433351138373276,0.7983160496527928,0.8508473782950525,0.8953793905184928,0.9054850179566656,0.8547676302469824,0.7999072849219071,0.7517570996318041,0.702146242559138,0.6490361165501799,0.60367831781361,0.5496634381977477,0.49931204755387526,0.4519829669993718,0.40436703196298174,0.36404554441932246,0.3322424892658229,0.3116140105234928,0.2954285333077864,0.2818312127569702,0.2750334050262515,0.26638418814723197,0.24664102001035726,0.22028361364026505,0.19778564560509326,0.17144524583341392,0.15078589665545272,0.138398063162821,0.14931104806224593,0.17003726857111912,0.19827016062359348,0.22803033989172028,0.256261138545564,0.28498110033280666,0.30728082830030834,0.32288035712997143,0.3323175306676345,0.3319703068517823,0.32228154357569005,0.31164420494846024,0.29129979682739493,0.2795565118110841,0.2710665437316562,0.272935142203379,0.277737032443635,0.26263856295210997,0.25882052320088755,0.2783340294478829,0.31628835204617767,0.3493505837372872,0.3629585672902089,0.34551275806011716,0.32171193145773813,0.301288311450403,0.263648284975857,0.21481983847927544,0.16956375459146944,0.12187817785109445,0.08052849464733924,0.044412005836059976,0.042335003738646515,0.07147684837012558,0.11130652967335841,0.15959293451379564,0.20854702321166707,0.26345919956211716,0.3184479047545592,0.3734366099469999,0.4284252413620413,0.48306173877579095,0.5294093392872115,0.5810054241983247,0.6359821519798796,0.6909694232756429,0.7445863362685996,0.7898551972338042,0.8435395589184163,0.8981501430204726,0.9271997017850548,0.8890408150315596,0.8343813661714563,0.7841265660526373,0.7365753652012148,0.6817892648037005,0.6299081695121678,0.583771603185689,0.5296057567891652,0.4832745220272261,0.4319441367032195,0.38539757676101205,0.33882883379101614,0.30028105844939557,0.2704328146470327,0.253788330327525,0.24215011649983098,0.22847235155406276,0.2118742156893405,0.19422847722786152,0.17775864084305026,0.1569468932905682,0.1310663044037348,0.11536684609323089,0.11136580020170284,0.12599507615523664,0.15024818331432255,0.18281279527763727,0.21915296147351637,0.25298248611704843,0.28083825297985077,0.3045709124594893,0.31784765651538693,0.32026101374095095,0.3141960673657156,0.30549363980223143,0.2877229174312692,0.2761644964834402,0.26785250065791844,0.25884089846464553,0.25835424963828535,MI
0.03162655417591553,0.03162655417591509,0.031626554175914645,0.03155112623305456,0.023785588173228067,0.024409262772298934,0.031525878915679595,0.025757316430369936,0.016575585483161515,0.028662160300943373,0.03174433948723632,0.042056753724692975,0.07144235691095702,0.10961078633146482,0.15184649125183913,0.2017629795906939,0.24483697828712492,0.299220256424257,0.34813884523361693,0.3954100015688611,0.4511692411328929,0.49766425354781996,0.5474421020293629,0.6033989354679941,0.6560435289345272,0.70003455662822,0.7554801013417785,0.8114855409566442,0.8674911236245029,0.9230423741873555,0.9662761658070766,0.9975613749151702,0.9966364877759903,0.9614538646000272,0.909955121385936,0.8654936561520961,0.813415291969148,0.7574201063352377,0.7034864710706898,0.6602280853514526,0.6053397046945461,0.5493344095849872,0.4933357597481134,0.44118860574185126,0.3968214672467987,0.3412511677308574,0.28525295024631436,0.23332283882990268,0.18880409359847983,0.13348353115790568,0.08822256786790073,0.05186938669522334,0.047829107856337316,0.058971411566947296,0.06376558784780162,0.07814258295894128,0.0947759593537354,0.09538273879814829,0.09526217749341948,0.08448723021921234,0.05806532780133011,0.048672469016171505,0.061216701200955015,0.06351898919445143,0.06885466017509279,0.07916897796765232,0.07944376035675305,0.07899981309042214,0.06808855432897021,0.07578364951024152,0.07608486969469119,0.06524099453357879,0.07741131680452229,0.07740398119337799,0.0646542983439109,0.06751631674275682,0.07898758430411279,0.07944375164286122,0.07955010816645292,0.08817121882146672,0.09532035679431505,0.09538290944510885,0.09538290944510797,0.09538290944510752,0.09538290944510708,0.0952969171600393,0.08683899461110389,0.0797395070422855,0.09072455317045991,0.08900652504198181,0.07973950704228372,0.08894571860087908,0.09167702404620215,0.09321514786180041,0.09539464691932453,0.1003763271055047,0.11100928216865968,0.1131240809482792,0.13365733639199284,0.15496022328553583,0.18146259200004833,0.19632270330250234,0.20477593744518696,0.18405753593607432,0.1560168305558216,0.12315942849629469,0.09593986209274785,0.08040558974889134,0.06403673163475698,0.04779385005388992,0.047565642993186774,0.047327486691943754,0.037314229523372155,0.03164599344423946,0.03162655417588178,0.03135986403992508,0.021112448608249235,0.015705480203683564,0.01592727384840975,0.02958354533857044,0.06044749524320858,0.09979371018367278,0.14165621705098808,0.18809655960681404,0.23510298555888687,0.2879996593545986,0.33170058821006565,0.3870676792913956,0.44156141878679644,0.48464012713028914,0.5391462490789491,0.5949904111904472,0.6413978867408052,0.691266957954833,0.7471785706773004,0.7956143798714326,0.8433830600256562,0.8982739931523556,0.941516276981059,0.9862202890096099,1.0,0.9764087139462867,0.9334653687811483,0.8776796392214092,0.8216741429662724,0.7661491677819989,0.7217429271173175,0.6695890656965577,0.6135908146994207,0.557585232031562,0.5018361488444056,0.4559943536571134,0.405489049277596,0.3495019901774308,0.293535850661788,0.24348433398278901,0.19725193216156667,0.1414262988004733,0.0895893632129936,0.04570732489117457,0.02365817762343525,0.03294486062047586,0.046822036263936884,0.06099040508062048,0.06439268412165333,0.08209364460655433,0.10666801016966687,0.11625124730477543,0.12655629539235003,0.11488925474406697,0.08891286819346522,0.07946987802665939,0.0794438206277821,0.07944382062778166,0.07944382062778121,0.07950949694484555,0.0873643788067171,0.09530616095944788,0.09538290944508265,0.0953828302939339,0.0949124062040303,0.08336629663303041,0.07945138145051844,0.07832706247718235,0.06567673060258272,0.06350621317141192,0.06476703965155517,0.08391687723541441,0.10414318551878887,0.12475059390056353,0.14657920419059467,0.15868331724777773,0.15247486143939204,0.12101036391278397,0.0904500027601185,0.06271856664960396,0.04165822194431268,0.03178384185323857,0.031626554175861354,0.03162655417586091,0.03162655417586002,0.03162655417585958,0.031518838261876514,0.02257601886749505,0.015700383979365462,0.010936670172804863,0.0,0.0031516691414883446,0.017021636896987324,0.041693129663594064,0.07879270905062352,0.11875703798397552,0.16078580357833694,0.21461643167001832,0.27061883953112487,0.32550722018803135,0.36876560590726815,0.4226992411718151,0.4781353493800138,0.5221992744023245,0.5747805135882866,0.6307788575642204,0.684334437866486,0.7272667245947222,0.7642614614932883,0.8069325741819275,0.8520819920256009,0.9028385779334234,0.9473015655869266,0.9800117075542141,0.9777427339419127,0.9401187218800797,0.8971181293614792,0.8426397357829472,0.7987978257058264,0.7459770720177317,0.6899777055135177,0.6364972898838901,0.593061449912256,0.5378957693748716,0.4818901867070138,0.42588460403915507,0.369879021371295,0.3138734387034372,0.25786808041819187,0.20269910476711717,0.15914176526056822,0.10580961321502391,0.05541686187271111,0.038452885900610134,0.05100579637005831,0.06307360744470492,0.07163158563058314,0.07945329503766185,0.08722347002434994,MI
0.35828476293032097,0.3423655102638268,0.36700588753337726,0.43324686628663045,0.5231422388450424,0.6150852769546038,0.7067493797166886,0.7990359507928497,0.9003928273715482,0.9801924717723436,1.0,0.9346323375697976,0.8371169844683815,0.727955130093072,0.6359830549533587,0.5188429341802907,0.43194213662717296,0.3535213078356705,0.2828514276757961,0.30287788283950423,0.33195624508659005,0.3336450075297419,0.33772231796192376,0.3994708251726973,0.4783925865404033,0.5478883445286291,0.5525524204753403,0.48930200603294427,0.4384364808066321,0.3675892519784929,0.30424547791621404,0.3270654485999449,0.3436158292336602,0.37088935130909295,0.39726176235438615,0.40824867297243106,0.41623373131605046,0.44009721435907334,0.4217165135831902,0.44305576448211426,0.414288804554543,0.37375068145778023,0.2922150373540662,0.2233014598866916,0.1757443073716516,0.15257279495337261,0.18205699242875806,0.2121788918655465,0.2600663841665467,0.3037481961905817,0.3330370848051212,0.3336451316947544,0.3336451316947544,0.3357217284059084,0.36920375006966744,0.4182716382935485,0.4940182717587742,0.6027577703758524,0.6929053870834556,0.8098023232863749,0.9040094713446196,0.9619085724623408,0.9240874325221364,0.8463875013878894,0.7666476189468145,0.6604344910717606,0.5697394195640317,0.45939437282577344,0.3627219028809927,0.2779559509993419,0.30188367613187683,0.35745227259296364,0.3709105392028169,0.3723795187998338,0.40295277035303023,0.46395010090784794,0.5190437501773246,0.567597924283505,0.5823941103421806,0.5112086725339235,0.4198627281829159,0.3458664559804845,0.33372135694300287,0.34864990218189984,0.37203427845028614,0.40122071891743616,0.4082718377943584,0.4082664720996947,0.40144474327360413,0.3994901479734958,0.3850408614534544,0.36678474955825724,0.3145350879829696,0.23178077908017425,0.198991730935413,0.1303382697615767,0.0975718003442898,0.09538856565740872,0.13395769909060373,0.15207985551355474,0.1984085952823742,0.22140051706886688,0.23091236474449506,0.2528332131491764,0.23687617846152342,0.2597123188728414,0.28976026720456094,0.3581028422445991,0.4526541186516866,0.5531853309495629,0.6415623460577935,0.7401868117193127,0.8372119656277697,0.9232645442237084,0.967034971706874,0.9400396626976546,0.8403297547460369,0.7484869949528141,0.6307132612093787,0.5267092824830995,0.43173366094437693,0.34180846668130105,0.25227303922287003,0.28763576753286024,0.2963204174705396,0.29632795103709686,0.29726306570571737,0.33169298051410134,0.4190387441040535,0.49992179046620944,0.5519507651157403,0.5211551351901571,0.45523695867434544,0.38401516868623986,0.3251364110033075,0.2846610171301043,0.30454324054095583,0.3250966341065,0.314292752803917,0.3218243732367734,0.3182422104469351,0.3335718957665046,0.3336216774892158,0.32452925272133015,0.29731453302746313,0.2834981364173377,0.24375192964255632,0.16974847184649544,0.10314162605362043,0.06049774772476102,0.0029782720382947048,0.0,0.034046705196945304,0.06975171892357857,0.09989332325808142,0.11715753406580998,0.14562580165962036,0.14705922840651287,0.14712685960619698,0.1622833556644423,0.20976554049880747,0.29771102354871637,0.3988484695520045,0.4937293019589495,0.5984404666469461,0.6827085138037567,0.705841045728544,0.6670449902049373,0.5830379713954938,0.4735091663630646,0.38346305926785895,0.26665146148335594,0.17199790234005086,0.08818248824327402,0.13368308724231248,0.18198087713654054,0.2188397747641826,0.26492280581458516,0.29534655806221544,0.3233718803854675,0.39358130321905094,0.45261302334441655,0.5297227117780539,0.5526213508772493,0.48959937361472416,0.4000720281315102,0.32178305484755043,0.31360524490628805,0.33357257307917365,0.35547194061224197,0.3708914611773215,0.3709623123523693,0.37109769375817514,0.38887679411646037,0.3915579099725539,0.39248545943534996,0.370909663902653,0.3422539229425192,0.2750425564474872,0.23087119446877136,0.16849505215472504,0.11205252548249511,0.11469176691585048,0.16083889307932786,0.1917474910070922,0.2206163897686304,0.24787930694149285,0.292534669564656,0.296326049351773,0.29649720754594355,0.3167275790804016,0.35868443336409594,0.4444509556162739,0.5368580521784532,0.627879110081123,0.7186034056938881,0.808684704244321,0.8998440955199056,0.9552430416724809,0.9445653246508527,0.8615531201969988,0.7682340813995756,0.6616613441534493,0.5494519592127238,0.4681731154978914,0.3836388005129363,0.37271424140287923,0.3955031565712126,0.40429058014150154,0.4129244872629938,0.4333220161706004,0.41693922954350526,0.4762846697826353,0.5782489841930216,0.653234996278699,0.667018587064824,0.6240828775287008,0.5579150643542006,0.4908502959188885,0.41992786799374837,0.4484854387082349,0.4824227533941521,0.483104033691931,0.5041431124313851,0.5205597849400485,0.5436529564127692,0.5326024627759294,0.5520499326321486,0.5325853613271754,0.5413932248197071,0.4916523387503524,0.4552828537841336,0.37817677729359644,0.3221147773012438,0.27093612396021616,MI
0.4296386189650736,0.5065582869248386,0.5680447362776464,0.6399340304234622,0.7060986244991891,0.7706055658206532,0.8430673741551802,0.9010560556087546,0.9561139363292881,0.9673601046756648,0.9197089381929056,0.8567859784740923,0.7811642038079905,0.707588323671307,0.6401107799573138,0.5570013727642733,0.49351895029885373,0.415364637493143,0.3452667565551977,0.2744528522090999,0.20611451728887342,0.16560112935060545,0.2222472295975777,0.27798904102408706,0.30841849725983206,0.342481174213769,0.32686160919356144,0.3195225463399849,0.3195176697611082,0.3185011390005661,0.2977179150030187,0.29074544686040493,0.2678925876301381,0.23466978086413182,0.1955857610514249,0.20435415626132514,0.2156632928012412,0.2513255289446672,0.2803658737694237,0.30837302908342057,0.31621989687543905,0.29350712673910895,0.29215196504615815,0.29215196504615815,0.29196950861238324,0.277824996394898,0.26492577114994464,0.27711602092039644,0.2842686838643358,0.2663998577918667,0.2872675867926482,0.2921446873339306,0.29215196504615726,0.2921507404235051,0.2885691936408854,0.26195279005810335,0.23756054545321348,0.21032181956283313,0.18224805542227518,0.16076401990961386,0.1887868864116804,0.23578758776415665,0.2778882753851768,0.31434360194602995,0.340465606523523,0.37346575441936647,0.39206905758651267,0.4258917718294857,0.4289801429023834,0.42897339603181184,0.4239808681279298,0.4026542401247406,0.4013935525822099,0.3864478639567617,0.3751881689121559,0.39539204245193105,0.3853368917878308,0.40396429622097596,0.46796620959758517,0.5301989510367751,0.5906593742175383,0.6544098869876036,0.7262844764859047,0.7874399269117536,0.8467147492080276,0.8663005345823738,0.8500461726311936,0.7934916543071866,0.7318803096867992,0.6515015970279929,0.5673954476867777,0.4924067616319938,0.4261796268197662,0.3428023648469223,0.2786857436098904,0.20232804064166654,0.16818903881535796,0.22038291028790002,0.2849924898707732,0.3292738854051356,0.3670623899468044,0.37423208034097843,0.3742495393374883,0.3742495393374883,0.3742485630478578,0.37148554474843465,0.34576587901464517,0.31773863215352716,0.28137702937286857,0.23165974632069553,0.20534248676280153,0.19389555123912228,0.22120754469617765,0.261463456630735,0.3026784353718188,0.3192990696940683,0.3191688611217032,0.30163662038966876,0.2894987988114739,0.26677021657132727,0.25442040346913064,0.2375480782869568,0.23742024885193214,0.23742024885193214,0.23746108228509222,0.24793744381804128,0.26448495694308694,0.26297379791688336,0.24128923573273653,0.23521703697086682,0.2127181574887116,0.1913521724925129,0.1632121656740848,0.12242167021506134,0.06407645223065472,0.04624581369533587,0.06639973928123766,0.10097069524879831,0.13649068311889145,0.18636620901691625,0.2342366539041132,0.27632350170272346,0.31334699255634035,0.3195051638950579,0.31952163091628627,0.32572308626947066,0.34616664803006447,0.3463932668151406,0.32647357822925294,0.33729032527300795,0.33424564596215056,0.3196165592321929,0.32303678720886886,0.34956654400610354,0.3983414453084668,0.46237198471991814,0.5250739706850034,0.6022151600582468,0.6655879244333436,0.7422806456024329,0.799240368839425,0.8625739937375148,0.9263831208852702,0.943911757699337,0.9034603726800077,0.8386781966391821,0.7680911736555638,0.6907028413704879,0.6265172017208647,0.5452662724878907,0.48319964941914595,0.4022346538550359,0.3275067798222464,0.26110171213362765,0.18825194744586593,0.166692771322694,0.22754320760421187,0.2900222951146034,0.3191318361027591,0.31951782314326316,0.31951782314326316,0.31951782314326316,0.31920645915765355,0.3024399150595585,0.29216079668495976,0.2825318100343468,0.2429132670992269,0.19834742846988096,0.15688076425500697,0.1638817145768634,0.20312910776137372,0.2379582933891209,0.26255967068243713,0.26478538386170936,0.2647861069490407,0.2647861069490407,0.26476028858632095,0.2539828370875403,0.21323647045597482,0.22557743914823725,0.23735416729133885,0.23742024885192947,0.23767356601841882,0.25546437869754346,0.26475657585830614,0.2647857198416794,0.2632734488492732,0.24167965110408574,0.21977594222351993,0.1843131331722443,0.15625157951491708,0.11955523683184222,0.07327638659836833,0.0351303633222626,0.0,0.042949511067963186,0.08146763585034655,0.12768842397346525,0.16480007244010597,0.19643519015189614,0.2464651377139342,0.2773401115128955,0.3131195476797446,0.3339753640582508,0.3689413782713915,0.3742409526029915,0.37424953933748295,0.37424953933748295,0.37368749798875633,0.3534194485500626,0.34691538714077996,0.3564447536047508,0.3847702916656628,0.43644944076068537,0.5068363953138704,0.5754772912773083,0.6462911956234096,0.7153220591561595,0.7778087358042285,0.8509024784682273,0.913224684699987,0.9666340749438289,1.0,0.9774199948860156,0.9100309691372956,0.8261725462587606,0.7559619568072327,0.685016576658243,0.6028105333764469,0.5404045864853568,0.46038968845258754,0.39364038969112336,0.319522916141854,0.2542202227470023,0.19215711334525398,MI
0.0,0.026985023481335357,0.06648616201016155,0.10396623148687123,0.13711268046580538,0.12049167693264873,0.10788357942747617,0.11287892107098774,0.11677103494066032,0.09362770198757797,0.058305699567969826,0.01806266950962132,0.005313565322895952,0.041755318922773954,0.08084769043624385,0.1274364699450281,0.17429761214564166,0.20837834977755354,0.23829724677527442,0.2658450223575637,0.2816585185760814,0.29461326417750566,0.29545977766450005,0.28920860249513525,0.2775381787699127,0.2598479216889933,0.24792732866640566,0.23561116860788722,0.23623448323369622,0.24868743750773148,0.24838628996471868,0.23352558321686478,0.22302157754566032,0.2469326187170926,0.28244058583805476,0.3200723127448857,0.3292403601013869,0.30765928907718276,0.288039321977849,0.27156216241398234,0.23182767499471968,0.18273608306275202,0.13652898492296117,0.08746326458926301,0.046077620228710536,0.015787740405646344,0.03513686038390729,0.07770241105083908,0.13118992606778357,0.17660647504116023,0.229623243285364,0.28426624365068953,0.3306829712931356,0.3822013261004984,0.437176801348623,0.4918951205744868,0.5388187805111251,0.5897671145576497,0.6447336700474828,0.6997223182301138,0.7543915443687097,0.8009695686502178,0.8523065532154948,0.9072792120803612,0.9621703377206736,1.0,0.9623246103110326,0.9162743114088152,0.864385749946774,0.8100160682306794,0.764314363237335,0.71182156211579,0.6570734906236764,0.6101595117729097,0.5592399710751694,0.5042718050598953,0.4494526487989128,0.40196432924176184,0.35523024564958394,0.31429101123960246,0.2864627531981907,0.26996175763715646,0.25938899446731645,0.26539356952348103,0.259209590708821,0.23856007222693765,0.22511913778485293,0.20322711425576334,0.18310510020267667,0.17237244717068556,0.17428920595557074,0.19157968790980928,0.22089227518203103,0.25138898257761855,0.2749967539274052,0.3051297438323828,0.3332046208002897,0.3476157871740022,0.3569809363048506,0.3535144787387261,0.3377491932834702,0.3311260245566605,0.3167984534787722,0.3047559158353881,0.28925487300777486,0.29248138225708287,0.3012360566446981,0.28827869631961467,0.2743534594464119,0.2781523055579693,0.3066255616827207,0.34211269383381193,0.37137853844659396,0.3624660387842349,0.34290706424523565,0.32406182273594153,0.30403998202594673,0.2588821374006045,0.21013969461480442,0.1557134569415386,0.11042963541591355,0.07131693453561017,0.05213069941445303,0.07838437759688821,0.12180313494276729,0.17552973482714695,0.22373046880931646,0.2732721878987474,0.32822043326348016,0.38313135542390775,0.43200937518455884,0.4808707888609849,0.5357772701039178,0.590764694613326,0.644517804467033,0.6897569492630105,0.7433351138373276,0.7983160496527928,0.8508473782950525,0.8953793905184928,0.9054850179566656,0.8547676302469824,0.7999072849219071,0.7517570996318041,0.702146242559138,0.6490361165501799,0.60367831781361,0.5496634381977477,0.49931204755387526,0.4519829669993718,0.40436703196298174,0.36404554441932246,0.3322424892658229,0.3116140105234928,0.2954285333077864,0.2818312127569702,0.2750334050262515,0.26638418814723197,0.24664102001035726,0.22028361364026505,0.19778564560509326,0.17144524583341392,0.15078589665545272,0.138398063162821,0.14931104806224593,0.17003726857111912,0.19827016062359348,0.22803033989172028,0.256261138545564,0.28498110033280666,0.30728082830030834,0.32288035712997143,0.3323175306676345,0.3319703068517823,0.32228154357569005,0.31164420494846024,0.29129979682739493,0.2795565118110841,0.2710665437316562,0.272935142203379,0.277737032443635,0.26263856295210997,0.25882052320088755,0.2783340294478829,0.31628835204617767,0.3493505837372872,0.3629585672902089,0.34551275806011716,0.32171193145773813,0.301288311450403,0.263648284975857,0.21481983847927544,0.16956375459146944,0.12187817785109445,0.08052849464733924,0.044412005836059976,0.042335003738646515,0.07147684837012558,0.11130652967335841,0.15959293451379564,0.20854702321166707,0.26345919956211716,0.3184479047545592,0.3734366099469999,0.4284252413620413,0.48306173877579095,0.5294093392872115,0.5810054241983247,0.6359821519798796,0.6909694232756429,0.7445863362685996,0.7898551972338042,0.8435395589184163,0.8981501430204726,0.9271997017850548,0.8890408150315596,0.8343813661714563,0.7841265660526373,0.7365753652012148,0.6817892648037005,0.6299081695121678,0.583771603185689,0.5296057567891652,0.4832745220272261,0.4319441367032195,0.38539757676101205,0.33882883379101614,0.30028105844939557,0.2704328146470327,0.253788330327525,0.24215011649983098,0.22847235155406276,0.2118742156893405,0.19422847722786152,0.17775864084305026,0.1569468932905682,0.1310663044037348,0.11536684609323089,0.11136580020170284,0.12599507615523664,0.15024818331432255,0.18281279527763727,0.21915296147351637,0.25298248611704843,0.28083825297985077,0.3045709124594893,0.31784765651538693,0.32026101374095095,0.3141960673657156,0.30549363980223143,0.2877229174312692,0.2761644964834402,0.26785250065791844,0.25884089846464553,0.25835424963828535,MI
0.9754748320054407,0.9353378599848363,0.8942720469429402,0.8561166035237684,0.8125772895386785,0.7688117468275264,0.7263093016921074,0.697134576652251,0.6628375919584688,0.619399551780738,0.5756333001495175,0.532582922574868,0.49532649802329565,0.45288191044509096,0.4091256707023385,0.36742196991137854,0.3297887262981867,0.286423297634673,0.246667196547103,0.20731553767946798,0.1664115884083961,0.15224264889987915,0.1582180938864457,0.17180529144674672,0.17500636492706012,0.15867764075426072,0.13889067014899026,0.14121181486346823,0.1431886899326955,0.14319630552637386,0.14318920988253248,0.14127608432486283,0.13795061334497616,0.14080782106233292,0.13506073849253486,0.14009108331242737,0.15023974785137906,0.1584993443741074,0.1626841316447547,0.16270232258408357,0.14525856610486065,0.1198573028919192,0.0932336530344271,0.06414805596400996,0.03665694730000135,0.015223369411994536,0.0020155215472923427,0.012729113519731161,0.02731620391165923,0.03798834952989294,0.04442539139380686,0.05651975120373742,0.06388260822138458,0.08426758701572834,0.11426003752175529,0.15058281691236086,0.18986962467312196,0.23328112295659542,0.271208651832046,0.31253443422659166,0.3543646846484776,0.3919181685319233,0.43527492859811634,0.4777745482140192,0.5150147146185795,0.5580260555343328,0.6017879919717688,0.6438465649835405,0.6812373779088909,0.7245405806189533,0.7678403931902942,0.8053294303352381,0.8472949700361236,0.8909827621818094,0.9304305980070695,0.9697773458787329,1.0,0.9889995263611016,0.9519164136353586,0.912510812944443,0.8728810793375845,0.8291860075677779,0.7880274713090238,0.7570062365239272,0.7180242012681168,0.6907810172201478,0.6530173717338634,0.6093382112724228,0.5655769158559474,0.52354591642758,0.48609293089969663,0.4428228616425698,0.39905619465049735,0.3552893634397143,0.3115229092599021,0.26839445836746134,0.23111053336633192,0.19045405868685905,0.15684048002122086,0.1504981423822731,0.15408723349541775,0.1688199426713024,0.17404674161789435,0.15880569299172542,0.13574635785317812,0.11935645595899946,0.12311803987143377,0.1275039564282341,0.1340054087449778,0.1346482541249474,0.13640129900024656,0.14030146027854573,0.13349858381006885,0.12664928054224966,0.12175282821158828,0.1234846314320952,0.13258649469457384,0.14257423196529606,0.15224497082337618,0.1596366914644738,0.15150090449795162,0.13193114403859774,0.10759415509151671,0.08225002007855386,0.0551130449692252,0.02561237151133322,0.004114367676039343,0.0,0.014388731293280888,0.029235435763420137,0.04189227423174957,0.05127017496851405,0.06288427394236007,0.07852815794340384,0.10110925228956402,0.13129541851028326,0.16722764529251832,0.20375265847200308,0.2414110118945143,0.28187369078700963,0.3256084089403595,0.36937524015114276,0.41287605102833425,0.4508035799037855,0.4921343296442422,0.5355132116309684,0.573110403627098,0.6148795641455389,0.6586360726959941,0.7010255153361369,0.7382981980347194,0.7813876122682646,0.8251492489700101,0.8670714558641794,0.9045620240144339,0.9476900938178221,0.9801241760648338,0.9776108657977911,0.9460950134338248,0.9046288818224242,0.8609145259177593,0.8208837977883534,0.7817997575262883,0.7381233697776208,0.6943565385668375,0.6505906920327991,0.6076964610937323,0.5705050691302052,0.5278399017997524,0.48407468616362337,0.440829034283869,0.40349131899724133,0.36134388028443354,0.3204501827162023,0.28214279626788463,0.2385778135441965,0.1949983755677671,0.16356001586792113,0.15490700790091472,0.1515521922458336,0.14344147766855553,0.13912407240546876,0.14958145091710917,0.14552894418235862,0.14320715539763906,0.14319630552618978,0.14319630552618645,0.14318343245697185,0.14066068287923894,0.13489730074013062,0.13434745451684726,0.12817792052570942,0.11980861573553425,0.11755009430733887,0.11839660940703811,0.129816884124911,0.1395505167361517,0.14308192427835453,0.1378259949278624,0.11730582630492581,0.09019863551183804,0.06175612448291301,0.03805840721637854,0.015583844399430724,0.01003833448076219,0.021820648374770713,0.032061633378096754,0.03997737723090866,0.04890848679324411,0.05679562751052991,0.06871752860366853,0.09806378728322929,0.13437698285017685,0.16910255772269944,0.20678829429920564,0.2471619990276377,0.28962748071000033,0.3268676471145615,0.36980163967407553,0.4091578457546796,0.44891394684224806,0.49251465347481216,0.531277148620694,0.5652138685180352,0.5986916644959588,0.6418229671769298,0.6800543000013191,0.7210383773121609,0.7647859221243265,0.808453579802408,0.8473687383673134,0.8875726384928133,0.9307505105261682,0.9618924198414613,0.9616754445693712,0.9302820390567965,0.8870310861352344,0.843264378088485,0.7994975468777024,0.7557307156669184,0.7119638844561362,0.668222752973378,0.627498679984746,0.58903935050728,0.5454486990449943,0.5016818678342096,0.4580817802356465,0.4197103918207168,0.37891722766632974,0.33681144993808854,0.3063263434931609,0.2730544573310265,0.23444522790260214,0.19441778911039376,0.1587637868118188,MI
0.6760207866440311,0.6211360258713685,0.5599120739810157,0.4986795788824181,0.43745037607989357,0.3786266156426339,0.33125934932586887,0.27115663476318996,0.209928243534367,0.15124885387144937,0.10389816768507343,0.060694330352224046,0.09986755100921396,0.1304360652550498,0.13334398280648685,0.13859583269421494,0.15138339005936352,0.16735845278231087,0.1839462962028584,0.17993767616952638,0.17884739793980797,0.1684723596255302,0.17618691873168624,0.16896067617106203,0.13468098346465718,0.0997120589713516,0.09089275573116717,0.11041809793808044,0.12942734160058222,0.124865157157529,0.11601180262269617,0.11592528677779912,0.11595061359416636,0.12284664941792522,0.13457368102841683,0.14879932594891976,0.15550499230302872,0.16766223184003382,0.16140345427550962,0.15055979479428538,0.1385580998860081,0.12212034057888399,0.09948536548873088,0.08436690214345122,0.0738796426405246,0.0640293872294242,0.07436732825096559,0.08124973646667533,0.09192729141978129,0.09958848447301172,0.11349480872241458,0.11987814678874376,0.13943371578951913,0.17787494539605042,0.2266993169329794,0.2776552852235712,0.32554256865451014,0.3731761607969224,0.4240720462911125,0.4702960349244565,0.5188305589721396,0.5795720736882028,0.6400453040896124,0.6872902435668728,0.7249306304698862,0.7625712777508347,0.8130627660291037,0.8591920093282206,0.9053880711401812,0.9544625821371056,0.9918940475454092,1.0,0.9560697906241344,0.902244242797039,0.8509790598145814,0.7898923488546412,0.7291039092415779,0.6801095190967339,0.6235899219711887,0.5623695654230825,0.5011370703244848,0.4401138698853644,0.38940407217452533,0.334822841903073,0.27361432097819005,0.21238182587959153,0.1511496521563327,0.09229295145427718,0.0889395467546037,0.1137980674426129,0.116178402184266,0.12787246682142106,0.13803748386492698,0.15029565930318167,0.15074123401758754,0.15388603743058216,0.16737814548258667,0.16777193802052937,0.15312971589261037,0.11930128517268113,0.0868157479589362,0.09734369668471476,0.11565068533164169,0.12871284097492008,0.12620349663742525,0.12899557721501642,0.1256005999492582,0.11606946810814422,0.12192523908479469,0.13305056016299144,0.1356478863998798,0.1495099058878444,0.15707673380599685,0.16192343082717464,0.15092917403543682,0.14452417334679746,0.12489902589545743,0.113631142185743,0.09547466366821356,0.07905894780900491,0.05145159377250552,0.029374028859118884,0.02404638045366081,0.0,0.0015655236557958752,0.011359815368208181,0.011482699058217527,0.013092642647912989,0.0308482824246612,0.06359505091993789,0.11851067169965335,0.16466772548600517,0.2101694963226577,0.2556191964554295,0.300612694479657,0.3436337319927114,0.39849556329021407,0.4468179164702262,0.5034254159481288,0.5512886903050722,0.5990093774766767,0.649945516957223,0.6991300229596993,0.7460601362024093,0.7956701002943332,0.8256837566763511,0.8050058070770527,0.7506506189600972,0.7007266134833139,0.6452906616689829,0.584170631472789,0.5321035506568705,0.4789736601697845,0.41778715224711194,0.3565546571485143,0.29537717199398905,0.24119966673155702,0.1901093000776597,0.12903192727951085,0.06830934230705132,0.0386190904157826,0.0831036470627664,0.09750974052852657,0.08805915686726618,0.10896024377839675,0.11986374525112486,0.13504149916126273,0.14938867279841928,0.1431134563470473,0.14699381832445635,0.1504832062325807,0.13908750396776925,0.11577895055542253,0.08568927989987651,0.07680158705418405,0.09205645565738818,0.11388011030427281,0.11592384488399965,0.11559524044960723,0.10408828014059646,0.09853594301143742,0.09851805572966565,0.09851805572966521,0.09851969182229592,0.10191362028104844,0.11526656652834255,0.11693143056237298,0.13072717410162982,0.13326575017790132,0.1257927511949446,0.11560751526982171,0.10226201494973441,0.08197659499337595,0.06408720987597327,0.049027434616840004,0.04518699936446691,0.02566716662504298,0.011716209084418061,0.011505198341563272,0.01803436009115611,0.02866642002571984,0.029596808921093842,0.04735004510073759,0.07101645583901295,0.10954877786924744,0.15563460878312219,0.20521197791610257,0.25163048994620274,0.29794408754902024,0.3437493217375658,0.39108825179071527,0.44826540127285375,0.4957797053127333,0.5440229626594935,0.595144802233305,0.643621037967359,0.6906432852388851,0.7411367625203868,0.7912781025643607,0.838223177251399,0.8777326992167973,0.8590932202158057,0.8066705363668727,0.7591466715727084,0.7006021540616358,0.6394478110479911,0.5864762626121376,0.5342275496686657,0.47769365022961585,0.4425138884991964,0.38570689263895686,0.335604965235468,0.28035216803746854,0.21913992734528698,0.1582307701488075,0.10858017744506343,0.07680138570635053,0.10036704437987565,0.12304429143178863,0.13321874800758815,0.1367023946958903,0.1552761674581844,0.16779336106450327,0.17353303523464447,0.18520403936386387,0.18553628256658694,0.17825951442963417,0.1413922612751226,0.10648370313240685,0.10497918668285244,0.13006903256625257,0.14893530830443646,0.16364205704204293,0.15508367270436452,0.1507488439784579,MI
0.21493558184628636,0.23649656214891301,0.23770297220772285,0.23567222709235303,0.21369988985371347,0.21129207481545187,0.2112920307102515,0.2112920307102515,0.2112920307102515,0.2112920307102506,0.21262733803355172,0.23393154854409204,0.2377033581282264,0.2406473388135657,0.2609770091649848,0.24028986564537913,0.23770366686462996,0.23770353454902793,0.23770353454902793,0.23770353454902793,0.23770353454902704,0.23770353454902615,0.23770353454902704,0.2384131315124014,0.2585001003413394,0.24107299167261598,0.21405864207271108,0.21129225123625073,0.21129203071024794,0.21129203071024794,0.21129203071024705,0.21129203071024705,0.21100724738895416,0.1946982699616333,0.1848826439210951,0.18484568770322252,0.17632167485881567,0.1585960322795108,0.14937423493195912,0.10919641931446034,0.09853782803606403,0.07639437614462352,0.05455982570837925,0.042475049868140324,0.026526128400768734,0.026763627633980214,0.04673664501756036,0.03222609734858395,0.026413753204021617,0.030428190712493475,0.05130412874796075,0.034730099855353025,0.027480525625477092,0.04861585203556906,0.05282248944146506,0.052823007677570644,0.05282521293759945,0.06314041500287271,0.07900595934548349,0.08830275825381495,0.10548643031400129,0.1262850692238464,0.15806795658177375,0.1911154730371516,0.24798565998072064,0.3126790252539795,0.3663586649044044,0.41589519301051237,0.47066447772590614,0.5190895783348104,0.5819354277714002,0.6251982636150561,0.6865426483616002,0.738264042701088,0.7896855942926013,0.8425686205769756,0.887690521799235,0.8979222081801925,0.8885514757001802,0.843908602584583,0.7921886637167113,0.7308619797249447,0.694440696096029,0.6693635017228354,0.6134214279886141,0.56966420302874,0.5094822718300867,0.44614584459759854,0.40348230048908995,0.34169204877000325,0.2769801116642565,0.22051049837266667,0.21129379491826494,0.2112920307102426,0.21209106212346374,0.2330624883207708,0.24277203540959746,0.2583824757402482,0.23826123892265016,0.22410754971151015,0.21013281624214297,0.18496844423986847,0.15998533835790507,0.1655386128296108,0.18429879962637852,0.19070095608055304,0.2105732760577359,0.21129201968394007,0.21129203071023994,0.21129203071023994,0.21129203071023994,0.21129203071023994,0.21129203071023994,0.21129203071023905,0.21129203071023905,0.21129203071023905,0.21129203071023905,0.21129203071023817,0.21129203071023817,0.21129203071023817,0.21129203071023817,0.21129203071023817,0.21129203071023728,0.21129203071023728,0.21129203071023728,0.21129203071023728,0.21129203071023728,0.21129203071023728,0.21129203071023728,0.21129203071023728,0.21129203071023728,0.2112920307102364,0.2112920307102364,0.2112920307102364,0.2112920307102364,0.2112920307102355,0.2112920307102355,0.2112920307102355,0.2112920307102355,0.2112920307102355,0.2112920307102346,0.2112920307102346,0.2112920307102346,0.21129203071023372,0.21129203071023372,0.21129203071023372,0.21129203071023372,0.21129203071023372,0.21129203071023372,0.21129151247412636,0.20705926427646837,0.17840424004687971,0.1582125901082767,0.13930491321954364,0.10935254888104762,0.08786752016963639,0.05711237359893051,0.037193476416283566,0.017714952609155787,0.00015038030639491495,8.881784197001252e-16,0.0,1.7642080232249668e-06,0.007819086149630117,0.025909734851881083,0.026449508948426903,0.03872756810461908,0.05275784670086647,0.05282300767755732,0.053070439290232585,0.07328667732607563,0.07922340245904813,0.07931338033389235,0.09354923272271432,0.10564473009451802,0.11888238813400509,0.1509940073197651,0.18297290965669788,0.22766793069811975,0.27145132293854424,0.31916456299950724,0.37375033504907496,0.4234703206895096,0.47690777168824994,0.5414050544314426,0.5876022774182204,0.6446734045859657,0.70381132366062,0.7484503728102956,0.8121860554622495,0.856563924827829,0.9152780161785481,0.9602611773256848,1.0,0.991673312189123,0.9589357221650907,0.9157809901215526,0.8512790198075386,0.7865468224521202,0.726743302105537,0.6828680167611223,0.6187798222931873,0.5615635896580367,0.5155063152534574,0.4509634812315353,0.38654130972480694,0.33833891802527205,0.2831765578217187,0.22464286042788828,0.2112994321441457,0.21352113121699734,0.235382114000954,0.23779224439933433,0.2525179199905203,0.26406306080606967,0.26411503838778483,0.26385730109059224,0.24688928506602537,0.21419542781228174,0.18996552984862447,0.20940591211484083,0.21129168889492256,0.2112920307102275,0.21129203071022662,0.21129203071022662,0.21129203071022662,0.21129203071022662,0.21129203071022662,0.21129203071022573,0.21129203071022573,0.21129203071022573,0.21129203071022573,0.21129203071022484,0.21129203071022484,0.2113606836008035,0.2251070876814687,0.23736150028800385,0.22110977380038932,0.21129414775985111,0.21129203071022395,0.21129203071022395,0.21129203071022395,0.21129397133904781,0.22011044533012303,0.23731025839490716,0.23770353454900128,0.23770353454900128,0.23773643169516046,0.24973097251053655,0.25494976184999363,0.23784369892841895,0.23770353454900128,0.23770353454900128,0.2377035345490004,0.2377035345490004,MI
0.10198359712559113,0.10198369570791321,0.10262351365188738,0.1121321430018214,0.11404076852260703,0.12486420352798988,0.14408706861433873,0.17180180325294692,0.20187985032415368,0.23648418369576119,0.2655120178016701,0.3024478369897108,0.3355575388590504,0.36792783496732184,0.4064042246907751,0.44451896677704994,0.4742021203482847,0.5103256694723828,0.5488735892978371,0.5874191250255634,0.6230303832443558,0.6530665453767077,0.6913429513165483,0.7298929026127583,0.7684428859819845,0.8069904668327301,0.8432804431111567,0.8728410150660508,0.9109122642060092,0.9494072521453507,0.9812913366086602,1.0,0.9927836604175004,0.9676272853984176,0.9339387816055043,0.8954907140645387,0.8632179156609312,0.8300044094699586,0.7914900717432976,0.7529400883740709,0.7143901050048451,0.6758419627152383,0.6396198482076287,0.6184308865551538,0.5836405396171753,0.5451013952211317,0.5065521008850165,0.46907657617812815,0.4400542443398012,0.4026318748630029,0.36408306490980813,0.32679112549868616,0.29788545684904655,0.26028697878074425,0.22855753897606013,0.19480570525000673,0.16164245961293444,0.1398388305297673,0.13717752745288858,0.1371864281399493,0.14166055433478264,0.14875950566828133,0.1489059538565911,0.14835417052205813,0.13538704122286793,0.11031665549463843,0.09213480208701497,0.1057029872903259,0.128120524654328,0.13720797945477559,0.1448255167752892,0.14888620954404286,0.14890601125040215,0.14890587043252546,0.14817377353796646,0.13895430926456065,0.13571854625121182,0.1261567772572305,0.12544492527768347,0.1254448041879792,0.12544480418797832,0.1254448041879772,0.12544480418797588,0.1254448041879752,0.12547251967436024,0.13053129060371482,0.13707311219627716,0.13712616426734714,0.13123963477552247,0.12201060880199943,0.11389394087423121,0.11153709366793563,0.10247836989145709,0.10069480547201737,0.09106279890868296,0.0895059984519484,0.08027437088250378,0.07930728835154688,0.08891942098415173,0.09025200259996757,0.09093321755768469,0.10008178722958272,0.09268420579311276,0.09025587126922296,0.08995943701054632,0.08072216506371777,0.06886009531997783,0.06258949424895,0.04478110013713699,0.03130838645402845,0.014323402820532793,0.0,0.0004543736583653146,0.004933162223252019,0.0029348375746822697,0.011613468086789203,0.01969585340736968,0.025647654020082067,0.039135976969639996,0.053714135663910145,0.055538614525402874,0.06454285360019973,0.06695418550817367,0.07495478324563964,0.0755565692594935,0.07996667141728242,0.08778757027307305,0.08418044088376853,0.09015737864638229,0.09042097425712181,0.10020155932643426,0.11925912220439217,0.13853464891414347,0.16190669560429183,0.190762940980983,0.22621611475295822,0.2612099020832539,0.2917945260302659,0.32771866504339453,0.35735098220306094,0.395501743100219,0.43405156520406907,0.4719041034008624,0.5009037089066872,0.5379723689040401,0.5765210117379915,0.6150709951072177,0.6535895066002886,0.6869491739748916,0.7190826899432654,0.7575403250529136,0.7960903084221398,0.8346353044646264,0.8700674565287927,0.9002622647228793,0.9385557013992183,0.9742280900235114,0.9915076552896704,0.9745265974230448,0.9436597434273981,0.9096570447203547,0.8711201820469712,0.8327520589153625,0.8017467306723858,0.7671940168647424,0.7286508387093824,0.6901008553401562,0.6515509265513271,0.6136188229864663,0.5841838403921047,0.5476299182015985,0.509081542025235,0.47053239070178865,0.43314617776040887,0.40420458193956765,0.3666120378724189,0.32808189965431245,0.2935807688257217,0.26258986483976,0.22494966549475715,0.1956865455907324,0.1603416820492063,0.1413778934611598,0.1480625151471051,0.15529998488822372,0.1607949597318612,0.16932187513677732,0.1815113729361011,0.18255716547887446,0.17292688771425047,0.1644950385181918,0.14106647572346565,0.12641549556326015,0.13559001734056064,0.15403920057470954,0.16059166740805697,0.16063661478154545,0.16063661478154412,0.16063656740350885,0.16017773677195324,0.1516126943635634,0.15809092322426888,0.16063355065720009,0.1606366147815388,0.16063661478153812,0.1606366147815368,0.16063632300584163,0.15980995258102393,0.1505065677653601,0.14890642545475918,0.1489412395162475,0.15426310057613746,0.16055421378527823,0.16083812780584128,0.1681374383845624,0.1621902050373909,0.15606569549668659,0.1489917420898037,0.14890601125031666,0.14890601125031533,0.14890601125031444,0.14890601125031333,0.14890601125031266,0.1489039635968359,0.14650145544236937,0.13761657557862295,0.13790759308233191,0.14750402132207552,0.15375071655249095,0.16051663523492143,0.16063661399375562,0.1605237624136564,0.15281099649865282,0.13398205107844574,0.11469914607891307,0.09544430705227103,0.07888925351560916,0.06274282653514884,0.04522758091839196,0.02671634409682455,0.022790134845896537,0.031322049708462085,0.03346533727429524,0.043277221148938505,0.05345861424329623,0.05537965314768489,0.06395223276766604,0.0733145014728398,0.0785138939085337,0.08341344104373061,0.09013632980209718,0.09026045199876487,0.09460283875479125,0.10182714428000006,0.1019835889102596,MI
0.10795045377549006,0.08822235068333084,0.09880375824811738,0.11340246958821165,0.11693242469177667,0.12076901449335686,0.12024434466737377,0.1109730315884856,0.10863560308555908,0.11479730977505476,0.11630006892356137,0.10857851895970394,0.10091046536729698,0.09626148861340944,0.09152215960846832,0.08411042994770601,0.08548173180720431,0.0952854267318275,0.09627442084801818,0.10016765216326551,0.10593560684456738,0.09673240145674278,0.09375724750738934,0.08914379467401767,0.11100527984952224,0.14444124580937734,0.18363517891325642,0.22643955476637556,0.26825743829563864,0.3154546634212174,0.35168884370731446,0.3818949985464468,0.42128409612235673,0.4663357316138197,0.5134160459338646,0.5536092494229048,0.6022395645215473,0.6437855795579797,0.6891175340014395,0.7332813326141285,0.7756714312079227,0.8155003713773672,0.8313735064154657,0.807173574561395,0.7640132898087688,0.7236661951173242,0.6768361394748146,0.6273568694600482,0.577874705180319,0.530289867899957,0.4903603339017275,0.4417162512579029,0.39223191998166307,0.3434307884803336,0.30339982641313457,0.2560730438041037,0.20659473766378245,0.15931109702629742,0.11930416642214103,0.07371080470855196,0.05959767991293563,0.06791105316306578,0.08304240164114862,0.0856984546543258,0.10260498540411533,0.10592915550069737,0.0884233842855977,0.055301804229730855,0.028672732222544406,0.039089909702739734,0.05702943683353712,0.063621352399853,0.06478546315741607,0.06728190198056372,0.07125185475964702,0.07954521248004931,0.08476646404488086,0.0942528236918474,0.09000288960077696,0.08402773824615029,0.0835116280293926,0.07458139944881426,0.06510419508045606,0.05569283081796694,0.04358146818312769,0.036124581792033705,0.04578401439013158,0.05571787188261035,0.0596659525725356,0.06820865312849778,0.07747719833353872,0.07672493667868574,0.07817944503395036,0.09788187390163561,0.13341125636198603,0.17345310686636717,0.2139317416556601,0.25416022750508205,0.30057250143832226,0.34349836593164706,0.3873695624460707,0.4367127776951918,0.4794338052598359,0.5235131710675014,0.5729525315174047,0.6224373282630631,0.6719221192084786,0.7208970880346857,0.7609483030992963,0.807958847753127,0.8501657123722199,0.8941342283981006,0.9267876701701447,0.9227578026063448,0.8872833623746925,0.8413482295634194,0.7930954382217448,0.7533484258230869,0.7052838827220569,0.661864421505602,0.6184645473150434,0.5690474188073473,0.5210107865626701,0.48120293363082256,0.4328915816132608,0.3852347911578877,0.3535566327094677,0.30913288393381855,0.26635695651337477,0.22231396446668894,0.17287807829593005,0.12341539006340874,0.07807176182106712,0.046489801146434084,0.04795169607529681,0.05838651398840167,0.06850625425753853,0.07929840063425808,0.09837437926013859,0.10346953361469913,0.0858678562493933,0.055068871665144625,0.029302447466126536,0.04571204968014042,0.07043521045751122,0.07851770483680931,0.07889116181408107,0.07338398705492799,0.08313076116436435,0.08802444243758178,0.0960617015755818,0.09364610028391929,0.08414688648874624,0.07540736778566282,0.07138652709181881,0.06184421000746032,0.041629667502222745,0.020949915414029796,0.009355708314429778,0.0,0.010509673405709297,0.026969544511460386,0.04348309627769753,0.057499936645796224,0.0654348704457044,0.08201946762173162,0.08422069665810383,0.09525069510580342,0.1202142545356244,0.15268738130183657,0.1899840132202293,0.23458956152141175,0.2744040565979886,0.32118875153181703,0.36099987384321874,0.4090096538971033,0.45531376108164023,0.4960950897248577,0.5451628498607759,0.5913029329855881,0.6322059426951885,0.6813264269587722,0.7294051891553348,0.7691268513318281,0.8174835050095601,0.8665438167196187,0.9068994751641681,0.9532023409876587,0.9912853931362648,1.0,0.9676458834043591,0.9363971835021787,0.9035179855437301,0.8559175278729962,0.814670688980939,0.7689996629269773,0.7195259511597074,0.6703377067540641,0.6292521754448921,0.5833603818502557,0.5338855867181471,0.48440078997249003,0.43492804348148306,0.38865998107867616,0.3478890268265187,0.2987604559822006,0.2492772410064079,0.2012406087617311,0.16145097370679196,0.11911665196507082,0.11569195718587677,0.11833349549968109,0.12933372357059802,0.13429235197672273,0.1525419874146663,0.16769917077931762,0.15404167724419304,0.1312247790955583,0.11163046579931124,0.11876318276122166,0.13117951898954194,0.12658301534451333,0.13909064949625538,0.14538355343611364,0.14545887074234676,0.14545887074234498,0.1454588707423432,0.14545887074234187,0.14542814086478595,0.14037007410238012,0.12503658828921083,0.11255059195585515,0.09778308434108385,0.07618403564532583,0.07167891207719901,0.07352002458929618,0.09048657457001608,0.10051160319891861,0.10837032784995304,0.10575188226083987,0.09661677560739124,0.09052233351929129,0.08706687694640713,0.11669782033877807,0.15779758011140244,0.19755712068120213,0.2401419608584665,0.28237592723470684,0.3265650986037363,0.3602242405642846,0.39447131233823374,0.4423431102587623,0.4822268703011088,0.529974373117323,0.5746276657465215,MI
0.2372463341084834,0.2551915396487572,0.2632779262087279,0.2795720219959956,0.2970950860238757,0.2831934055924319,0.27938319637123854,0.27336550720540664,0.25646695837405664,0.2541901331019836,0.22816351088431874,0.19763377883404099,0.18394249219106396,0.15775402248215098,0.1427922882138657,0.1784980874242894,0.2197602421727347,0.2327299023195697,0.2328082749289373,0.2328082749289342,0.23280827492893064,0.23280827492892753,0.23280827492892398,0.23280581106788123,0.22897644065868494,0.21006781209847558,0.20951923579679788,0.2095177728793014,0.20736135166351044,0.18792464389011876,0.18623019666467044,0.18623019666466734,0.18623019666466334,0.18623019666466023,0.18623019666465668,0.18623019666465357,0.18623019666465002,0.1862301966646469,0.18622657786874086,0.1804668814671544,0.1633330076025663,0.16294115753251992,0.16294115753251637,0.16294115753251326,0.16294115753250926,0.1629411575325066,0.1628763131648725,0.1536128779800996,0.132860554330537,0.11574495576020505,0.09458396028981575,0.06360402977085888,0.03309694084138881,0.01274392287641346,0.0,0.01111831217759951,0.041635699434145135,0.07262887320618727,0.10416362849060468,0.1356403048322412,0.17691368861540768,0.20948932996592529,0.23189415924559587,0.2491761364420797,0.2800290440695119,0.31139968374411886,0.3428523812236315,0.37383261972521353,0.3977240929826835,0.41766659189139865,0.4191201260117676,0.4191205879857085,0.41855584908122534,0.40145820022443246,0.395837400523555,0.395170300462528,0.37581483785317893,0.35121727728851226,0.3492593222593148,0.35492717432063703,0.3848274508271663,0.4255773754602057,0.4808585499544007,0.5226484819996466,0.5663139014188081,0.612064658195389,0.6669944710776603,0.7111423181657637,0.7510381517039617,0.7733895589826476,0.8245960114581177,0.8869208468475795,0.9348824623057403,0.9732986698104975,0.9613509097047652,0.9046484250195457,0.8615650020924441,0.8007868410566763,0.7382260888782515,0.6756653366998258,0.6131064324171804,0.553345543452008,0.510018391657284,0.44871136711823834,0.3861506149398122,0.32358986276138646,0.26213375563841446,0.21799742449871173,0.17400266013237742,0.18587271034433606,0.20336962441369133,0.20933175733348763,0.19419887657522628,0.19516856214757095,0.20937896965200986,0.2095192357966149,0.21209512219418825,0.23134784730057456,0.24600979212553176,0.25602086634289867,0.2561003938871296,0.2606123666370923,0.27853578162029624,0.2793863531929359,0.2793863531929328,0.2793863531929288,0.2793360130131761,0.2710477300924321,0.2561747397283112,0.24331274009883064,0.2143008739994543,0.20274440800079674,0.17393689258971845,0.16403430445141742,0.18734605896035506,0.21843966910245127,0.2326825129719441,0.23280827492866862,0.23280827492866596,0.23280827492866196,0.23280827492865885,0.2328082749286553,0.2328082749286522,0.23280827492864864,0.23280827492864464,0.23280827492864153,0.23280827492863798,0.23321057341412033,0.25046114734960234,0.25367835733691724,0.23432643431964584,0.23280827492862377,0.2328082749286211,0.2326796121343122,0.21922503420643435,0.2095315551016963,0.20951923579649323,0.20951923579649057,0.20951923579648657,0.20951923579648346,0.2095192357964799,0.2095192357964759,0.20951923579647325,0.2094108788651976,0.19729571075398322,0.18596576561163847,0.17031301194632809,0.15814594296680085,0.13042867804390124,0.11486130488470492,0.08145961042875127,0.050200834761887414,0.027837124461730145,0.002412401705636835,6.942012228838834e-05,0.01480279540308338,0.04559782582012817,0.07685358456786773,0.10842116297424775,0.1394143367462899,0.17071933017697338,0.20223767390040948,0.23323084767245073,0.2668340216304457,0.30724767928862695,0.33894625735987693,0.3700958471759801,0.3943425597560539,0.395831009883731,0.39583154885333105,0.3958315488533275,0.3958315488533235,0.39469514461251576,0.3762631121076865,0.37080298894134955,0.35129787563102566,0.34516410552854504,0.3265287148727656,0.33820681148650067,0.360920304203455,0.41073287961164784,0.45244461987948537,0.4962914212984968,0.5512523207042985,0.5970628646065359,0.640237898054286,0.6724314976844381,0.7012558973335938,0.7433930986883883,0.7858283861684088,0.8329675767504279,0.8949524362395165,0.9407290297877724,0.9912478341674538,1.0,0.9761411323954503,0.9249805745774067,0.8624342975825883,0.7998753163042842,0.7399857389396232,0.6966992086228352,0.635480328001,0.5729195758225734,0.5103588236441521,0.4477980714657255,0.3852373192872989,0.32267656710887227,0.26011581493045055,0.19761156258437262,0.15031994108904279,0.17412856327171466,0.1861334430832815,0.1862311206121352,0.19012824182001564,0.20759577835360865,0.19182268904545507,0.20646307372331796,0.2095249334750009,0.21631135774978638,0.2324340911360827,0.23582488091209441,0.25470683633695,0.25609700607793107,0.256097314060558,0.256097314060554,0.2560973140605509,0.25609731406054825,0.25537377922930693,0.2376759031735438,0.2328097378459164,0.2282661524059968,0.1982899215329077,0.1631677196981154,0.14166649052303892,0.12080113844734308,MI
0.7763447587110535,0.7417458617795609,0.6938316340605746,0.6448799294729177,0.5999824534413185,0.6002946028973386,0.5948054052711895,0.5932118903560828,0.6042798203921675,0.6046941688108238,0.6046942133523769,0.6046942133523676,0.6048200122018805,0.6138541558387969,0.6097136747217569,0.6048943778052944,0.6172478372096859,0.6432066085693098,0.6796578325903728,0.7153961513984699,0.7670338744298761,0.8096326299566208,0.84388330962287,0.8833131151707927,0.8990126281341424,0.905330063899402,0.8774948572175281,0.8431423247774261,0.8061971619790524,0.7776912737423265,0.7506799401658584,0.7343189044380836,0.7160281035550371,0.6964084889286295,0.6784312000079065,0.6548072033569703,0.6286725220034031,0.5835237954839934,0.5371442736967427,0.48543725005957494,0.4258700970913578,0.38247724810246053,0.3405678635377978,0.28920070684651655,0.22741761972848273,0.1749249462632383,0.11421820392136395,0.10705359263421999,0.1527817519275958,0.20139809119275487,0.24330976607262844,0.3028075294564667,0.3641585056594723,0.4178013900039179,0.48238213736594826,0.5397143679460639,0.5969777652098438,0.6603407733832944,0.7128132553568136,0.774618530116665,0.827046792356513,0.8903515547641181,0.943339519474899,0.9930396593775401,1.0,0.9587580808321219,0.9062153734949394,0.8452601217743916,0.7918606550151561,0.7311431534277526,0.6779861622616097,0.6246728759742366,0.5787928307735801,0.5723830568499739,0.5724350738220991,0.5812470477720191,0.617693046543629,0.6569723409597934,0.7003426451272063,0.7396921409820356,0.7659382834935671,0.7782390349304595,0.7373852508599801,0.6858908126241494,0.6414088118264063,0.6207624888944667,0.6072131327044898,0.6048156765062078,0.6128542768458578,0.6121335946846997,0.620596004041535,0.6232458149370452,0.6272219409278743,0.5988155127249746,0.5731529539440188,0.5567399731156675,0.5592742775865336,0.5726667935017598,0.5875835970635768,0.614760009470849,0.6543798252463109,0.6982205122499123,0.7336501820534655,0.7766416204100843,0.8202341820377876,0.8470660370999328,0.8736130207529174,0.8604958547378518,0.8385164622464765,0.8049503774557976,0.7761171469520574,0.747933219287797,0.7176936676050922,0.6920824757448458,0.6690173328123219,0.6540897271722139,0.6343363634452062,0.6248120559398367,0.5851810055451017,0.5527219531010021,0.5123306327643706,0.45589338024117154,0.4038866158995984,0.3518596581214126,0.29280875082220925,0.2386971334974901,0.17869256709231207,0.12431621701552498,0.06014591754438925,0.008296685936635129,0.0,0.0481783837571248,0.10349956047213071,0.152154805316695,0.19791233923247376,0.2585314949705806,0.31193096172981294,0.37335316486103975,0.4296641165479782,0.487893621156009,0.5478200114383935,0.6025173304758029,0.667362001951282,0.7230034657054434,0.7819369398386335,0.8410916074347652,0.8933026968270457,0.9232047806247805,0.9002432763034443,0.8525482128756852,0.788905102625455,0.7256698581713263,0.6730894707236437,0.6143151943635012,0.5622564316269902,0.5277156723467709,0.5238625748977777,0.5199232566873184,0.5246818883238618,0.5523922243825701,0.5863734871608686,0.6380239117325011,0.6770829777369896,0.7090955825192014,0.7313595948749372,0.7046048965841893,0.6565747422900876,0.6125999011919419,0.570764464783625,0.5563680506316602,0.5618143504198616,0.5605705696176213,0.5592260644951548,0.5715179986845262,0.5756169293715416,0.5877393033673792,0.5885325215032675,0.5885079856218387,0.5835166035593513,0.5742051157370831,0.5865391826926953,0.5943138563582568,0.6307137853946596,0.6628549386502898,0.7019554400018775,0.7388668565226757,0.7833409930553361,0.822384253732301,0.8523407279092479,0.8601207829112871,0.8443214297643404,0.8126815117529809,0.7800975676894741,0.7514122219392201,0.7249645811956897,0.7008570046203224,0.6858175353920029,0.6695149210616926,0.6543924344401626,0.6350926462431778,0.6016538372832585,0.5694356670500031,0.5154913624890693,0.46312086274438125,0.40805241227818323,0.3499427418380461,0.28491143792905627,0.2288550772278013,0.17031167339513242,0.11089324435297998,0.07192619544249412,0.10114137110192845,0.15308608175251281,0.1902745287298937,0.23955637071440972,0.2937954123498385,0.3495674814417047,0.4080252524460821,0.46772337290584654,0.5226470481311751,0.5868124162494639,0.6396279144354233,0.7020377909001496,0.7609995540065384,0.8166280936150772,0.8750772488287946,0.929760413370444,0.9679651852190276,0.9458606064014567,0.8967125805397096,0.8374173991644183,0.7875228189285495,0.7496883542632551,0.7029842107163313,0.648346773487205,0.5931333701538422,0.5645302335383349,0.5709006069565254,0.5723859169203052,0.579447364031926,0.6129147718451486,0.6503317235788146,0.7010106712931052,0.7405685236899484,0.7746743520725787,0.7782775978787373,0.7436381464966884,0.6948791319370917,0.6525704290804839,0.6188611436464715,0.6051671036047539,0.6050061267261668,0.6154852663807553,0.6188460372877058,0.6127013876630358,MI
0.09485041507910497,0.09485041507910363,0.09586351172501617,0.10659776662837084,0.09674615104143891,0.08666954737468036,0.07344552796927539,0.06316352865839958,0.051235126661306474,0.05047121217417194,0.060769637112591646,0.053879405544194015,0.049553705992843256,0.039151636678255386,0.047755305327184416,0.040684642517535785,0.03528199375930141,0.036929847156938145,0.052493783176263076,0.07300357515759703,0.1086295803522237,0.15902005042598732,0.20133556739704828,0.2533279040559311,0.3045051996160639,0.34724457424481336,0.4007042999155095,0.44876454480829686,0.49415572532941665,0.5481372699116509,0.5999501278713946,0.6423140834320931,0.6953619044741206,0.740295927863245,0.7876221392131137,0.8270069549019241,0.8627483180117919,0.8776512736669324,0.8471445832117888,0.8061917782422001,0.7538001856788719,0.7029050121880003,0.6599725711818141,0.6063884089032232,0.5522888485910196,0.5001740660073839,0.457893630001287,0.404881382752309,0.35085609810588325,0.3038579848941385,0.2574047867387552,0.20377450348484993,0.16010020278661763,0.11215039538027671,0.07556111181413927,0.05887349833841915,0.058838458289683704,0.08376833757404922,0.09901828399095569,0.10932342743462664,0.10174219314550381,0.07440876056224166,0.0471647113745397,0.03597522801603681,0.04670301025258228,0.05618375477533544,0.0649339230589403,0.0684155688644359,0.07603968458370147,0.0657972490644525,0.07570613522230074,0.07993924986458545,0.07787837309029388,0.06608617283849938,0.0650537624290699,0.0645691029000579,0.05377143106823601,0.05016060009603196,0.05015547301115131,0.050155473011149976,0.050058514810943144,0.04226683544579535,0.04441585016455152,0.050143191590656944,0.05617502639357275,0.06496736587841001,0.07240986664915461,0.08965868750950756,0.10308914472576536,0.10536889704529573,0.09421511232041802,0.08589592525198064,0.08658213180416174,0.07664230975085307,0.04843704578684438,0.028128827578621785,0.020417215462693594,0.01867659657287346,0.006844510756129019,0.013393107125185821,0.008299057001699417,0.0,0.006589148354112506,0.014784786307818987,0.01025090192644873,0.020052881850923576,0.02663135726880439,0.05973411376650262,0.10002335534390161,0.14081899987087,0.19144566368391036,0.2336462360144136,0.2859839543880862,0.33650793070211815,0.37005451312680915,0.4044629430810254,0.45769768644283904,0.5117987210496588,0.565900049618119,0.6191438834098446,0.6615414796841042,0.7130733899302957,0.7573635967977581,0.8063156662704776,0.8495122551536167,0.8901462024536109,0.9250911698276711,0.9228236068478113,0.8796753104981958,0.8347895811314707,0.7861952393190843,0.7321185111368029,0.6784953430172886,0.6351629939700785,0.5847072694803548,0.5306114940507842,0.47672589981706315,0.4319943316626649,0.38318308505071075,0.32926166648453403,0.28413433091010143,0.23577357888186468,0.1818106800589807,0.13627472771799676,0.08973912962159192,0.06561742772360368,0.06598861027222602,0.08323799786417485,0.10993510940959172,0.12380425391291272,0.10801038459646994,0.09305982769624821,0.06912353856535702,0.03780670753564186,0.04938713816459295,0.07392038096467113,0.07778246569067271,0.06689283847192184,0.07931980735807809,0.08860742362260732,0.07661308424062119,0.07407163543762785,0.08093535161357757,0.0916994526056274,0.08216562332910415,0.0905286539296104,0.09191059552227854,0.08081208549713326,0.090152338443386,0.09641283455100025,0.10866263307073076,0.11956514128870666,0.1246257917209701,0.12466935438755655,0.1299092661366319,0.1387625185787118,0.12785234430827952,0.12504850027249947,0.13597908818746296,0.13953698722468078,0.13943684794710887,0.1341277486222774,0.13085877706693116,0.10609984610411605,0.08645850956110612,0.06833446376913743,0.04748627497082314,0.045327701460103675,0.03959512797677922,0.02643672348136361,0.025819740256035395,0.025392679336531554,0.031062083088403192,0.02842106884900586,0.020452641679871153,0.020377179725005856,0.025206834328715733,0.042734330322640623,0.06670595275574787,0.09796687265148174,0.13447760873898362,0.18457127139464946,0.23866296396800468,0.29276429253646485,0.3464099030140759,0.38946498039148114,0.440176791810146,0.49272035214930865,0.53479354739504,0.5875761163414754,0.6413873407543274,0.6850409827410378,0.7349915766162765,0.7890510937196251,0.8368278712874888,0.882106072536494,0.9249537078603169,0.9655833080752565,1.0,0.9927809272157693,0.9527076814922713,0.9083660005622418,0.8594045890890478,0.805324719675879,0.7513118926973292,0.7048229329981637,0.6578804046594033,0.6038177194246703,0.5497163908562093,0.49561506228774954,0.4415140846602794,0.3883757546913311,0.34607179729086246,0.29410682532566934,0.24077790212722094,0.19834978770300227,0.14794886595424384,0.1065940512371828,0.08196247436527582,0.09285348210678235,0.10329427572641414,0.1276562832306336,0.15186522938639424,0.14315537060560812,0.1216064064273863,0.09955717350020876,0.08426297378863801,0.0726832932347099,0.10157434604719962,0.12136290266364025,0.1048190676863876,0.1104910593879711,0.12277178987829052,0.1115866150530671,0.12094250557504704,MI
0.13456918219311698,0.14249256325033466,0.14268147569080503,0.1574073890667269,0.14471334562992633,0.10908748353252706,0.09432080937510978,0.09345005765810477,0.07525142503243654,0.07009945091911085,0.0700897387231878,0.06567913837292094,0.04683261593082255,0.045956440442005864,0.04595617828397103,0.04474575749800147,0.026605548386517075,0.04925285350129904,0.08039377197502873,0.11603009804093878,0.16331085090834074,0.21883127552007986,0.27194135142440556,0.32560229884013525,0.39229196250340914,0.44713163625836705,0.5148012359430374,0.5760164301528081,0.636838828353445,0.7088183938737775,0.7630261505650036,0.8315261038629171,0.899528352957327,0.9490505355873728,0.9831180101878654,0.9623982222810388,0.911700162598589,0.8406328044959754,0.7762148377975584,0.7185942707917614,0.6457799433920637,0.5731725181688474,0.5177979772697028,0.45094929950713647,0.3810585842380507,0.34338185657788545,0.2834951052273955,0.23034244257477754,0.1584233472451113,0.0854387272189232,0.01756187508833129,0.02240786030765074,0.062103218199286214,0.07007642532538805,0.06907233464334928,0.05329979246205241,0.0682009825661769,0.07013304284312927,0.07954762691401829,0.09716960075441605,0.11673485155623675,0.12849266099494017,0.1526227366393864,0.17693097052410733,0.19038145747981128,0.17520985536096267,0.13931453034648245,0.0980433323418004,0.07143700830748712,0.09354116381851796,0.1172106871817098,0.11837806816879137,0.11837831224695394,0.1183783122469495,0.1183783122469455,0.11837831224694062,0.11837831224693662,0.11837831224693263,0.11837831224692907,0.11837831224692508,0.1183776252120814,0.11592491320093723,0.09573183850412148,0.10020543911457969,0.11534880869198627,0.09542524886853654,0.09423768831188184,0.09423764311221738,0.0936615838029331,0.07572967520198004,0.07737919702428897,0.09390229533082106,0.09423768831185919,0.09423768831185564,0.0942619165429246,0.10255121334997508,0.1210196904620604,0.15740249295127073,0.16941059320370266,0.18892848190472789,0.19078924773714379,0.18560858779507727,0.1672289194300185,0.1536093141165007,0.13691742788144756,0.11884415168485685,0.10472040259385418,0.0940654362584099,0.08022185862720654,0.08134580798109203,0.09232539654254168,0.07314090551142005,0.0632044783558352,0.046417435840115484,0.04682177497670903,0.07035132627493557,0.09819646857192987,0.13624094653306384,0.19186328198424407,0.24067044304626561,0.2974574967999408,0.3522566470745985,0.42346752445400826,0.47662009670730354,0.5365068480577952,0.5741835757179579,0.6440772922444986,0.7158652509007548,0.7685006512727077,0.8387560567759418,0.8965044598837575,0.9589014075668962,0.9941736154613259,0.9999999999999996,0.9571960842106857,0.9046537149795237,0.8326631622853706,0.7638527118253164,0.7099025257238663,0.6378277378602824,0.5648467382805404,0.49665272601899213,0.44218739873798585,0.3700088158517887,0.29701892936591046,0.22421039421213385,0.16418041161898467,0.10215178353706955,0.04050316602468662,0.05588951695599054,0.0883873492097722,0.09422536665057457,0.09429643203118987,0.1057537114500735,0.11821835558811955,0.11837831224675188,0.11837831224674789,0.11838048183044592,0.12325591048041229,0.1543286546849134,0.1665501822802189,0.16444795261130407,0.13427233074030598,0.08595728682064907,0.04812285895118773,0.05995547841200777,0.07577560776502557,0.09371446533901073,0.09423766119189647,0.09423768831168822,0.09423768831168422,0.09423768831167978,0.09423768831167578,0.09423768831167179,0.09423768831166779,0.0942376883116629,0.09423768831165935,0.0942322361605572,0.09028396445916886,0.07105108613240274,0.07009706437662722,0.07009706437662233,0.07009706437661878,0.07009682029844821,0.06893926296886876,0.050334367219724285,0.05551105705884174,0.06985580795879942,0.07009706437659702,0.07014356066467986,0.08047793032186457,0.09773141162934307,0.11692966238947644,0.11837796872919437,0.11837786928993754,0.11663881394006381,0.09704475389284939,0.0793229506534896,0.06308290836995845,0.04639095372825608,0.04395253445371994,0.02429496083497984,0.019706870640753493,0.0,0.010948419321166192,0.02181072691695185,0.035501788243038845,0.04588905339105187,0.05163410155996395,0.07067294592176898,0.09835150509106239,0.1464845396748209,0.19521405051868923,0.2576718070064534,0.3103437850127855,0.37925240703199625,0.43207731561592455,0.5026409218188612,0.5756296963930914,0.6466003190180492,0.6955030517877465,0.730967594887503,0.7951635274883597,0.8597407988506771,0.9146686122696557,0.9557886327948801,0.9583199377916594,0.92135653521825,0.8579336073178543,0.8032126259126708,0.7309821455151684,0.6581821682307765,0.5983502895395012,0.5361021600930633,0.4631632235066765,0.39018846893609505,0.3235355521708114,0.2677823719409127,0.1953447715746477,0.12417323562322569,0.07096954196456551,0.03812129543206133,0.07773369548793863,0.09410401297565452,0.09423768831150658,0.09424007485357455,0.0993920489668918,0.11759068159255426,0.11846143330955172,0.132167614868679,0.1425408082796893,0.15783409709470897,0.19357825475184365,0.21444238847274866,0.2069910449576251,MI
0.012371914348893842,0.0017724640780889533,0.0336996404759029,0.09457857650728396,0.157835519151464,0.21603956907185973,0.26965209392221734,0.33148009818269264,0.38261668801830906,0.4233663895514663,0.4452359267040471,0.49591456173456683,0.5575172348430795,0.6083480567651214,0.6583581551794895,0.7005404883037776,0.7271616359768696,0.7504040415220623,0.7690675418800419,0.7945512774250583,0.821732822920838,0.8533546604996785,0.8893666646958862,0.9318038358978087,0.976717796335798,1.0,0.9831936860873816,0.9527399233160256,0.9173448158546922,0.8795508570319877,0.8356891050283495,0.7961622193316775,0.7649746709218141,0.739727925688221,0.7158517960163038,0.7065533631815604,0.705757319165004,0.6887187447146697,0.6584721417846118,0.6429911420772267,0.6351608076289574,0.6677528358342926,0.6967263685414364,0.7280601914859544,0.7420572329884214,0.723607738313961,0.7213188048156947,0.7120757952910308,0.6931355925003846,0.6768413536888698,0.6408256121113212,0.5902703366174751,0.5285931825008148,0.4710398608549613,0.4168353696103715,0.35538475535474223,0.30511152759146887,0.26615085115339854,0.23620625970243636,0.20282794727774922,0.14672115485043902,0.09931661551241011,0.07507906728228697,0.0901270532803653,0.1409214927946687,0.19233645712424963,0.2542562459345503,0.31119242657937907,0.36595718836975877,0.4284400212616677,0.48067465394795006,0.5378460928948408,0.5894946904715956,0.6450002286543706,0.6984738993791311,0.7463950717326262,0.7663792695953733,0.7742570045276467,0.7964674869648904,0.8232802059266011,0.859227968489447,0.8872133436591856,0.915114782966584,0.9468328074712082,0.979651030515893,0.9666693689797503,0.9241437270111517,0.8857314458467469,0.8469799083343994,0.8069427918794672,0.7676533478999255,0.7281479134975672,0.6899730169710656,0.6582058953600196,0.6363830672490649,0.6309589053914619,0.62117899596582,0.5999329311346542,0.5884575477523999,0.6059142598864264,0.6405296979246065,0.6724493674844112,0.6955409170020435,0.6858047021679341,0.6764551106078072,0.6722240034097942,0.6518162024739418,0.6300678950791623,0.6131234706014586,0.5774290328298672,0.5195116564289326,0.4607102091077646,0.4076908195530078,0.347508534269517,0.2957402969300662,0.24102944731485776,0.2059720906722886,0.16580957209985803,0.11293138607791109,0.05878411363016989,0.015956957065724975,0.0,0.029010636506987098,0.08009204580376017,0.13832485543008421,0.19140334704337914,0.2542557145835973,0.31119242657939195,0.3659573212075147,0.42910740924471025,0.49001637179520197,0.5415857540773499,0.5974971190086826,0.6478066427937748,0.6765175194676609,0.6951565002021574,0.7129414662731328,0.7409363340912285,0.7708867422761552,0.8050713749028056,0.8367264587736609,0.8666089836717572,0.8985721879944428,0.934395972021953,0.9394773535368803,0.9105664924628063,0.8789252617094041,0.8467026212462416,0.8068941707827446,0.769117567192489,0.7412031119273861,0.7253016375027661,0.722624501120289,0.7288322525243016,0.718325316373086,0.7072824930069697,0.7185289003568989,0.7433506973191237,0.7577710645094964,0.7313107001240087,0.7046326635911089,0.6917943417498513,0.6855589837980332,0.66139668239137,0.6404561755202187,0.6250562838294762,0.5766492363568152,0.5134986110473636,0.450261859208974,0.39340514617602285,0.33854381414228296,0.2799019056889578,0.2328012573420002,0.20609713969024224,0.16709911731894,0.11412533318274543,0.06808956994338922,0.045004922736900266,0.0671232612703534,0.12769882831635626,0.18590128418384944,0.23951434038517583,0.3024658122996624,0.35868885637031545,0.4141196935831899,0.47221499062033834,0.5255539250025936,0.5788121962332928,0.6354991698590742,0.6862338328354971,0.7357425962880972,0.765315571453181,0.7667256728270608,0.775382379286075,0.797258700544305,0.8250984988762418,0.8578240827018848,0.8942005320282869,0.9315295055679433,0.956736934648478,0.9405232828434946,0.9085756629470811,0.8706362102045873,0.8268904715000862,0.7800737541948828,0.7448375214708767,0.7131668202290027,0.683906954394867,0.6762995272203383,0.6762453494428526,0.6762453494428526,0.6765268153054262,0.689525478368394,0.7145942940449879,0.7426394640582799,0.7475978002092765,0.7370208408390253,0.7357806542853318,0.7174577253334502,0.6925978725831254,0.6737032031936137,0.635340457984277,0.5744896883702388,0.5227701377583109,0.46357534703694014,0.41205730390391704,0.3526693555221305,0.30208573498314983,0.26108766834493213,0.23285082074652297,0.18016059833008202,0.12921037300141847,0.08796727634679913,0.07979587808703803,0.12338277854305968,0.1762917162776927,0.2334777129376162,0.28762466953826316,0.34916419035084933,0.40059178417363883,0.46204279694249273,0.5162472881870821,0.5737364694902958,0.6299310862103851,0.6834087610512505,0.7339760484512166,0.7813942342619526,0.8094657145637312,0.8156958646147427,0.8285984170223317,0.8501622577133308,0.8781808286627726,0.9190938660704879,0.9546507877993813,0.9901194651616594,MI
0.09528174268491363,0.14892139568709772,0.20692503569531862,0.2660697680911782,0.32372920779399517,0.38548310228146276,0.44110858931727803,0.49625770339179287,0.5373170292739752,0.565944901947878,0.6148956917998983,0.6724867900136547,0.7140945757226541,0.744425034590955,0.7752010077560388,0.8117094193975244,0.8573607488371157,0.9012617726690969,0.9463804480898296,0.9848930667316637,0.9743976835331364,0.927677688352036,0.8743320760222361,0.8248838505670263,0.7742434934256827,0.7222401434763096,0.6746727524912196,0.6351003177752791,0.6151395700166377,0.6204899595842223,0.627952851300655,0.6305612455254924,0.6326435531788749,0.6320886426375182,0.63354998073015,0.6590431280103907,0.7132801560781831,0.7701145267522186,0.8271900931320767,0.8699778692801584,0.8416895158472054,0.7839787535484691,0.7208295576019573,0.662119692257651,0.6039140660337522,0.5408943106717664,0.48353974278329936,0.42471367554975414,0.36935495163862087,0.31697621871792425,0.265820814947639,0.21192059214379533,0.16049705740118803,0.11150698394418257,0.0537144370909598,0.012509767486948098,0.024593867729041374,0.07483523108863788,0.1307555404309958,0.19158303596825166,0.2476128525744291,0.3085790161031655,0.36447272575474476,0.42624146776415694,0.4822079075053233,0.5425537138194175,0.5979637984471432,0.6531551712462494,0.7047578026635141,0.7402469606801573,0.7686560279447282,0.8039478805243484,0.8427609008555293,0.8890774177571169,0.9333815522324939,0.9801459077567455,0.9999999999999999,0.9653083475748668,0.9150035275691292,0.8604411291351671,0.810830030987921,0.7609447641468526,0.7103342103150329,0.6629050003123053,0.628353788721849,0.6266985782011237,0.6318136298556746,0.635476362542816,0.6317475403255844,0.6294431149608296,0.6228516221180399,0.6306225789400176,0.6576034503433431,0.7105834316849692,0.7701584491900374,0.8266834459110587,0.8714015522817325,0.8402178898294833,0.7806956934647461,0.7237454006017133,0.660715121399316,0.6006730014427516,0.5436874858423212,0.48161651778184467,0.4260762666277452,0.37099767125410865,0.31950117499964537,0.268571108836441,0.21479247594202533,0.16439517671279058,0.11453902547207317,0.058261637205022754,0.027192768336771866,0.055547113602713805,0.11159766262170645,0.16740785726204865,0.2246471385030614,0.283550695323984,0.34182054875429657,0.4003746642427085,0.46040945439665004,0.5172701933422065,0.5760731469870645,0.6290661904254781,0.6800571062519724,0.7178078434072953,0.7490599189573758,0.782042262270047,0.821408017644612,0.8668766118295955,0.9143150954437506,0.9582740967147682,0.988208139947257,0.9628820831708073,0.9170839748134837,0.8627178793077538,0.812823145906269,0.7623866125186597,0.7134761753630595,0.6666447807133206,0.6313482336734976,0.6258463124983619,0.6334113054430494,0.6464365944238085,0.6550297689251595,0.6525760238602806,0.6526003202913396,0.6455333414845391,0.6618529983711817,0.7076092519142633,0.766754736678758,0.8282991160613441,0.8841240008781982,0.9299539878507618,0.8960984031976232,0.8401019465171914,0.7772619311300449,0.7163738187098673,0.6600427789751916,0.5972219971317377,0.5376475718051003,0.48075389449447636,0.425298287110229,0.37324341044066933,0.32385711542827156,0.27183727930362844,0.2197249390289283,0.1695331742897238,0.11560837608147223,0.06212050391120216,0.052233729812637075,0.09776024177835396,0.15374149908043522,0.21043190996144345,0.2686375319383011,0.32449870547993964,0.38667139099058867,0.44336563361208514,0.5035021482488619,0.5604371612116882,0.6160426334907231,0.6670584252610036,0.7120505406917258,0.7446083182522639,0.7749058250639164,0.8102402223648423,0.8519696212921181,0.8993651654238496,0.9423544501602866,0.9718836236550316,0.9459603765417265,0.8967153691858306,0.8433362470290621,0.7932048139508213,0.7430265886656252,0.6935449373125276,0.6493429920669757,0.6231533264708661,0.6125649199891215,0.6130173989524185,0.6238221789042203,0.6234789969404891,0.6174564711587921,0.6121017307475501,0.6314485342423429,0.6755990306790577,0.7276797734628287,0.7837438750769191,0.8371902154285026,0.8185955524259557,0.760834774063991,0.6976842537427995,0.6394132303531571,0.5807671244257392,0.5176180676989662,0.4593954269516122,0.4011950120314133,0.3461914612175875,0.2943639799910508,0.2415645094613893,0.18878895019942277,0.1376426362335309,0.08944497467294055,0.03886396385076918,0.0,0.021507294509203412,0.07736561357847316,0.13373687114957888,0.19172222192941224,0.25017280490107574,0.3088960611744881,0.3669434094367837,0.42605405757052617,0.48363078005070526,0.5381444960553511,0.5793295809841871,0.6301613741868958,0.6757765516219844,0.7090118522202248,0.7400729978894726,0.7758117538407071,0.8142489060691408,0.8625638936077059,0.9109377770339654,0.9468974074472826,0.9336626034867553,0.8907246214591017,0.8405379569233248,0.7882044885194864,0.7333491774524413,0.6839334091643964,0.6405800992408118,0.6080324516143184,0.6080830503420999,0.6166194086948106,MI
0.3216757521014322,0.3216757521014353,0.32167575210143884,0.32167575210144195,0.32167575210144506,0.32167575210144816,0.3216757521014517,0.3216757521014557,0.32167575210145927,0.3216757521014624,0.32168285830643084,0.3277817345754279,0.3428911472497935,0.343248731430116,0.34324873143011914,0.3432487314301227,0.34324873143012624,0.34324873143012935,0.3432487314301329,0.343248731430136,0.3432487314301391,0.34324873143014223,0.3432487314301458,0.3432487314301498,0.34324873143015244,0.34324837777341477,0.33954028385819246,0.31055579899494656,0.2722420104952765,0.2428779480209724,0.2355982059834263,0.25563220817581156,0.2954173482825029,0.3316882175337357,0.3432216328230968,0.34324873143017776,0.3432487314301813,0.3432485349542169,0.3412770978159201,0.3233864694467363,0.32167662900253324,0.3216754770352006,0.31847361744280844,0.278196586809917,0.23583377562162422,0.1816806096243977,0.13760227515988976,0.07825862074924217,0.033199730013994344,0.0,0.007113654100532774,0.046657197581856824,0.09948929444357546,0.15987840713675672,0.22025571584581227,0.2733732981376802,0.31974503103773344,0.3799227962888998,0.4403271384090952,0.5007314805292915,0.5611358226494869,0.6215346158907136,0.6770463351814273,0.7212644611730425,0.7811802118016309,0.8415845539218267,0.9019888960420221,0.9622703404793862,1.0,0.9693041642725992,0.910617210872501,0.8502137456532868,0.7898094035330918,0.7296316382819241,0.6832599053818731,0.6301426767467482,0.5734520228695157,0.5298948405181547,0.47250087431688037,0.43008283818539406,0.3846997867163173,0.35398797722606856,0.32632001633255703,0.30621430412587136,0.30010987897790997,0.3001027727729477,0.3001024977065967,0.2972734517215385,0.27990465589051405,0.2785298425633109,0.27791019464142286,0.2601583085006638,0.23745648052108637,0.21321033833232184,0.18810692884344382,0.1703863740413638,0.1412429580074379,0.11059416548016365,0.09025793397046744,0.07011753935541032,0.05828233764335655,0.042072098147719394,0.05358931580441606,0.07400667342834621,0.10422488911007965,0.1438507208480857,0.17493182637507187,0.20528134887684457,0.2429034700975241,0.2764672386671987,0.3064794813449616,0.33558589938295524,0.3554920711565619,0.36480054674188667,0.3648217107589362,0.36482171075893977,0.3648217107589429,0.36482171075894687,0.3648217107589504,0.36482171075895353,0.364828816963922,0.3709276932329195,0.38567952172696485,0.37093012745990306,0.3673113671413679,0.38528074391049305,0.3863945722020339,0.38639469008761784,0.38616811321859235,0.37213550399845197,0.36484874417012625,0.3648005467419422,0.35550730058363866,0.34339065610055997,0.3432487314303563,0.34324873143035983,0.3432484563640088,0.3404194103789502,0.3230504966623453,0.3204662854858653,0.28915151894034485,0.24917531483748467,0.21598732525238873,0.1936207216820347,0.1947484250336351,0.2217285260710371,0.2608433042038554,0.26885760261282243,0.2571011730130084,0.25943936429326264,0.2773887486602735,0.26747891717111383,0.2570604416996862,0.25695681411583804,0.25695681411584115,0.2569564604591026,0.2527809390693192,0.21654570357951197,0.16859225106724418,0.12236580308435085,0.07381665507832391,0.041303716358656484,0.025702880565252162,0.05565669633482129,0.10363145664128304,0.14960696901098647,0.18100145342355667,0.229015765048441,0.28925083472574187,0.33982079649966224,0.3693769066705399,0.41339086767338706,0.4662299430306933,0.5266190557238737,0.58702339784407,0.6474277399642645,0.7078320820844608,0.7682363750856651,0.8278604067581994,0.8532985945187894,0.8033448305022746,0.7602317424623459,0.7063428157171825,0.6633113788665677,0.6053956390699238,0.5629682219947427,0.5087309257231842,0.46802025653490764,0.43382247115386763,0.4095899234087721,0.3951814397171374,0.38646002058521844,0.3863946900877253,0.38639469008772886,0.3863913298407806,0.3818496405052798,0.361837854918754,0.34393020391634055,0.3277725085053844,0.3158377843093345,0.29589827598962426,0.26769362568477195,0.24002790254227113,0.2179506353117051,0.1928417535030187,0.17314832387976153,0.17017873953671625,0.15399013830015296,0.14980064847129704,0.1664883755258555,0.1881106256826972,0.2180778341515568,0.24739224242110858,0.271213591951577,0.30861012274188404,0.33902932079139836,0.3703216272280474,0.4048841952925706,0.418489615290933,0.42951355013799164,0.42954064874507303,0.4290520572534682,0.41286584112489066,0.4079732182954112,0.4079643091694929,0.40342297349073375,0.3870978427360301,0.3863947392068039,0.386394690087815,0.386394690087819,0.38639433643108045,0.38270768159926094,0.3658607183063971,0.36482166164019736,0.36370776458207477,0.34573128160799005,0.3432511656575348,0.34324873143056056,0.34324861354498326,0.3421347852534491,0.3241583022793635,0.3216781863289091,0.32167575210193444,0.32167575210193755,0.3216757521019411,0.32167575210194466,0.32167575210194865,0.32167575210195176,0.3216757521019544,0.3216723918550062,0.317103603912428,0.2860469945281534,0.24842730753445474,0.218087197755247,0.19398274291521123,MI
0.36718442116155225,0.38643912972207106,0.41686040802308844,0.45833584914230174,0.4908515461187064,0.5320994557337921,0.5511752855504004,0.5475268409970115,0.5053564651206384,0.4440310683803186,0.4005662911957022,0.37517042359014097,0.3742019725721648,0.37420197257216214,0.37420197257216037,0.37499411164389995,0.39390680873918305,0.41761682396469224,0.4525338553437943,0.4955091645482983,0.5461741618803715,0.5893718677201503,0.6324840365157747,0.6707320449164516,0.6653409681458133,0.6234163861980657,0.5844399886501432,0.541331934451112,0.49632688434982564,0.44285002257274675,0.39928859546198714,0.35616511464096634,0.31306913831748284,0.27518424229623006,0.24642858431617887,0.22187107945301987,0.20018228736759314,0.18560538293252993,0.18460840419188962,0.21793755370426338,0.2088298458194866,0.1870633378437616,0.216088535871227,0.28264832568890297,0.361346863598651,0.42995408061498486,0.5156433456916534,0.601889194159789,0.68792699872643,0.7589035052222592,0.8118533578368283,0.8102920771584192,0.7628369471401704,0.6856384233876436,0.6200900791661099,0.5359627051967624,0.4586701881038455,0.3936528560527166,0.32950853087864784,0.2698979407656412,0.2520902341407951,0.27156730725442335,0.27295563601085027,0.2852664344958602,0.30045641534622325,0.3267345390955607,0.3702424757430154,0.40676680230170925,0.4495813030749809,0.4746040885546958,0.459373146612156,0.41481370081433555,0.3577955851974619,0.30893797277444035,0.2987111764165413,0.31657730377270665,0.32353460231655307,0.3332081102515203,0.3501240857768253,0.37088127645634694,0.38679613431974014,0.42243988400390586,0.4513302987072545,0.4888335195127378,0.5416867395680591,0.5910694862804733,0.633375479115108,0.6523289873684157,0.652258154394016,0.6291696971715832,0.5863384282138209,0.5432292072546283,0.5045857779741936,0.4665227210242455,0.40665927476392527,0.371102790718417,0.3454883940144451,0.31172789753817787,0.28951475701091534,0.2731344999198453,0.2780241616209129,0.2973555204920255,0.29835272375667854,0.3184107126224478,0.37755129649192876,0.45542693732089434,0.5224214284659845,0.6076944279156531,0.6802869937210745,0.7548098172251687,0.8206988262282029,0.8696430006277436,0.9032988522575143,0.879478989651084,0.817241581195328,0.7353551260917404,0.6697612992873361,0.5921663830148955,0.5247462859380181,0.4578302307601656,0.38554035681127496,0.3348799208995268,0.346557387673045,0.348888411762609,0.3584211144387095,0.3754232219140792,0.39875929148782463,0.43401939465662087,0.4664143391890998,0.5078243796672548,0.5404214252551474,0.5816203967418656,0.6012901926455121,0.5811857041037309,0.534160373491765,0.4768167318032819,0.4317657500406722,0.42617206473043057,0.4461431261718469,0.45021871955565684,0.4561973874523688,0.47543920518918314,0.4956746734934341,0.5293770602564041,0.5621585905184818,0.6031299391883302,0.6462581293871188,0.6893614161584529,0.7249827953985437,0.728527361612167,0.7094133948188408,0.6748173864524225,0.6364543893661128,0.5933501490396744,0.550219991427944,0.5070944121869858,0.46400841180028296,0.42853648519697396,0.40285885744213834,0.3735103115843308,0.3518417883294558,0.34960975682197004,0.369615800276351,0.3958060911073855,0.3837695199070654,0.36015797261978433,0.4094878297641009,0.4871685113919475,0.5709644405658358,0.6366492559985502,0.7205283227296673,0.8059600738433761,0.8734690489625145,0.95136952399382,0.9999999999999996,0.9939575162804908,0.9247161311260359,0.8573799187101909,0.7763447158281473,0.7098856495906731,0.6282808978840957,0.562428278314258,0.4860013116877915,0.41793603656160494,0.3869811873437752,0.40134318957308457,0.422124906800041,0.42489492189425215,0.4332303844346659,0.4425726649893771,0.42532930142016623,0.435890675461001,0.47598599956028353,0.49885643002804736,0.47200044707436417,0.42196585902365724,0.3647707429885192,0.3151436603104272,0.2746724501695801,0.2555887225179867,0.22071017989873143,0.19824896297957695,0.1985659082944724,0.21406390311438317,0.197889011414063,0.20404841775637328,0.20826628967677463,0.20351134857569297,0.23891053835056253,0.2803048478883885,0.32763766338848965,0.3707870237018027,0.4184881859999803,0.44943774237997003,0.4423060507320984,0.41372159517127427,0.37226299186037126,0.3226342304123446,0.27341682332528583,0.23027466681381314,0.1871589596848371,0.14403032819669637,0.10099272269523762,0.06598899815226833,0.030175737964523552,0.015262676734320468,0.0,0.018668192796962746,0.05044574149701031,0.10777232594712016,0.1202947990823362,0.11941158040089483,0.10244174511083681,0.050095258560935996,0.008792755471498825,0.01951125207390314,0.07769604060346635,0.14350702324928255,0.2256121009476506,0.3115989417399727,0.381984917628444,0.45906104212913723,0.544934818194784,0.6140106778335004,0.6861335632760652,0.7240372890684701,0.6828923657852708,0.6015343613895765,0.535572070492377,0.45084668482029455,0.37610543532347807,0.30596601526561384,0.2406612286082992,0.16976782150316128,0.10849532370896897,MI
0.03162655417591553,0.03162655417591509,0.031626554175914645,0.03155112623305456,0.023785588173228067,0.024409262772298934,0.031525878915679595,0.025757316430369936,0.016575585483161515,0.028662160300943373,0.03174433948723632,0.042056753724692975,0.07144235691095702,0.10961078633146482,0.15184649125183913,0.2017629795906939,0.24483697828712492,0.299220256424257,0.34813884523361693,0.3954100015688611,0.4511692411328929,0.49766425354781996,0.5474421020293629,0.6033989354679941,0.6560435289345272,0.70003455662822,0.7554801013417785,0.8114855409566442,0.8674911236245029,0.9230423741873555,0.9662761658070766,0.9975613749151702,0.9966364877759903,0.9614538646000272,0.909955121385936,0.8654936561520961,0.813415291969148,0.7574201063352377,0.7034864710706898,0.6602280853514526,0.6053397046945461,0.5493344095849872,0.4933357597481134,0.44118860574185126,0.3968214672467987,0.3412511677308574,0.28525295024631436,0.23332283882990268,0.18880409359847983,0.13348353115790568,0.08822256786790073,0.05186938669522334,0.047829107856337316,0.058971411566947296,0.06376558784780162,0.07814258295894128,0.0947759593537354,0.09538273879814829,0.09526217749341948,0.08448723021921234,0.05806532780133011,0.048672469016171505,0.061216701200955015,0.06351898919445143,0.06885466017509279,0.07916897796765232,0.07944376035675305,0.07899981309042214,0.06808855432897021,0.07578364951024152,0.07608486969469119,0.06524099453357879,0.07741131680452229,0.07740398119337799,0.0646542983439109,0.06751631674275682,0.07898758430411279,0.07944375164286122,0.07955010816645292,0.08817121882146672,0.09532035679431505,0.09538290944510885,0.09538290944510797,0.09538290944510752,0.09538290944510708,0.0952969171600393,0.08683899461110389,0.0797395070422855,0.09072455317045991,0.08900652504198181,0.07973950704228372,0.08894571860087908,0.09167702404620215,0.09321514786180041,0.09539464691932453,0.1003763271055047,0.11100928216865968,0.1131240809482792,0.13365733639199284,0.15496022328553583,0.18146259200004833,0.19632270330250234,0.20477593744518696,0.18405753593607432,0.1560168305558216,0.12315942849629469,0.09593986209274785,0.08040558974889134,0.06403673163475698,0.04779385005388992,0.047565642993186774,0.047327486691943754,0.037314229523372155,0.03164599344423946,0.03162655417588178,0.03135986403992508,0.021112448608249235,0.015705480203683564,0.01592727384840975,0.02958354533857044,0.06044749524320858,0.09979371018367278,0.14165621705098808,0.18809655960681404,0.23510298555888687,0.2879996593545986,0.33170058821006565,0.3870676792913956,0.44156141878679644,0.48464012713028914,0.5391462490789491,0.5949904111904472,0.6413978867408052,0.691266957954833,0.7471785706773004,0.7956143798714326,0.8433830600256562,0.8982739931523556,0.941516276981059,0.9862202890096099,1.0,0.9764087139462867,0.9334653687811483,0.8776796392214092,0.8216741429662724,0.7661491677819989,0.7217429271173175,0.6695890656965577,0.6135908146994207,0.557585232031562,0.5018361488444056,0.4559943536571134,0.405489049277596,0.3495019901774308,0.293535850661788,0.24348433398278901,0.19725193216156667,0.1414262988004733,0.0895893632129936,0.04570732489117457,0.02365817762343525,0.03294486062047586,0.046822036263936884,0.06099040508062048,0.06439268412165333,0.08209364460655433,0.10666801016966687,0.11625124730477543,0.12655629539235003,0.11488925474406697,0.08891286819346522,0.07946987802665939,0.0794438206277821,0.07944382062778166,0.07944382062778121,0.07950949694484555,0.0873643788067171,0.09530616095944788,0.09538290944508265,0.0953828302939339,0.0949124062040303,0.08336629663303041,0.07945138145051844,0.07832706247718235,0.06567673060258272,0.06350621317141192,0.06476703965155517,0.08391687723541441,0.10414318551878887,0.12475059390056353,0.14657920419059467,0.15868331724777773,0.15247486143939204,0.12101036391278397,0.0904500027601185,0.06271856664960396,0.04165822194431268,0.03178384185323857,0.031626554175861354,0.03162655417586091,0.03162655417586002,0.03162655417585958,0.031518838261876514,0.02257601886749505,0.015700383979365462,0.010936670172804863,0.0,0.0031516691414883446,0.017021636896987324,0.041693129663594064,0.07879270905062352,0.11875703798397552,0.16078580357833694,0.21461643167001832,0.27061883953112487,0.32550722018803135,0.36876560590726815,0.4226992411718151,0.4781353493800138,0.5221992744023245,0.5747805135882866,0.6307788575642204,0.684334437866486,0.7272667245947222,0.7642614614932883,0.8069325741819275,0.8520819920256009,0.9028385779334234,0.9473015655869266,0.9800117075542141,0.9777427339419127,0.9401187218800797,0.8971181293614792,0.8426397357829472,0.7987978257058264,0.7459770720177317,0.6899777055135177,0.6364972898838901,0.593061449912256,0.5378957693748716,0.4818901867070138,0.42588460403915507,0.369879021371295,0.3138734387034372,0.25786808041819187,0.20269910476711717,0.15914176526056822,0.10580961321502391,0.05541686187271111,0.038452885900610134,0.05100579637005831,0.06307360744470492,0.07163158563058314,0.07945329503766185,0.08722347002434994,MI
0.9754748320054407,0.9353378599848363,0.8942720469429402,0.8561166035237684,0.8125772895386785,0.7688117468275264,0.7263093016921074,0.697134576652251,0.6628375919584688,0.619399551780738,0.5756333001495175,0.532582922574868,0.49532649802329565,0.45288191044509096,0.4091256707023385,0.36742196991137854,0.3297887262981867,0.286423297634673,0.246667196547103,0.20731553767946798,0.1664115884083961,0.15224264889987915,0.1582180938864457,0.17180529144674672,0.17500636492706012,0.15867764075426072,0.13889067014899026,0.14121181486346823,0.1431886899326955,0.14319630552637386,0.14318920988253248,0.14127608432486283,0.13795061334497616,0.14080782106233292,0.13506073849253486,0.14009108331242737,0.15023974785137906,0.1584993443741074,0.1626841316447547,0.16270232258408357,0.14525856610486065,0.1198573028919192,0.0932336530344271,0.06414805596400996,0.03665694730000135,0.015223369411994536,0.0020155215472923427,0.012729113519731161,0.02731620391165923,0.03798834952989294,0.04442539139380686,0.05651975120373742,0.06388260822138458,0.08426758701572834,0.11426003752175529,0.15058281691236086,0.18986962467312196,0.23328112295659542,0.271208651832046,0.31253443422659166,0.3543646846484776,0.3919181685319233,0.43527492859811634,0.4777745482140192,0.5150147146185795,0.5580260555343328,0.6017879919717688,0.6438465649835405,0.6812373779088909,0.7245405806189533,0.7678403931902942,0.8053294303352381,0.8472949700361236,0.8909827621818094,0.9304305980070695,0.9697773458787329,1.0,0.9889995263611016,0.9519164136353586,0.912510812944443,0.8728810793375845,0.8291860075677779,0.7880274713090238,0.7570062365239272,0.7180242012681168,0.6907810172201478,0.6530173717338634,0.6093382112724228,0.5655769158559474,0.52354591642758,0.48609293089969663,0.4428228616425698,0.39905619465049735,0.3552893634397143,0.3115229092599021,0.26839445836746134,0.23111053336633192,0.19045405868685905,0.15684048002122086,0.1504981423822731,0.15408723349541775,0.1688199426713024,0.17404674161789435,0.15880569299172542,0.13574635785317812,0.11935645595899946,0.12311803987143377,0.1275039564282341,0.1340054087449778,0.1346482541249474,0.13640129900024656,0.14030146027854573,0.13349858381006885,0.12664928054224966,0.12175282821158828,0.1234846314320952,0.13258649469457384,0.14257423196529606,0.15224497082337618,0.1596366914644738,0.15150090449795162,0.13193114403859774,0.10759415509151671,0.08225002007855386,0.0551130449692252,0.02561237151133322,0.004114367676039343,0.0,0.014388731293280888,0.029235435763420137,0.04189227423174957,0.05127017496851405,0.06288427394236007,0.07852815794340384,0.10110925228956402,0.13129541851028326,0.16722764529251832,0.20375265847200308,0.2414110118945143,0.28187369078700963,0.3256084089403595,0.36937524015114276,0.41287605102833425,0.4508035799037855,0.4921343296442422,0.5355132116309684,0.573110403627098,0.6148795641455389,0.6586360726959941,0.7010255153361369,0.7382981980347194,0.7813876122682646,0.8251492489700101,0.8670714558641794,0.9045620240144339,0.9476900938178221,0.9801241760648338,0.9776108657977911,0.9460950134338248,0.9046288818224242,0.8609145259177593,0.8208837977883534,0.7817997575262883,0.7381233697776208,0.6943565385668375,0.6505906920327991,0.6076964610937323,0.5705050691302052,0.5278399017997524,0.48407468616362337,0.440829034283869,0.40349131899724133,0.36134388028443354,0.3204501827162023,0.28214279626788463,0.2385778135441965,0.1949983755677671,0.16356001586792113,0.15490700790091472,0.1515521922458336,0.14344147766855553,0.13912407240546876,0.14958145091710917,0.14552894418235862,0.14320715539763906,0.14319630552618978,0.14319630552618645,0.14318343245697185,0.14066068287923894,0.13489730074013062,0.13434745451684726,0.12817792052570942,0.11980861573553425,0.11755009430733887,0.11839660940703811,0.129816884124911,0.1395505167361517,0.14308192427835453,0.1378259949278624,0.11730582630492581,0.09019863551183804,0.06175612448291301,0.03805840721637854,0.015583844399430724,0.01003833448076219,0.021820648374770713,0.032061633378096754,0.03997737723090866,0.04890848679324411,0.05679562751052991,0.06871752860366853,0.09806378728322929,0.13437698285017685,0.16910255772269944,0.20678829429920564,0.2471619990276377,0.28962748071000033,0.3268676471145615,0.36980163967407553,0.4091578457546796,0.44891394684224806,0.49251465347481216,0.531277148620694,0.5652138685180352,0.5986916644959588,0.6418229671769298,0.6800543000013191,0.7210383773121609,0.7647859221243265,0.808453579802408,0.8473687383673134,0.8875726384928133,0.9307505105261682,0.9618924198414613,0.9616754445693712,0.9302820390567965,0.8870310861352344,0.843264378088485,0.7994975468777024,0.7557307156669184,0.7119638844561362,0.668222752973378,0.627498679984746,0.58903935050728,0.5454486990449943,0.5016818678342096,0.4580817802356465,0.4197103918207168,0.37891722766632974,0.33681144993808854,0.3063263434931609,0.2730544573310265,0.23444522790260214,0.19441778911039376,0.1587637868118188,MI
0.21493558184628636,0.23649656214891301,0.23770297220772285,0.23567222709235303,0.21369988985371347,0.21129207481545187,0.2112920307102515,0.2112920307102515,0.2112920307102515,0.2112920307102506,0.21262733803355172,0.23393154854409204,0.2377033581282264,0.2406473388135657,0.2609770091649848,0.24028986564537913,0.23770366686462996,0.23770353454902793,0.23770353454902793,0.23770353454902793,0.23770353454902704,0.23770353454902615,0.23770353454902704,0.2384131315124014,0.2585001003413394,0.24107299167261598,0.21405864207271108,0.21129225123625073,0.21129203071024794,0.21129203071024794,0.21129203071024705,0.21129203071024705,0.21100724738895416,0.1946982699616333,0.1848826439210951,0.18484568770322252,0.17632167485881567,0.1585960322795108,0.14937423493195912,0.10919641931446034,0.09853782803606403,0.07639437614462352,0.05455982570837925,0.042475049868140324,0.026526128400768734,0.026763627633980214,0.04673664501756036,0.03222609734858395,0.026413753204021617,0.030428190712493475,0.05130412874796075,0.034730099855353025,0.027480525625477092,0.04861585203556906,0.05282248944146506,0.052823007677570644,0.05282521293759945,0.06314041500287271,0.07900595934548349,0.08830275825381495,0.10548643031400129,0.1262850692238464,0.15806795658177375,0.1911154730371516,0.24798565998072064,0.3126790252539795,0.3663586649044044,0.41589519301051237,0.47066447772590614,0.5190895783348104,0.5819354277714002,0.6251982636150561,0.6865426483616002,0.738264042701088,0.7896855942926013,0.8425686205769756,0.887690521799235,0.8979222081801925,0.8885514757001802,0.843908602584583,0.7921886637167113,0.7308619797249447,0.694440696096029,0.6693635017228354,0.6134214279886141,0.56966420302874,0.5094822718300867,0.44614584459759854,0.40348230048908995,0.34169204877000325,0.2769801116642565,0.22051049837266667,0.21129379491826494,0.2112920307102426,0.21209106212346374,0.2330624883207708,0.24277203540959746,0.2583824757402482,0.23826123892265016,0.22410754971151015,0.21013281624214297,0.18496844423986847,0.15998533835790507,0.1655386128296108,0.18429879962637852,0.19070095608055304,0.2105732760577359,0.21129201968394007,0.21129203071023994,0.21129203071023994,0.21129203071023994,0.21129203071023994,0.21129203071023994,0.21129203071023905,0.21129203071023905,0.21129203071023905,0.21129203071023905,0.21129203071023817,0.21129203071023817,0.21129203071023817,0.21129203071023817,0.21129203071023817,0.21129203071023728,0.21129203071023728,0.21129203071023728,0.21129203071023728,0.21129203071023728,0.21129203071023728,0.21129203071023728,0.21129203071023728,0.21129203071023728,0.2112920307102364,0.2112920307102364,0.2112920307102364,0.2112920307102364,0.2112920307102355,0.2112920307102355,0.2112920307102355,0.2112920307102355,0.2112920307102355,0.2112920307102346,0.2112920307102346,0.2112920307102346,0.21129203071023372,0.21129203071023372,0.21129203071023372,0.21129203071023372,0.21129203071023372,0.21129203071023372,0.21129151247412636,0.20705926427646837,0.17840424004687971,0.1582125901082767,0.13930491321954364,0.10935254888104762,0.08786752016963639,0.05711237359893051,0.037193476416283566,0.017714952609155787,0.00015038030639491495,8.881784197001252e-16,0.0,1.7642080232249668e-06,0.007819086149630117,0.025909734851881083,0.026449508948426903,0.03872756810461908,0.05275784670086647,0.05282300767755732,0.053070439290232585,0.07328667732607563,0.07922340245904813,0.07931338033389235,0.09354923272271432,0.10564473009451802,0.11888238813400509,0.1509940073197651,0.18297290965669788,0.22766793069811975,0.27145132293854424,0.31916456299950724,0.37375033504907496,0.4234703206895096,0.47690777168824994,0.5414050544314426,0.5876022774182204,0.6446734045859657,0.70381132366062,0.7484503728102956,0.8121860554622495,0.856563924827829,0.9152780161785481,0.9602611773256848,1.0,0.991673312189123,0.9589357221650907,0.9157809901215526,0.8512790198075386,0.7865468224521202,0.726743302105537,0.6828680167611223,0.6187798222931873,0.5615635896580367,0.5155063152534574,0.4509634812315353,0.38654130972480694,0.33833891802527205,0.2831765578217187,0.22464286042788828,0.2112994321441457,0.21352113121699734,0.235382114000954,0.23779224439933433,0.2525179199905203,0.26406306080606967,0.26411503838778483,0.26385730109059224,0.24688928506602537,0.21419542781228174,0.18996552984862447,0.20940591211484083,0.21129168889492256,0.2112920307102275,0.21129203071022662,0.21129203071022662,0.21129203071022662,0.21129203071022662,0.21129203071022662,0.21129203071022573,0.21129203071022573,0.21129203071022573,0.21129203071022573,0.21129203071022484,0.21129203071022484,0.2113606836008035,0.2251070876814687,0.23736150028800385,0.22110977380038932,0.21129414775985111,0.21129203071022395,0.21129203071022395,0.21129203071022395,0.21129397133904781,0.22011044533012303,0.23731025839490716,0.23770353454900128,0.23770353454900128,0.23773643169516046,0.24973097251053655,0.25494976184999363,0.23784369892841895,0.23770353454900128,0.23770353454900128,0.2377035345490004,0.2377035345490004,MI
