0,1,2,3,4,5,6,7,8,9,10,11,12,13,14,15,16,17,18,19,20,21,22,23,24,25,26,27,28,29,30,31,32,33,34,35,36,37,38,39,40,41,42,43,44,45,46,47,48,49,50,51,52,53,54,55,56,57,58,59,60,61,62,63,64,65,66,67,68,69,70,71,72,73,74,75,76,77,78,79,80,81,82,83,84,85,86,87,88,89,90,91,92,93,94,95,96,97,98,99,100,101,102,103,104,105,106,107,108,109,110,111,112,113,114,115,116,117,118,119,120,121,122,123,124,125,126,127,128,129,130,131,132,133,134,135,136,137,138,139,140,141,142,143,144,145,146,147,148,149,150,151,152,153,154,155,156,157,158,159,160,161,162,163,164,165,166,167,168,169,170,171,172,173,174,175,176,177,178,179,180,181,182,183,184,185,186,187,188,189,190,191,192,193,194,195,196,197,198,199,200,201,202,203,204,205,206,207,208,209,210,211,212,213,214,215,216,217,218,219,220,221,222,223,224,225,226,227,228,229,230,231,232,233,234,235,236,237,238,239,240,241,242,243,244,245,246,247,248,249,250,251,252,253,254,Target
0.1312039978300661,0.16426483933932268,0.21305153557278933,0.2725480373201019,0.33123952754327646,0.37889070228357213,0.43692016448679394,0.49413136692265813,0.542204124048008,0.600560756767395,0.6488984405530391,0.7034317260341199,0.7391177894599805,0.7700595170791573,0.805809226635158,0.850269963298121,0.8901117572008459,0.9077825985398988,0.9081930995493883,0.8998079745585972,0.891329448247393,0.8709695549036944,0.8499382348972524,0.8285175739353188,0.7959277137540537,0.7754117843224384,0.7230218143413814,0.6631604500406716,0.6032745396917736,0.5447473806877385,0.5145490959338364,0.5108722586260661,0.5108391628519697,0.5140995794084626,0.5392639850368883,0.5284215598774151,0.5222095511641045,0.5656516789123323,0.6082442651935243,0.6421431699402123,0.633783560895876,0.6392273597340956,0.6622493544694892,0.6616788187774587,0.7099483897011083,0.7471052341031401,0.7275091574112247,0.69637311799203,0.6689196368250905,0.6642417188231311,0.6768267885045691,0.7043550350600751,0.7401240632806212,0.7766111015000827,0.8136636617662025,0.8535170517088091,0.8934771200285658,0.9327977506015379,0.9645695228457216,0.9885912355534769,0.9996531268743925,0.9933645261386317,0.9848614886053253,0.984713634945747,0.9846882614928842,0.979685856625425,0.9800983122722042,0.9846986288673578,0.9847136349457541,0.9847136349457564,0.9847136349457577,0.9847345480843035,0.9894650056132999,0.9996751395840524,0.9989729466526625,0.9870670104201043,0.9847162613966598,0.9846938955522335,0.9797187236560332,0.9759286863229428,0.9905070239367506,0.9997462352822468,0.9918835071645542,0.9685138350891915,0.9303472015548448,0.8949557733651459,0.8682035122585725,0.866816497853234,0.892024407972621,0.915033703180016,0.9373339338298117,0.9647330813716193,0.9832783996773646,0.9974819541067304,0.9999965842801066,1.0000000000000002,0.99993890987192,0.9886741822260319,0.9462024308421613,0.8913535959321515,0.8314903052259315,0.7716037221311989,0.7117171807808618,0.6523343029482607,0.6039528999330479,0.5473350778106354,0.48745717171174197,0.42757058861700803,0.3676901273073063,0.31115163130848944,0.26254804721488556,0.2033105002335336,0.1434242051751402,0.08444725884684678,0.05471510669859536,0.07998550649672365,0.1304260599414011,0.18936993011880565,0.2374727165871542,0.2946731119232735,0.3544204863175351,0.4060741346271459,0.4590849041356104,0.5148736944295462,0.5635169518090588,0.6069189585926302,0.6462165689420558,0.6972095786333312,0.7471490412712722,0.7992552757087912,0.8465151146566969,0.8915021175303515,0.9250915255609298,0.9431680159016282,0.9471737548821328,0.9327420137593958,0.9208425976947348,0.8994151290537797,0.8814688379586879,0.8539066250686906,0.8280514191419119,0.7847820904783693,0.747599023479047,0.7173376163747445,0.6887520542648919,0.67089873288362,0.6506006755510201,0.6501480238799118,0.6711877114090858,0.701352163687458,0.7373167215819529,0.773103564721022,0.816325637506351,0.8533391308029572,0.8888344750474186,0.9189351798036818,0.9472706649816194,0.9708295045037623,0.9888478553976621,0.9996364066599697,0.9972399336380768,0.9855087106202436,0.9840344917529211,0.9722710356588153,0.9722482264133789,0.9840087221599838,0.9803770070120092,0.9621337790929234,0.9542404315915098,0.9541409048374148,0.9541409048374156,0.954140637673276,0.9532132096652257,0.9414168130176914,0.945764789175519,0.9540541005615204,0.9541402202293112,0.952384598706616,0.9385490233550804,0.9235422296434395,0.9099347557461381,0.9033667432157972,0.8698554698925605,0.8301407757954287,0.797646876303918,0.786237450497288,0.7945359408301023,0.8318757446076426,0.853539816083712,0.8751502674780489,0.9018585075402716,0.9136969932137855,0.9233282556098634,0.9235681747290212,0.923688225395001,0.9332404815621114,0.9423469071421648,0.8924273973567625,0.8325919158802073,0.7779036165899018,0.7361159976072369,0.6984673648282718,0.6599127060426617,0.6094866431167276,0.5496816694619036,0.4898013209049157,0.4332976617133253,0.3846677198499717,0.32542158316564795,0.26553511904244664,0.20564853594771404,0.14588738062478535,0.09477266114561211,0.04171730676094754,0.0,0.0039601009896597095,0.05050119501057648,0.1101537142561162,0.17003857128128197,0.22815223342851287,0.27596814422974836,0.3344132378109905,0.39301174956260865,0.44068926537489594,0.4985681994540838,0.5485589779417646,0.6006884240715082,0.6485500872823404,0.6986386692648561,0.7517521239710672,0.7983355168393975,0.8365285136369651,0.8601458076204727,0.8759559013981246,0.8681559973245598,0.861795267646617,0.8524430070526698,0.8491689727826588,0.8334556590921711,0.8095251647723776,0.7856773595154884,0.756092519605488,0.7261550577001861,0.6994553200639773,0.6811244739431579,0.6659673196452316,0.6813177809438542,0.7081739527844111,0.7381087271525042,0.7680521845128132,0.7986826122990587,0.8368040233614475,0.8766082228814926,0.9101740414988704,0.9315150471109661,MI
0.15310345004927228,0.1544217616901986,0.1890601511058292,0.24715552260469975,0.26704749884082046,0.2551439685450414,0.23758022150575986,0.1787622378125775,0.10008945128261715,0.04614846430628683,0.009680043768676594,0.00012030513383098906,0.0020943064928431454,0.03648417378053681,0.0923421292722133,0.06788510015590354,0.039211557074486425,0.012340138877957152,0.00014387573362117934,0.012880397524180243,0.06311520898902945,0.1215146559775988,0.1901988317027108,0.23688786466968415,0.29782094381165214,0.30602102495807637,0.23075410830323628,0.15020133751116171,0.06995352584032721,0.013074919366676152,0.0007602962642851985,0.0,7.622127240480836e-08,0.0013907052272879028,0.0374279021374182,0.045704801538313244,0.0194847365844093,0.017977232803248366,0.08263598318499454,0.14897237494275606,0.19335679062114508,0.22775019216479553,0.19728108405583322,0.20767433304865968,0.2583874922604341,0.24161779114532056,0.2705674434529608,0.34134814316962636,0.38432944875463226,0.44714322858658484,0.4641482633087257,0.4717455712468235,0.520767207900108,0.5796827368091702,0.6334677811848302,0.6813442347830865,0.7239374775430711,0.7638205450732594,0.7655155733784289,0.7622071151378149,0.7418604201385541,0.7400003960296608,0.7399997100382159,0.7399997100382167,0.7399997100382167,0.7399997100382176,0.7399997100382185,0.7399997100382194,0.7399997100382203,0.7399997100382203,0.7399997100382212,0.739999710038223,0.739999710038223,0.7399997100382238,0.7399997100382238,0.7399997100382247,0.7399997100382256,0.7399997100382265,0.7400164562582345,0.7463259766835106,0.7648309595662592,0.7653840113973791,0.7489579868483851,0.709401235205342,0.6624884019555841,0.6161152156286116,0.5767737952542022,0.561559188191338,0.5552298670517111,0.5473082906295268,0.5855850284104029,0.6245906972610289,0.6541342550315425,0.6932876044267688,0.7227946425679077,0.7403402782743624,0.7594271359373232,0.765527278488686,0.771709862326083,0.7903208984158132,0.7914624582488257,0.8090522451544144,0.8165442512080165,0.8165514160075649,0.8165514160075649,0.8165514160075658,0.8165527879904593,0.819323044340428,0.841134927657806,0.8670390345764103,0.919255032199386,0.959464210717484,0.9069665061053378,0.8266582425473086,0.7461038329978908,0.6655494234484722,0.584997148094665,0.5082652455362009,0.44779575286535245,0.3688543179522963,0.294749065063832,0.25889606667473064,0.2807194907801107,0.331503727690988,0.36507960875552214,0.4126471898763424,0.4507353804238443,0.459847286234381,0.478807703127198,0.47525697222246865,0.45879926912987834,0.43841156445211116,0.41274755808659247,0.39172872869272,0.35808423880224627,0.33366919328795497,0.30960933730569584,0.2768613073360462,0.23040911715835932,0.18889220907893645,0.1385385787803357,0.09619643897169983,0.07351000355886494,0.05284445984622188,0.05141596845629426,0.07132109702916578,0.12254241307742664,0.1753405397951715,0.220828776590829,0.2759574129332498,0.33672685394972923,0.39035127504769385,0.44390839072968813,0.49825000235291306,0.5603341355937843,0.614015110995684,0.6675722266776791,0.7211279703767826,0.7723473887392958,0.809679609615376,0.8165450134207575,0.8165514160075871,0.8165514160075871,0.8154832795826232,0.7954935518021173,0.7910379746491101,0.7910341806844832,0.7904846772572229,0.772532257595989,0.7725630380000377,0.7771594811904565,0.7656146812846947,0.7655169453613793,0.7655169453613802,0.765516945361381,0.7655169453613819,0.7655169453613828,0.7655169453613828,0.7655169453613846,0.7655169453613846,0.7655336915813926,0.7717603418004053,0.7780286414703532,0.7656730121625364,0.7655169453613881,0.7634192419552228,0.7328949307184907,0.6926383664416766,0.6522680355623232,0.6032344107121963,0.5654199875172923,0.5613847241623171,0.5659847788823456,0.5990778065504605,0.6270331966494149,0.6559153937889235,0.6869022149260289,0.7111101062308842,0.7580520308312941,0.7655114574298283,0.7657896739182117,0.7807805055079751,0.7914171358608835,0.8090522451544633,0.8165442512080663,0.8165514160076146,0.8165514160076155,0.8165514160076155,0.816552787990509,0.8193656950712436,0.8512897720659938,0.8996935263136239,0.9534284880273933,1.0,0.9579368804544801,0.8776927131935794,0.7971383036441626,0.7165838940947422,0.6360810649030286,0.5660730632128574,0.5001846158387266,0.4198834912201783,0.3394807895438543,0.27503210953604107,0.23282021545603548,0.24459493454857473,0.2930902411581173,0.33860040605834074,0.38931537629047996,0.4268169322337618,0.4379790028881789,0.4581849530313278,0.45527955591233216,0.434258510330638,0.4127358568891242,0.39319899497909727,0.3751308269816853,0.35471330311718274,0.32328776629438494,0.2945689557343387,0.26651140774898785,0.22734022328856796,0.18143079626181757,0.13363593310241395,0.08284854673280373,0.0415838709842693,0.025732166551089897,0.025974563994584088,0.044636979758103656,0.08576364680278914,0.1403339992642496,0.19445790829615728,0.25177271944256674,0.30558286800563206,0.3572333655228186,MI
0.39320925022295183,0.3943442144419147,0.4241651849687531,0.47345716365798296,0.4803127298048655,0.44738562292136796,0.42364078487360857,0.4054875654885701,0.3475384336389662,0.30112929121363674,0.2697328056275703,0.2615026110693508,0.26320207335209966,0.2929088380884801,0.3584464080600229,0.39374176704356634,0.4184020392561769,0.44983696012332963,0.4433312547555355,0.4868448702623418,0.5449943714443144,0.5845084577597226,0.6307443934852053,0.6790328931936065,0.73798801716906,0.7841604580231971,0.82000537062493,0.8545272199164611,0.8772457766451818,0.8954546822529057,0.8984800310206698,0.8972093896957181,0.8789857491795785,0.8740194205937555,0.8563209487194849,0.8545454699189095,0.8545447480921822,0.8545822635601041,0.8633873017296834,0.8763623402837899,0.8679819180688613,0.8547962857126641,0.8545447480921857,0.8545447480921866,0.8545463886074778,0.8580395100031635,0.8750264481589327,0.8604503886891752,0.8548641072473582,0.8688711986506461,0.8764956428263004,0.876513111383165,0.876524342613382,0.8815003220045301,0.8977968934360576,0.8984814746741399,0.8984814746741407,0.8984814746741412,0.8984903164282034,0.9031242740546479,0.9196947562781954,0.9204498379651174,0.9203326983043301,0.9060284431836219,0.8771059122502343,0.8566276003967674,0.8561997819672045,0.8865949499615398,0.9126162927869652,0.9204296755946384,0.9210496935217161,0.9376642783225093,0.9539781261377156,0.9785050612191388,1.0,0.9552934935488984,0.9024059967836058,0.833525089618075,0.7669337970453554,0.7151446920717084,0.6474384566512934,0.5780879724030505,0.5087368647589967,0.4411715549090247,0.3898782654469395,0.32265092080863544,0.2533007974737571,0.1849632731623685,0.1331869873126026,0.0674055707062422,0.015088003826130958,0.004302681762142324,0.05170982331094143,0.10523486143405236,0.17404238873770206,0.24293271556102836,0.2960190949902315,0.3601320730629243,0.4294784560229421,0.49880319908779613,0.5610121894975779,0.6158014940595633,0.6848387499759103,0.7439409430117747,0.8015282316433607,0.8563127755726545,0.8759108921309644,0.8629502845012302,0.8352653188345429,0.8304373951465287,0.8125562643805817,0.8069761886739171,0.7790430548945997,0.7548521316304466,0.7389372087216204,0.7071451450797102,0.6724969074131022,0.637805963207557,0.5998961153368421,0.5585385715038638,0.5331596779923582,0.49932850445206434,0.47393094354410215,0.4507455512224592,0.43903450907563757,0.4566897271148562,0.47641097468305116,0.5107592284528848,0.5522687621486195,0.5920829281044004,0.6373258504277075,0.6834343790053827,0.7298864581160225,0.7835142284764358,0.8292745853525418,0.8650231454525974,0.8995125213619333,0.9257215000163459,0.9309498472312239,0.9357580818936619,0.9424117704361747,0.9423845698175333,0.9338870079418191,0.9207013755856206,0.9203515549996921,0.90836152232374,0.8985321388224108,0.8984814746741705,0.8984814746741714,0.8984814746741723,0.8984814746741723,0.8984814746741736,0.8985205831261989,0.9076199302073715,0.9179317908239493,0.9003012436374331,0.8984822293112096,0.8984814746741767,0.8984814746741776,0.898481474674178,0.8984814746741785,0.8984966883646544,0.9039686653874344,0.9091294454464918,0.9008629186972934,0.9189299675911742,0.920449837965156,0.9204498379651564,0.9204498379651573,0.9204498379651578,0.9204498379651587,0.9204498379651591,0.9202352597193371,0.9057284349824095,0.8897713532396896,0.8669143436997158,0.8617666082475708,0.8934788481474705,0.9281158365611719,0.9570583627453182,0.9455738940443625,0.96065151821721,0.9643851208936551,0.9665931988850103,0.9790066949070342,0.9421449975707938,0.8753057583717045,0.8060191609076655,0.7467663309227692,0.6890625749097667,0.6198709378780856,0.5505200927164768,0.4833977327508938,0.43187907260173564,0.36443405033520015,0.295083762948793,0.22573265530473785,0.1563815476606849,0.08733901886090667,0.033369274257145864,0.0,0.017499168591547765,0.06531618562102626,0.1322599482276421,0.20096710701425868,0.25379291714844454,0.31834845138185663,0.3876945718594258,0.4550089875490251,0.5063924252859389,0.5737779803715277,0.6394071884283492,0.691457385070136,0.7596130519522393,0.8135249061146257,0.8320788534351418,0.8194441443278637,0.8038921173801441,0.7863636458284837,0.7592798801842311,0.7448341716512736,0.733098411497239,0.7100069333152215,0.6854161746539993,0.6515448709135621,0.6258444276834751,0.5859702860787244,0.5507351084427401,0.5233545272049374,0.48409209343099757,0.44315888242955026,0.41443811026656885,0.39138549569146486,0.37284845373502984,0.3860941765458148,0.411455051288212,0.4458945657310487,0.4806092275099054,0.5191949974631722,0.5654361239540582,0.6138101673502603,0.6727129687785416,0.7192267824827758,0.7645562063700755,0.8038808562843651,0.8457947499881411,0.8802055788535323,0.8981247143596969,0.898942255494934,0.9132439009689697,0.9005143606331907,0.8984137423471354,0.888023506766066,0.8770245563522052,0.8918919668415546,MI
0.3705479835161909,0.35134407445316773,0.3383413178899852,0.3488731153617768,0.3407568828883587,0.30795363470627146,0.2751379069812434,0.23122090734854583,0.17965465203392128,0.13440327152411835,0.09499791340494301,0.08186156186171001,0.09611042588959107,0.14715238812503095,0.19337308460122404,0.2363458476931597,0.24971011889810146,0.2498731612028131,0.2715894289119205,0.2652166633183932,0.20705036385378883,0.1431063759302933,0.0923233242022572,0.08142934608993713,0.08136348485102207,0.09402779842922526,0.09828386711922787,0.09533889527181927,0.14212323835807306,0.18073252778774584,0.18961746841857763,0.20337003769476092,0.2116293848071633,0.2656437374867855,0.30573140643545926,0.31497501469955425,0.33526222666488525,0.3267026126016397,0.2796179037279989,0.2380897396670172,0.18929692879125226,0.15043463468073504,0.11787427431463926,0.08176868814527549,0.08832336850384648,0.14418422340252213,0.20504950116689535,0.2602516029722133,0.32390832334916286,0.38801649026359897,0.4521175789525831,0.5136435767186494,0.5579697758545463,0.6072496162724539,0.6701755213151968,0.7185659687143602,0.7728720989875195,0.7907387787778557,0.7355691789815091,0.6814143217086195,0.6271428366864598,0.5806580052323138,0.5370005117177676,0.5159475580521815,0.5014226785531761,0.5173659399447317,0.5205753088534912,0.5171221067113039,0.4962123421727833,0.4877519113506068,0.456647196481494,0.4094639017383255,0.36892133502287283,0.3319953567295122,0.299684203027355,0.2696937223761491,0.2716103747944636,0.2919919533044475,0.3034474738251953,0.32903008403139333,0.3510725845947662,0.34726315029581656,0.3539958867730406,0.35867113672699524,0.3560661710645947,0.3400190552242721,0.33781517044251386,0.34062303538607086,0.3304247608186408,0.29607419954975356,0.25654941932307307,0.21847972682295458,0.21359720245946945,0.2386550003702792,0.25958718131018976,0.29143706306560113,0.2821368292108948,0.23541505131178941,0.19243002670801235,0.1477233181171822,0.09021344375300822,0.03682467244609655,0.0,0.023506770594398096,0.07640641302996998,0.1360461507966506,0.20012342962959595,0.264097446461246,0.3216292507417715,0.3799715521186462,0.44400035031101126,0.5081085172254478,0.5722142114812958,0.6346193978518815,0.6889903273292974,0.7519861961838288,0.8160936048212979,0.880201771735734,0.94429376635498,1.0,0.9773418059071068,0.9140283979535213,0.8499212194039116,0.7871227846973579,0.7327631350482755,0.6717532065780611,0.6180797232110997,0.5690776170741128,0.534443471333724,0.5102106115210514,0.49410648859818673,0.4898060203668697,0.5104816827596257,0.5110009546329506,0.5071702325365823,0.48473217732738627,0.44389883445077727,0.404323041381764,0.35984256955625593,0.32453444849278124,0.2879975329470732,0.2698430136620966,0.2503456843801064,0.26995149948820285,0.2943258834361464,0.31205477351235533,0.32671144502121496,0.3266480477195204,0.3344319231973798,0.31790599179520984,0.3002623572617955,0.2929185236348191,0.2776982656232636,0.3034954055623247,0.3030737650906705,0.2814535854565543,0.26105974714966385,0.23671627891686953,0.2533111756068598,0.2780457523712492,0.31301305637762233,0.3350953728648345,0.3033860938672215,0.2666533095843817,0.22724923062561864,0.16527525926681141,0.1097461642834412,0.07382164171295491,0.09775349530519928,0.1505238220629821,0.2099068654700329,0.27398076478448896,0.3379752142393837,0.39576722141130105,0.4538415192557914,0.5178576854659047,0.581965852380339,0.6460738239371597,0.709526532179781,0.7643137005529184,0.8258491286866425,0.88918580691139,0.9139182884988264,0.8679963584525283,0.8052546022404514,0.7472084856296872,0.689506459639234,0.6320600506037337,0.5775127205365105,0.5407729905263503,0.5177976616043711,0.4987870756822139,0.5113573653331587,0.5133696925997411,0.5320153078461103,0.537360005375755,0.5126981701649136,0.48688069265975864,0.4524238421142357,0.4143951298329669,0.3677915192298542,0.33251940532448554,0.30457441615830994,0.2959864024229568,0.308261739354569,0.3255193918210735,0.3463329885777964,0.3571331353398244,0.3689376419525048,0.37902758874878684,0.3635750368749999,0.3460035767709724,0.33494871639913404,0.3268998829784202,0.3223202156991445,0.3222789138466171,0.2941859019113111,0.26815564360248634,0.25016755493732856,0.25799672021210807,0.2909702815372992,0.3245965368160155,0.3497117897194362,0.31760583554823674,0.2749616995349655,0.22971603033946164,0.17425423241404947,0.12012206850536722,0.07343199917288068,0.06889073627330977,0.11428701469570401,0.17544653108401764,0.2302639839193994,0.29362708798926884,0.35773498285013794,0.42184314976457227,0.4858764212036313,0.5441628138691939,0.6017279050021527,0.6657200704459876,0.7298282373604223,0.7939362639067955,0.8574916320619961,0.911203723826854,0.9210864504201499,0.8647556264282543,0.8099725079904347,0.7465197997478148,0.682654320505232,0.6270936210910265,0.5830146715349147,0.5432705966077878,0.5265118940713966,0.5124950845319698,0.5228634588331804,MI
0.6395157116691621,0.6636936491487155,0.6607671356907225,0.6331938884265966,0.6615386817601197,0.6641159042811227,0.6641159042811307,0.664115904281136,0.658017993998719,0.6300677682532285,0.6569880826903454,0.6641121574309201,0.6660713376133609,0.6956817528479959,0.7014363593609643,0.7014363593609705,0.7015897327737157,0.7190465836273257,0.7416947657255166,0.7667995309961393,0.7405206834892271,0.7395248214078531,0.7587769031592053,0.7401798692463482,0.7576217084774841,0.7511719763108342,0.7413415280741358,0.7718675299702191,0.7760772695206164,0.7760772695206217,0.7753282552634877,0.747385214162513,0.7554573975642445,0.7759817735130117,0.7702368370653208,0.7406803203924355,0.7386049806531076,0.7163657864314326,0.6663816686238393,0.6348831957074319,0.6389061998405046,0.6294535654435469,0.6825213265722221,0.7500814262703583,0.8072783841023137,0.8474420737557651,0.8507216800272106,0.8552556029744691,0.8861461956535477,0.8826273320165834,0.8528013225350044,0.8492527010565123,0.8109476632718184,0.7270800400619102,0.6513017438149822,0.5612384306233986,0.48971479286274455,0.3943232773235996,0.31762626128742255,0.2274311122617414,0.13118664531708113,0.06304014073963415,0.03045059626089852,0.05860341322703366,0.13265697870648996,0.23405254250896057,0.33591543166792004,0.4377783208268786,0.5396412099858372,0.6414415114852039,0.7276235784299558,0.7409816348114218,0.7913331886960373,0.8437998326860976,0.8764396726240884,0.8600340831671422,0.8819465912563835,0.8868328031925401,0.8564579066812472,0.8734082038890456,0.9186341700093212,0.925357315016166,0.9274741600752989,0.9574723884477594,0.97811347726722,0.9781134772672244,0.9646894438198572,0.9937303593616775,0.9756164578886377,0.9560481870665214,0.9222386267807323,0.8876184128213431,0.8449853646261598,0.777195347902266,0.7210613738718905,0.6390849312587994,0.5707080867377021,0.5213325478464297,0.48348003950157104,0.41680846059612975,0.3698140978267608,0.31894019566351606,0.2521196072835572,0.21657562729800084,0.21647480304018352,0.2384430162168405,0.30031384295701535,0.34093420919430617,0.3908345262689785,0.4551274233316702,0.5078338949371464,0.5554448554685028,0.6222746083532549,0.6458305528939867,0.6932456936205957,0.7014278796476496,0.7014363593613497,0.7014363593613551,0.7014441981664632,0.7114098949780852,0.7381297982791857,0.7285507784033198,0.7021146974685317,0.7032960105517105,0.7338700515370435,0.7667981505780386,0.7375385169469579,0.703220522924374,0.7184959181765471,0.7386517095146488,0.7197756276599696,0.7030151472115724,0.7315431669080539,0.7387526731857026,0.7387568144412322,0.7387568144412402,0.7387568144412455,0.7387568144412526,0.738756814441258,0.7387483347275712,0.7305990815420866,0.7026989991083479,0.7217865997053989,0.7387290088684759,0.7378613219558128,0.7083000941120536,0.6871901700163967,0.6299582918361271,0.5833233075913897,0.5368801749118672,0.521018162299077,0.5650502265948463,0.6163894507392662,0.6672090847928809,0.7171437461397545,0.74143559610616,0.7725541375096592,0.7760772695211351,0.775936703289406,0.7549557055693716,0.7612427204476901,0.7728639168296576,0.7316590333712405,0.6497136885354582,0.577066202688572,0.48852359377846977,0.41188967947541766,0.3163759677762892,0.244015696728483,0.14420748748425893,0.06393390715874059,0.0009923138943070953,0.0,0.07646025244513677,0.1782848349904924,0.2717868696159407,0.3454569970297019,0.44655960437549513,0.5484224935344528,0.6487124948859195,0.7012792701659292,0.728982566775696,0.7637970811223633,0.8154800715911286,0.8794210982738173,0.8994882387780043,0.924880496927857,0.9253590898403798,0.9253590898403852,0.9253590898403914,0.9268713359947265,0.9606314425302935,0.9983620806808888,0.9999999999999929,1.0,0.9982792127782032,0.9674362586562539,0.9451255601220128,0.8859420804742113,0.8498304473658473,0.7991267702417533,0.7560581480047626,0.6898845100789508,0.6071738148099923,0.5529080247029325,0.5019276719598418,0.44227434855840553,0.3748450177112268,0.3245068094779251,0.2766511588898224,0.21049353673580917,0.17985374074196425,0.18059033832678129,0.215130357403007,0.2653681322834842,0.3029526362245418,0.36722537909489095,0.4223877832498797,0.4879198876235593,0.5466885512772368,0.588881769323998,0.604001041624878,0.6378973062195952,0.6636304315722708,0.6697652596421433,0.7002834208949817,0.6820895412995718,0.6642608607843679,0.6532331931320607,0.6397905735501892,0.6639063183821614,0.6831864351425176,0.7014057929519932,0.7014363593618249,0.7014363593618329,0.7014363593618382,0.7017315689014776,0.7263569907179424,0.7382602760885231,0.7129534318043218,0.7141260846228743,0.7201433970820004,0.7206484814034955,0.7137275295186214,0.7014877601677689,0.7032640831715824,0.7326589041592602,0.737550982874076,0.7069367275736473,0.6850661996018896,0.6379754870945353,0.5949742215589033,0.5224779900050249,0.5162198038106558,0.5446919642234391,MI
0.543355146296467,0.5799602972592326,0.5998977977082967,0.5958478577240922,0.6063790964698703,0.6007125620573457,0.636463616001707,0.6048885254259022,0.5473082146022477,0.49695375684359755,0.42610758293935147,0.363413651749934,0.2961235789927863,0.213161115479084,0.15664609261606932,0.07921794439413743,0.027564198913378135,0.0010339579605895821,0.0,0.0269609069440766,0.11042917928336005,0.18121279675130708,0.24689800906626092,0.3150793803824308,0.3592441297002691,0.37269645394038475,0.4257901288377819,0.43842119287805614,0.49405480675718527,0.576125340377232,0.6205257795551016,0.6448988912932134,0.6680600941385442,0.6573357812353673,0.6233865291905567,0.6620543046777869,0.7059160540952321,0.662239214187053,0.6209173556558656,0.6525074927327839,0.7235533252493087,0.813468839003423,0.8183323335506194,0.7531181255227808,0.6848182004456347,0.6098843019667837,0.5465314280066997,0.5255015706240331,0.4858672048995394,0.4670273388724655,0.46645387289360185,0.45684883055571257,0.4369321810972733,0.4380499559690114,0.43043093082869044,0.3991985390222079,0.385837600354916,0.35344467149909997,0.32136878553148707,0.29967480773271626,0.29747862004231207,0.3303261709239984,0.3838718065877065,0.412224675157844,0.4129841399119196,0.43987838280223057,0.48018250568557663,0.45497041052834897,0.44564140884222114,0.4798041988762036,0.4915481889716964,0.4617383707021063,0.42292309609762535,0.39433374127506626,0.3317465338446186,0.28409758046629774,0.29556534312937766,0.35641129496955104,0.4340185535216148,0.49130759050170836,0.571579491166561,0.6195190097330525,0.6606156255459763,0.7194694745630454,0.7340744258038012,0.7354957969258646,0.7512341804247105,0.7132163573705648,0.6390541659922024,0.5946292668040409,0.6220639530724257,0.6916807667666443,0.7840016367162135,0.8777549384351544,0.9699531519966391,0.9838594866262382,0.916355873022884,0.8286967425506488,0.78029700885538,0.7438117629114864,0.6782699464998863,0.6672300616957902,0.6498185392184417,0.6696546332332294,0.6570488325544015,0.64479457479734,0.6446545162175421,0.6306547898806447,0.5926317240327088,0.5633133938483099,0.5384172948961097,0.5703140142487393,0.6105602543489588,0.6442621723760662,0.6799506792049423,0.7431107496456364,0.7685050061843719,0.7910900457707002,0.8041906320913248,0.7831792115106917,0.7948457536774867,0.7945869792980829,0.753276914500677,0.7039968676744883,0.6402037512152945,0.6072294544079191,0.5551091493119169,0.5532654739215368,0.6214479606589385,0.6980051459741285,0.7348192621194127,0.7864008868549814,0.8128156871472885,0.8323449680713195,0.8352636137173293,0.8665086209498676,0.8522424616576436,0.7831978920255307,0.7108254224396382,0.7031168339020337,0.7666176779771194,0.8600379717716282,0.9531855794742143,1.0000000000000004,0.9479883987793323,0.8715263163865523,0.7889761016507859,0.753846151672843,0.7346768944186786,0.7118438349573695,0.6943805753561727,0.6537532551051579,0.6553054472943161,0.6326852549673316,0.6345149493701636,0.613921967578936,0.5750111637458821,0.5498068794221171,0.5136902284975595,0.49051648444194784,0.49458992682682856,0.513364236519839,0.5691477489568686,0.6167883922119572,0.6475600378414241,0.677290699222231,0.6764190920691813,0.6881914674200345,0.6767061398262055,0.6956341496664096,0.6762830424045689,0.6546851169462635,0.5970562443818381,0.5666285896014922,0.5019788663748339,0.48987822745368215,0.5139103035204511,0.5647454167225354,0.6403579601108418,0.6776810116937368,0.7147509454067893,0.7251809785732166,0.704592464799473,0.6552481812207183,0.6655672062462838,0.7362073336922879,0.7945378964962484,0.785647768818523,0.8336889099593026,0.9204998564612086,0.9378499005137964,0.8649801465531879,0.8114244093823282,0.7541364206414749,0.6742573669752434,0.6226003684340689,0.5999747184546176,0.5624856879585534,0.5393613453989938,0.5210208800870357,0.5163744153364589,0.513590518033006,0.4910152285335312,0.47338067073040024,0.43158611051577855,0.39977282433105765,0.37172963404140846,0.3512198796580148,0.38409542837089417,0.4136029089967974,0.47061117413830855,0.5140329153770673,0.5697818648779784,0.593995605995111,0.5979528092434765,0.5984042385535235,0.5928663929462412,0.5704948521377458,0.5735512790709882,0.5430193441511251,0.5061247983135657,0.44509107852792473,0.41670529326436734,0.3790101701225814,0.4147617186489021,0.4893299888333238,0.5399940703775239,0.5872665445763547,0.6293965105416963,0.6546402042296608,0.6565356416703074,0.6542843910661857,0.6692924046564461,0.6644240761303908,0.6039877942809482,0.5769278178102231,0.6311859112727984,0.7170570096462874,0.8107883353208662,0.9039025150237046,0.9537858588734793,0.8917266069331782,0.8133570367041814,0.7310021878445654,0.6604086021828386,0.6194691022443481,0.5788530710609012,0.5456335465867963,0.5417150720785933,0.5464466921476006,0.5387101545582094,0.5463642142920109,0.5366923710031632,0.5193225078408656,0.52294733342158,MI
0.829100496027249,0.8768864643201182,0.8995993630279262,0.9116079156002872,0.8900020190534281,0.9033693560666141,0.8825592101993003,0.8798810261307608,0.9006575179293268,0.9139816424905005,0.947675848935793,1.0,0.9481540787357927,0.8628689141460599,0.7944163188992235,0.702453339452151,0.6095705777174887,0.5171008540370723,0.4458959184673308,0.36480223265228595,0.30694814853843777,0.3021716662524154,0.3457232600563227,0.4092790134798605,0.47628442199706544,0.5592283928846111,0.6245471384399757,0.680110991589709,0.6521193484911407,0.6196746640148669,0.5829986959925453,0.5544648071144458,0.5783700985542799,0.5659858115637233,0.5263293391767538,0.5158031043262268,0.4768935605929432,0.4442807421242101,0.40158863149236,0.3827659583499621,0.34040697235721407,0.3196753582653953,0.2889846755118288,0.2376636372410026,0.20452490751157892,0.1652469550414759,0.11081436340775053,0.09069759571659208,0.05026247409946105,0.03845496795726433,0.06323933612952093,0.08182208384255141,0.1398994844599617,0.17892885088182364,0.23247814021344304,0.26865851439260613,0.3369822130470661,0.3994438401557554,0.4515696557547271,0.5004920112520574,0.5741977481126757,0.6166729499346859,0.6479153493419902,0.6780265686846185,0.6845306767251556,0.7009567744327843,0.6846229511585014,0.6838385532895801,0.6838384763066712,0.6838381235849722,0.6812603924186851,0.6540353409322961,0.6512159281886127,0.6512145153674975,0.6531627289759756,0.6791049158392157,0.6838375245179691,0.6815024071054632,0.6337949034813404,0.611022439743099,0.5603381030714267,0.5533493974512336,0.5534828496975779,0.5683761303411288,0.5895993166241169,0.6169503099189741,0.6285886094547459,0.6527163497597268,0.6791818971456447,0.683842848398923,0.6882647371034132,0.7075597723265901,0.6953184948507305,0.7163205644794219,0.7373736964771753,0.7831079313964535,0.7995797055679903,0.7200943843362477,0.6272259954700337,0.5352587298053502,0.46772270858350584,0.3817743727750553,0.31509102741965034,0.2705456286526271,0.26015201727591375,0.29641580709324167,0.3661175918031807,0.4458040610082028,0.512894935097898,0.5939839061542012,0.5881055928654195,0.5538027524281519,0.5354460973505004,0.520850994976576,0.520124273032442,0.49712909746123213,0.4857591120828104,0.4570376030904928,0.426962997416795,0.4219558351386219,0.38209203333844677,0.3534093887457699,0.301431539064021,0.26225374918184574,0.23860555918077786,0.19837076119596464,0.1618053277910647,0.10578818473701901,0.08445988060119092,0.06433879881772864,0.07659368901865893,0.09913293670965562,0.13628779650574163,0.18939244692034052,0.24562593707469116,0.30766922941402797,0.37436819117000386,0.43355870888600556,0.4806014978671431,0.5470165108275333,0.5931715216992304,0.63452740075512,0.6560316763215752,0.6827425225122408,0.6838383811278836,0.6829615426729498,0.6578969506498522,0.6512231571692668,0.651214334807662,0.6512143348076638,0.6511565272528514,0.6328652052505159,0.6187118496410262,0.6179580469131949,0.5946810419814268,0.5868980594312738,0.6097342260456244,0.5826346425108042,0.5534383240113128,0.5272935160037377,0.5207264104483684,0.5208365583440973,0.5390200797461091,0.5850498439090854,0.608853197296523,0.6207377446318185,0.6470196434850912,0.6512198584320812,0.6562925142161973,0.682625717671506,0.6642807800951287,0.6537019138018456,0.6888003196758667,0.7232098186010605,0.7703067451385595,0.824993097180152,0.7876933757386944,0.7138122454445242,0.6347883209476226,0.5420194141430619,0.44916032641386927,0.3670483837332288,0.29568060299749543,0.20419521084087844,0.13884497775939497,0.10008698026290652,0.1335862409487092,0.19523532748164119,0.25758866307058703,0.33174060824938145,0.3990820269429234,0.4387989121660425,0.502872334348873,0.5072686364601369,0.46551426567444043,0.45367527836173593,0.4263190872888236,0.4228479891079697,0.41749593339526214,0.39189106983657673,0.37819762028857085,0.34758294813389945,0.304496706626038,0.28546418522177053,0.24381040365092588,0.22233546445102803,0.18327588958946617,0.14812616805920698,0.09942572134417826,0.07548394888577459,0.0297650228499311,0.0,0.00040745429220123697,0.03208262711764398,0.06787424138940512,0.1085905788112953,0.166316500568926,0.2335387775029485,0.26939048415988065,0.327935546194289,0.3992265971765425,0.4406372622841985,0.5017212891922496,0.5733337894052788,0.5949813224745402,0.6196952869045766,0.6423631497051367,0.6219252609841517,0.6438965895525559,0.6623826331628315,0.6835026513053695,0.6838384763068497,0.6838384763068515,0.6838384763068532,0.6836314866940265,0.6635254208622445,0.653826378907846,0.6805675606611814,0.6838380228075316,0.683838476306863,0.6835413019219807,0.6625758747920862,0.6247321239784274,0.5869981296245301,0.5704877108835866,0.5537009213043698,0.5692837499048089,0.5902451766420409,0.6174132821046969,0.6292304680097569,0.652980639269451,0.6796437849842825,0.6838378884373801,0.6838384763068825,0.6838384763068843,MI
0.3705479835161909,0.35134407445316773,0.3383413178899852,0.3488731153617768,0.3407568828883587,0.30795363470627146,0.2751379069812434,0.23122090734854583,0.17965465203392128,0.13440327152411835,0.09499791340494301,0.08186156186171001,0.09611042588959107,0.14715238812503095,0.19337308460122404,0.2363458476931597,0.24971011889810146,0.2498731612028131,0.2715894289119205,0.2652166633183932,0.20705036385378883,0.1431063759302933,0.0923233242022572,0.08142934608993713,0.08136348485102207,0.09402779842922526,0.09828386711922787,0.09533889527181927,0.14212323835807306,0.18073252778774584,0.18961746841857763,0.20337003769476092,0.2116293848071633,0.2656437374867855,0.30573140643545926,0.31497501469955425,0.33526222666488525,0.3267026126016397,0.2796179037279989,0.2380897396670172,0.18929692879125226,0.15043463468073504,0.11787427431463926,0.08176868814527549,0.08832336850384648,0.14418422340252213,0.20504950116689535,0.2602516029722133,0.32390832334916286,0.38801649026359897,0.4521175789525831,0.5136435767186494,0.5579697758545463,0.6072496162724539,0.6701755213151968,0.7185659687143602,0.7728720989875195,0.7907387787778557,0.7355691789815091,0.6814143217086195,0.6271428366864598,0.5806580052323138,0.5370005117177676,0.5159475580521815,0.5014226785531761,0.5173659399447317,0.5205753088534912,0.5171221067113039,0.4962123421727833,0.4877519113506068,0.456647196481494,0.4094639017383255,0.36892133502287283,0.3319953567295122,0.299684203027355,0.2696937223761491,0.2716103747944636,0.2919919533044475,0.3034474738251953,0.32903008403139333,0.3510725845947662,0.34726315029581656,0.3539958867730406,0.35867113672699524,0.3560661710645947,0.3400190552242721,0.33781517044251386,0.34062303538607086,0.3304247608186408,0.29607419954975356,0.25654941932307307,0.21847972682295458,0.21359720245946945,0.2386550003702792,0.25958718131018976,0.29143706306560113,0.2821368292108948,0.23541505131178941,0.19243002670801235,0.1477233181171822,0.09021344375300822,0.03682467244609655,0.0,0.023506770594398096,0.07640641302996998,0.1360461507966506,0.20012342962959595,0.264097446461246,0.3216292507417715,0.3799715521186462,0.44400035031101126,0.5081085172254478,0.5722142114812958,0.6346193978518815,0.6889903273292974,0.7519861961838288,0.8160936048212979,0.880201771735734,0.94429376635498,1.0,0.9773418059071068,0.9140283979535213,0.8499212194039116,0.7871227846973579,0.7327631350482755,0.6717532065780611,0.6180797232110997,0.5690776170741128,0.534443471333724,0.5102106115210514,0.49410648859818673,0.4898060203668697,0.5104816827596257,0.5110009546329506,0.5071702325365823,0.48473217732738627,0.44389883445077727,0.404323041381764,0.35984256955625593,0.32453444849278124,0.2879975329470732,0.2698430136620966,0.2503456843801064,0.26995149948820285,0.2943258834361464,0.31205477351235533,0.32671144502121496,0.3266480477195204,0.3344319231973798,0.31790599179520984,0.3002623572617955,0.2929185236348191,0.2776982656232636,0.3034954055623247,0.3030737650906705,0.2814535854565543,0.26105974714966385,0.23671627891686953,0.2533111756068598,0.2780457523712492,0.31301305637762233,0.3350953728648345,0.3033860938672215,0.2666533095843817,0.22724923062561864,0.16527525926681141,0.1097461642834412,0.07382164171295491,0.09775349530519928,0.1505238220629821,0.2099068654700329,0.27398076478448896,0.3379752142393837,0.39576722141130105,0.4538415192557914,0.5178576854659047,0.581965852380339,0.6460738239371597,0.709526532179781,0.7643137005529184,0.8258491286866425,0.88918580691139,0.9139182884988264,0.8679963584525283,0.8052546022404514,0.7472084856296872,0.689506459639234,0.6320600506037337,0.5775127205365105,0.5407729905263503,0.5177976616043711,0.4987870756822139,0.5113573653331587,0.5133696925997411,0.5320153078461103,0.537360005375755,0.5126981701649136,0.48688069265975864,0.4524238421142357,0.4143951298329669,0.3677915192298542,0.33251940532448554,0.30457441615830994,0.2959864024229568,0.308261739354569,0.3255193918210735,0.3463329885777964,0.3571331353398244,0.3689376419525048,0.37902758874878684,0.3635750368749999,0.3460035767709724,0.33494871639913404,0.3268998829784202,0.3223202156991445,0.3222789138466171,0.2941859019113111,0.26815564360248634,0.25016755493732856,0.25799672021210807,0.2909702815372992,0.3245965368160155,0.3497117897194362,0.31760583554823674,0.2749616995349655,0.22971603033946164,0.17425423241404947,0.12012206850536722,0.07343199917288068,0.06889073627330977,0.11428701469570401,0.17544653108401764,0.2302639839193994,0.29362708798926884,0.35773498285013794,0.42184314976457227,0.4858764212036313,0.5441628138691939,0.6017279050021527,0.6657200704459876,0.7298282373604223,0.7939362639067955,0.8574916320619961,0.911203723826854,0.9210864504201499,0.8647556264282543,0.8099725079904347,0.7465197997478148,0.682654320505232,0.6270936210910265,0.5830146715349147,0.5432705966077878,0.5265118940713966,0.5124950845319698,0.5228634588331804,MI
0.059559945185423846,0.02493768242438643,0.0,0.009671393015042828,0.0479751779672537,0.08307288867882967,0.12526148828369177,0.16868278758687638,0.21210495042927335,0.2555271132716699,0.2989122217691633,0.33772287374532506,0.37538071930781114,0.4187203603523373,0.46202090453352507,0.4995045103254554,0.5385227604918268,0.5798789240391504,0.6152902712956654,0.6572311977249197,0.692362946766423,0.7346097369387758,0.7764328117446004,0.8117048645520308,0.8524019749036662,0.8869816308961873,0.9188113844284358,0.9416218979409241,0.9527316828051082,0.9495397664971292,0.9481844804256003,0.9480967428606748,0.9417700007367604,0.9249431971887663,0.903387355458259,0.8794456393387651,0.8499584363471266,0.8257815314292423,0.7974540744345835,0.7715928614153447,0.7473427016417533,0.7312910886051922,0.7194216166277996,0.7257402277155134,0.7413173968610596,0.7653750992126254,0.7847221825513973,0.8060007800664071,0.8218291350033557,0.8344668391412053,0.8489335618680063,0.8618399487849295,0.8676335243114313,0.8665886794628799,0.864225165527549,0.8642194035808974,0.8643013901161001,0.8696746033637739,0.8747874959570574,0.8808758129029657,0.8851782888663047,0.8852102121587464,0.8852624745994433,0.8902116799950217,0.8956286674372682,0.892957451275405,0.8770438318590745,0.8655131129825377,0.8710222476093712,0.8801351861829083,0.8992736857904626,0.9113313107408718,0.908349027749513,0.8706280321675437,0.8301518896543436,0.7940041336158219,0.7508690372605733,0.7080533714705766,0.6727294911359558,0.6310948090419091,0.587676570150808,0.5454272867215784,0.510295537680076,0.4679041648553104,0.42448268237975784,0.3817681562970412,0.3464785851219059,0.3047115518214727,0.26330781603322584,0.23550911104283556,0.19563617330979977,0.1628991759685161,0.13589031374666183,0.09663373619503757,0.056020148176346596,0.04082259876386163,0.06676429673257345,0.1094147893272912,0.1528310230864134,0.19373155711439383,0.22954335788324398,0.27215027802792724,0.30788632415262596,0.3489622220528126,0.39237460104268185,0.4336579624403232,0.46914980115304794,0.512136286252735,0.5525091309993064,0.5887709665859115,0.6313271109377296,0.6667337891313696,0.7082674489187322,0.7493433750733147,0.7850052408405319,0.8280240471466127,0.8681770213592639,0.9044816340518862,0.9407480092909033,0.9711877813991625,0.9966972147849873,1.0,0.9919001988201459,0.9892366232940104,0.9810161513065736,0.9763593459647337,0.9567838037363552,0.9286814791232552,0.9038095091025817,0.8782113000063316,0.8521262425383622,0.8240871234104028,0.8012564713214232,0.7762389383018917,0.7601589671462636,0.7595384708395152,0.7698122304047623,0.7911321703940706,0.8124428195738147,0.828698793611494,0.8431425170355458,0.8539223029239791,0.8651355698407401,0.879271312845533,0.8850940804516279,0.8806412262619161,0.8808296741961827,0.8851732290158068,0.8852105255399576,0.8860246022270986,0.8943699106831695,0.8957046136279854,0.8957056164477175,0.8957056164477186,0.8957346812441342,0.8997954037959941,0.9060766335689385,0.9001012705300246,0.8753357961353143,0.866112387531812,0.873790067129528,0.8802629771380635,0.9015543462037572,0.9130320384051696,0.9106531746315079,0.8764388181878398,0.841040772792309,0.7982091768183872,0.7575189426133866,0.7215084232128057,0.6784301336228482,0.6350264359582396,0.5955169247280954,0.5585044387718257,0.5152369213623114,0.4718147585199144,0.42839259567751786,0.3849704328351198,0.3415482699927228,0.29812939948295925,0.2567451154783644,0.22122864797437125,0.1783548627394611,0.1349328600696602,0.09159776221518201,0.05606272985603955,0.049419302148530186,0.08172496908344973,0.1237523251050976,0.15895269246557153,0.20140425530936112,0.24465475792317393,0.281431683961612,0.32118845907003757,0.3635385522467478,0.3986771631201482,0.4409465073542125,0.4838081791212667,0.519297199297672,0.5605323593607638,0.5970822995464211,0.63706842356457,0.6776482207740673,0.7137226950618443,0.7568370122484509,0.8002591750908477,0.8436810384801301,0.8863272484525817,0.9204555855448588,0.952956873006815,0.9778982811896759,0.9891969316518621,0.9873462974303822,0.9799900221975058,0.9796546166720843,0.975422197417374,0.9558178802339246,0.9302367522606967,0.9072547855146296,0.882396575308761,0.8583347417627094,0.8322872176403295,0.8038249475063042,0.7783008878048716,0.7623674838054733,0.7504577674610025,0.7564707524193148,0.7759439031926922,0.7932782956717768,0.8103722153070836,0.8275964665213962,0.8447466095435052,0.856534975270451,0.8673745269580211,0.874643519109803,0.8781511209676691,0.8751261203781355,0.8802351099905088,0.8753668976586861,0.8776863575631588,0.8801651622879578,0.878460118976222,0.8869026847859194,0.8951598867880473,0.8957127099858375,0.8983222870138239,0.9058570513422106,0.9052501751257809,0.8969670356903019,0.8889994390955858,0.8686059651525033,0.8567593109417548,0.866404956483178,0.8799528567032766,0.8952080942802594,MI
0.25752009818137855,0.2393587636529131,0.19050313372610628,0.13349434723207976,0.0782765461994841,0.0655697450421675,0.07204383707407791,0.12111982064440596,0.17979931894649637,0.2174357814223442,0.17679315396977824,0.1214356812632782,0.11536086806465518,0.14888819176838952,0.2125025719179039,0.2880576936578536,0.35987802554566395,0.4263901224808557,0.5039736797547927,0.5350974862495912,0.46423649619639606,0.365968594145746,0.2674224715233944,0.17093235113400684,0.11961133476753272,0.11357955600546843,0.1135527775708911,0.1232204590549899,0.1588673925414299,0.134729705730269,0.1442396921880129,0.22677544446295883,0.2873978787395104,0.32512586597527715,0.3236700266167736,0.3505142116784308,0.35515265114463235,0.4384472852833059,0.5256026007216805,0.551813176980708,0.5564361901914023,0.5945097581335435,0.6616565648233892,0.7297588816738987,0.7735012514611492,0.8203104937152323,0.866888940686172,0.877256394665558,0.8666933533546679,0.8817777542088372,0.8944139541528875,0.9255497543193325,0.9101704049640702,0.9366741567109846,0.9459109007016,0.9289452063862607,0.883646903368593,0.8226106062541998,0.8042135644178527,0.770376832174013,0.7635414859782186,0.7860445571619437,0.8203886304321912,0.875341907359303,0.9053514758950412,0.9121700911521602,0.9297442764084325,0.9457389032693504,0.973749902753652,0.9367667618706372,0.8530141335047778,0.7714799500538323,0.68670398381746,0.5988727638828375,0.5016567577260225,0.4220581397070111,0.36052462651219397,0.38852569035167406,0.4673929388540885,0.5653165260459252,0.6598855408428808,0.7397814975901387,0.8208927445551897,0.8458721614689138,0.8025463131586257,0.7382634673055164,0.6837456682047631,0.6385338555255351,0.5849129556248887,0.5286343528397572,0.46441788276591334,0.4214745126286972,0.3580783901023996,0.29320243999691575,0.23435737964665648,0.17013651638532057,0.10843070599855142,0.06703369135744319,0.07324173141586598,0.09316225973993042,0.1371926471967222,0.21061957051198776,0.28371633303140875,0.3391928574906471,0.39951329216237097,0.46132229465179186,0.52093696262581,0.5840231440786852,0.6434724631876763,0.7194355621651134,0.7805994089724484,0.8384476251781612,0.8684783656486257,0.8985366027608874,0.9063006290997349,0.906356752557234,0.9132579504694123,0.9370103033075097,0.9356001638680569,0.8753123745027329,0.8366639526548321,0.8136448413643604,0.7867640546894306,0.7917132574319101,0.8237692461364743,0.8822380573104649,0.940690489076978,0.9726335999265885,0.9786694950145218,0.9861744059179545,0.9790098303724335,0.9697529079401725,0.9170462402970418,0.8398370987622288,0.7604053543987215,0.6716408916532579,0.6137998518003807,0.5372041250810886,0.43975724583093667,0.34787498999900546,0.27762653614118715,0.28843639655792863,0.36257754629867067,0.4578266109323095,0.5538864946536068,0.6334739001938203,0.729443155588688,0.8268376111966251,0.9074438896281718,0.9835309513709376,0.9694316445361784,0.9020200577501463,0.8279056678754433,0.7437110356663492,0.6897001383397927,0.6461545942704352,0.5968306289388825,0.540677355218905,0.4974828197686785,0.4362223083824275,0.36016569600010895,0.30558227705094776,0.2500108033360591,0.190322897363143,0.1420098236391949,0.1047019733386434,0.09307972047494006,0.12333778913174687,0.17883316611658762,0.24130175163723333,0.30173005144799303,0.36601742538572735,0.43482445763648014,0.4945178053668342,0.5541549878612071,0.6250748415120166,0.6879460080125788,0.753209505326228,0.8030222022121851,0.8519783039997444,0.8922856538688988,0.9267860452618066,0.930938810423326,0.9481351234434161,0.9718672546025795,0.9731718124214055,0.9630522192036084,0.9709842160771576,0.9348141545987252,0.9006537883953234,0.8565669570018413,0.8347046363163839,0.8350005165355858,0.8655975167431036,0.9260154471821815,0.9933195467963714,1.0,0.9670696001195873,0.930415310255893,0.9177179753614659,0.9165311619546994,0.8943933015951329,0.8397953363241406,0.7607135542695191,0.6724624035002282,0.5876506620860584,0.4895406352729572,0.4128331892226633,0.42253514612772225,0.4996997330466457,0.5931318916774226,0.6734122245474876,0.7709896593685945,0.8687369585219589,0.9489974354635669,0.9859255463987253,0.9323185661426647,0.8666547035311734,0.7940321333454632,0.7118664933855707,0.6457383652794846,0.5892247918103477,0.534303114011994,0.4906383147573914,0.4466585769331868,0.38703107719934327,0.31021736466405647,0.2557068852853219,0.19630541205184615,0.13437479246409278,0.07343319689942973,0.022433367985825736,0.0,0.005242184331613942,0.00961348637673698,0.06112504585558298,0.11746430790003481,0.1763333529037121,0.24304470982143878,0.312306129602717,0.37377285809679517,0.44632475641277436,0.51271299145571,0.5784479255401598,0.643896729871007,0.6996434487073788,0.7547612728403563,0.7662485352994075,0.7895855643184069,0.8248099973733467,0.834321339592087,0.8459201298743011,0.8815139354314683,0.9006190747506357,0.8834735602166193,MI
0.39320925022295183,0.3943442144419147,0.4241651849687531,0.47345716365798296,0.4803127298048655,0.44738562292136796,0.42364078487360857,0.4054875654885701,0.3475384336389662,0.30112929121363674,0.2697328056275703,0.2615026110693508,0.26320207335209966,0.2929088380884801,0.3584464080600229,0.39374176704356634,0.4184020392561769,0.44983696012332963,0.4433312547555355,0.4868448702623418,0.5449943714443144,0.5845084577597226,0.6307443934852053,0.6790328931936065,0.73798801716906,0.7841604580231971,0.82000537062493,0.8545272199164611,0.8772457766451818,0.8954546822529057,0.8984800310206698,0.8972093896957181,0.8789857491795785,0.8740194205937555,0.8563209487194849,0.8545454699189095,0.8545447480921822,0.8545822635601041,0.8633873017296834,0.8763623402837899,0.8679819180688613,0.8547962857126641,0.8545447480921857,0.8545447480921866,0.8545463886074778,0.8580395100031635,0.8750264481589327,0.8604503886891752,0.8548641072473582,0.8688711986506461,0.8764956428263004,0.876513111383165,0.876524342613382,0.8815003220045301,0.8977968934360576,0.8984814746741399,0.8984814746741407,0.8984814746741412,0.8984903164282034,0.9031242740546479,0.9196947562781954,0.9204498379651174,0.9203326983043301,0.9060284431836219,0.8771059122502343,0.8566276003967674,0.8561997819672045,0.8865949499615398,0.9126162927869652,0.9204296755946384,0.9210496935217161,0.9376642783225093,0.9539781261377156,0.9785050612191388,1.0,0.9552934935488984,0.9024059967836058,0.833525089618075,0.7669337970453554,0.7151446920717084,0.6474384566512934,0.5780879724030505,0.5087368647589967,0.4411715549090247,0.3898782654469395,0.32265092080863544,0.2533007974737571,0.1849632731623685,0.1331869873126026,0.0674055707062422,0.015088003826130958,0.004302681762142324,0.05170982331094143,0.10523486143405236,0.17404238873770206,0.24293271556102836,0.2960190949902315,0.3601320730629243,0.4294784560229421,0.49880319908779613,0.5610121894975779,0.6158014940595633,0.6848387499759103,0.7439409430117747,0.8015282316433607,0.8563127755726545,0.8759108921309644,0.8629502845012302,0.8352653188345429,0.8304373951465287,0.8125562643805817,0.8069761886739171,0.7790430548945997,0.7548521316304466,0.7389372087216204,0.7071451450797102,0.6724969074131022,0.637805963207557,0.5998961153368421,0.5585385715038638,0.5331596779923582,0.49932850445206434,0.47393094354410215,0.4507455512224592,0.43903450907563757,0.4566897271148562,0.47641097468305116,0.5107592284528848,0.5522687621486195,0.5920829281044004,0.6373258504277075,0.6834343790053827,0.7298864581160225,0.7835142284764358,0.8292745853525418,0.8650231454525974,0.8995125213619333,0.9257215000163459,0.9309498472312239,0.9357580818936619,0.9424117704361747,0.9423845698175333,0.9338870079418191,0.9207013755856206,0.9203515549996921,0.90836152232374,0.8985321388224108,0.8984814746741705,0.8984814746741714,0.8984814746741723,0.8984814746741723,0.8984814746741736,0.8985205831261989,0.9076199302073715,0.9179317908239493,0.9003012436374331,0.8984822293112096,0.8984814746741767,0.8984814746741776,0.898481474674178,0.8984814746741785,0.8984966883646544,0.9039686653874344,0.9091294454464918,0.9008629186972934,0.9189299675911742,0.920449837965156,0.9204498379651564,0.9204498379651573,0.9204498379651578,0.9204498379651587,0.9204498379651591,0.9202352597193371,0.9057284349824095,0.8897713532396896,0.8669143436997158,0.8617666082475708,0.8934788481474705,0.9281158365611719,0.9570583627453182,0.9455738940443625,0.96065151821721,0.9643851208936551,0.9665931988850103,0.9790066949070342,0.9421449975707938,0.8753057583717045,0.8060191609076655,0.7467663309227692,0.6890625749097667,0.6198709378780856,0.5505200927164768,0.4833977327508938,0.43187907260173564,0.36443405033520015,0.295083762948793,0.22573265530473785,0.1563815476606849,0.08733901886090667,0.033369274257145864,0.0,0.017499168591547765,0.06531618562102626,0.1322599482276421,0.20096710701425868,0.25379291714844454,0.31834845138185663,0.3876945718594258,0.4550089875490251,0.5063924252859389,0.5737779803715277,0.6394071884283492,0.691457385070136,0.7596130519522393,0.8135249061146257,0.8320788534351418,0.8194441443278637,0.8038921173801441,0.7863636458284837,0.7592798801842311,0.7448341716512736,0.733098411497239,0.7100069333152215,0.6854161746539993,0.6515448709135621,0.6258444276834751,0.5859702860787244,0.5507351084427401,0.5233545272049374,0.48409209343099757,0.44315888242955026,0.41443811026656885,0.39138549569146486,0.37284845373502984,0.3860941765458148,0.411455051288212,0.4458945657310487,0.4806092275099054,0.5191949974631722,0.5654361239540582,0.6138101673502603,0.6727129687785416,0.7192267824827758,0.7645562063700755,0.8038808562843651,0.8457947499881411,0.8802055788535323,0.8981247143596969,0.898942255494934,0.9132439009689697,0.9005143606331907,0.8984137423471354,0.888023506766066,0.8770245563522052,0.8918919668415546,MI
0.552376801304777,0.5726280630757361,0.607599192081645,0.6431173891144706,0.6770312434057388,0.7163826132251712,0.7588777179109727,0.7995194960222152,0.8326711578148711,0.8722671755040639,0.9005276171022263,0.9022835669632412,0.8763145196692397,0.8573992806368069,0.879912560740886,0.8929331719153482,0.8764783059102037,0.8525236322612695,0.847857471104444,0.8454281645776602,0.8319574687600915,0.8123102769911787,0.8001556231809441,0.7914787181112459,0.7978369694562908,0.78546974072169,0.7699199518897994,0.7762826409582819,0.7764344248922701,0.7701820993953843,0.7536501496514789,0.7598322785748823,0.7645507464814678,0.7687597347031134,0.7762855005680775,0.7764771566707924,0.7797809495426693,0.7880654584520961,0.7883649349508446,0.7883649349508441,0.7883649349508433,0.7883646410798664,0.7873628253761848,0.7734897771203622,0.7731540291527959,0.7764605147713264,0.777274388955598,0.788349918471708,0.7993719138363458,0.7942274783735999,0.7894826848202829,0.7978458291610193,0.7895027018097684,0.7941327414268355,0.8018488139954141,0.814366522091406,0.8242561890449254,0.8333405571302313,0.8264230345551338,0.8239500758434393,0.8166288364108978,0.8006221244130158,0.7795348677857554,0.758281371500866,0.7356028541640993,0.7065536835236539,0.6747556293292105,0.6426715203356206,0.6105060698340461,0.5743086263544821,0.5379280464850535,0.5029960497663806,0.46995915338013416,0.43323659820702387,0.40122678589588,0.36687577453540343,0.33245059905110175,0.3080858725855824,0.2831815832766875,0.25114239733718513,0.21898732848584457,0.1845942731876713,0.15255914239398605,0.12469817481526113,0.09235149781731611,0.06484249321539193,0.05766750160106748,0.08146374935091627,0.10424862506019461,0.13045592236946102,0.15870113289735865,0.18750979200442264,0.21942389425590925,0.2514477437341167,0.27994700855274135,0.30622009549056894,0.32772428433084766,0.3530323785587972,0.37610348208801425,0.3982884045373811,0.4243262968596291,0.4455224371048916,0.4618740182150045,0.48235746984444416,0.5012898165534061,0.5189653401946932,0.5401683451701103,0.5595475967295076,0.5724669543110203,0.5770560911390896,0.5907032066628939,0.6115718444416038,0.6399112076277771,0.6775926243651147,0.7090317665568941,0.73348773823889,0.7645592319866228,0.801200460902314,0.8404607539054185,0.8745778279966523,0.9165359533045863,0.9505435189223601,0.9854248496370752,1.0000000000000002,0.9818078129049097,0.9424382388287313,0.9062621931433548,0.881298824190538,0.8927284202556856,0.8784915401977067,0.8561280962832172,0.836978934908511,0.8310681892365521,0.8115780059321327,0.7951124114230124,0.7774182276697907,0.7659534778266159,0.7736851076079632,0.7706634222035078,0.7712249956164905,0.777057744190975,0.7863794372172233,0.781462602335887,0.7764878254091212,0.7749279668702951,0.7678515157034773,0.7888878617610671,0.8083184291162497,0.810071640010644,0.7939370433648072,0.7883846626979285,0.7867512254041624,0.7702379412007165,0.7443783717769088,0.7217541918783776,0.6957154512687744,0.6732563379232774,0.6501368903501503,0.6557739929732449,0.6699445169132805,0.6885925758654021,0.7144916490813331,0.7336029911503179,0.7628512664375575,0.7760428809572242,0.7764873457375965,0.7811780108222435,0.7882443986145187,0.7883649349508091,0.7883530140980854,0.7832029413682629,0.7600599723960648,0.7436446951147981,0.7297394285093957,0.7299528561111239,0.741979815387096,0.7596969033917815,0.7761032409979862,0.7922107567555796,0.8031192936124885,0.8165823600493936,0.8273023232546171,0.835618796930995,0.8308799213999152,0.8200293049294614,0.8001604824630595,0.7727091754576121,0.7443694538389047,0.7159666797150777,0.6844768103868326,0.6509022345703959,0.615564600980977,0.5817889887469476,0.5489634555006893,0.5141658046767923,0.47924215921519475,0.4461634593240089,0.40435922576266603,0.3656655183914306,0.33186971099945417,0.2989919360199864,0.2611253846651931,0.22771232250585882,0.19488573739799686,0.1629726403573577,0.1276488005690546,0.09562192803937375,0.06383656989351416,0.035237657246231846,0.012313470724350184,0.0,0.02610107645761417,0.05451266528987353,0.08556177700132706,0.11514606202419109,0.14344622778965221,0.17169713906161532,0.20063494225696044,0.23118195630159133,0.25685577085303857,0.28918396579763916,0.3212924992823267,0.34679168335226906,0.37308050395536263,0.39479286845996886,0.4160453528815402,0.437296394176077,0.4586162239140976,0.4839321257775311,0.5089594045817387,0.534616842916571,0.5410938737003055,0.5577117912041893,0.572228631569341,0.5850321421689233,0.5956088482075736,0.600154200414128,0.6140608391639373,0.6410363197390141,0.672989641555559,0.7110401297738165,0.7530361191274946,0.786498860421956,0.8266269342432351,0.8689017513286437,0.9027814752206476,0.9287520910888729,0.92187779123997,0.8898830547000005,0.8694345905024756,0.8926411738553155,0.9062539594905072,0.8891738214669374,0.8616802929503209,0.8483522109997861,MI
0.3607915681473228,0.3670507798432445,0.4096642330146558,0.47547390792245947,0.523624497341642,0.5713788010205776,0.5917066259826913,0.6153023136886531,0.6711375455365096,0.734185083126667,0.7839944588194392,0.8360958396119758,0.8738912983367415,0.9146654270172889,0.9442290256233008,0.9553868792492985,0.9589350456297021,0.9391296659403636,0.911258595123321,0.8927800714987613,0.8723723796215119,0.8540910049731711,0.8374097055390659,0.8315185883669822,0.8172867733736817,0.820357880093856,0.8347723559502795,0.842161179263154,0.8435658394593566,0.8107119689811495,0.7845231994482273,0.7602221464690238,0.7312828466098833,0.7252277515896024,0.7573074258746701,0.7984500267875276,0.8435893363116138,0.8802858729292731,0.9079369387161216,0.8974109316796959,0.9035791373732098,0.9323968993921423,0.9551356676221978,0.8962578504913727,0.8236251120758133,0.7509571168367986,0.6782936353555957,0.6090044475445837,0.5525178308753733,0.5067742697296334,0.4533327241360725,0.40920673824450216,0.35378221749783023,0.28352992389105625,0.2134846450597654,0.16163100049627532,0.10812180198377108,0.05401128007994993,0.014211962539449008,0.01909813884240341,0.06043726882311118,0.11638338805884674,0.18830148758407894,0.26083503871751157,0.3238529378184314,0.38577154096260147,0.4301802926768046,0.43119091038492785,0.40869848346701865,0.38996431704631984,0.3673410257603087,0.3608710298276647,0.37229401902406023,0.41300405605612456,0.4501211070548852,0.49426283737538146,0.5376756806887708,0.5817888279720416,0.640803578815285,0.695430276797294,0.7498316145229547,0.7991765625296412,0.8442192898571688,0.8834637150601039,0.9105463385247652,0.9109224847440283,0.8933394549961204,0.8701178354927905,0.8431732318085285,0.8354595837486274,0.8386240471868036,0.8533881804777561,0.8599230318939513,0.8604074417364536,0.8676228971563851,0.8833279558348064,0.8561069891645219,0.8397894076660126,0.803553000228062,0.7811842694731355,0.7489958815610263,0.7534681514156931,0.762674383223684,0.7918688843019757,0.8375450424417186,0.8807113449384891,0.9008231216216056,0.9122856471780425,0.9302502754542381,0.9567243822468279,0.9717882619162652,0.9175055002494701,0.8563294620630955,0.7838743673829915,0.7162194977291683,0.6569317753984647,0.5848481264792804,0.5123755755609092,0.45084595127886296,0.3857847387807283,0.31805828499931454,0.263112021476235,0.20621046640790475,0.14912206462266608,0.08552671380474886,0.03356857694372106,0.03412134959516111,0.08733416499807412,0.14415547785253224,0.20204247585161106,0.2691003896060624,0.32994384632653784,0.3949139610374881,0.4451189139574163,0.45226898959893314,0.4303316152213892,0.4029362612425471,0.41060836131027534,0.4161365468731293,0.4071589575710779,0.43631050166127094,0.4698200959855616,0.5020781047820861,0.5498621404560451,0.5983459184700819,0.6473170294404396,0.7105266810673188,0.7750192497655881,0.8286950356385656,0.8677367682650785,0.9040722294560286,0.9389135351020417,0.9670898847200746,0.9758274877388713,0.9836682945721975,1.0,0.976931286901229,0.9821780445362793,0.9684519983100399,0.9531311058543674,0.9593683662865384,0.9420516845302496,0.9356890789018104,0.9332230206998391,0.9127383092822416,0.9317205477991841,0.9485945739335193,0.9249879040913811,0.8908645556245012,0.8578292223697295,0.8143587419267573,0.7979657606287218,0.8121167610447109,0.8474305794610695,0.8873961485959003,0.9295007342114285,0.9619695807712172,0.9683090327564177,0.9684921313927735,0.9770706097696253,0.9465566579083227,0.889682004721867,0.8200485848371839,0.747383281005602,0.6747156351880541,0.6034381556140946,0.5456589342721951,0.47569672291341414,0.4052346116327312,0.3482701305072915,0.29061311678868273,0.23134426541259634,0.17684156646507088,0.1374757592406537,0.15020179180756754,0.20159990175674647,0.26149391101930597,0.3200259564546606,0.38828346531887004,0.454849973102315,0.45331804696616507,0.42285393995740383,0.4176901984531267,0.40604681770747053,0.3737547305892024,0.36124635539108363,0.37313894734295916,0.38904085156751345,0.4226372530989084,0.4628531882335216,0.5159973993347498,0.5659456592562497,0.614302167887546,0.6646775213963245,0.7174928586669354,0.76429868341781,0.8064040623406115,0.8654436787791813,0.902222828737814,0.9266677844967095,0.930305837269982,0.9227194963303207,0.9000011174513909,0.8957389747554938,0.9034675415213229,0.875653080846913,0.8604594065492899,0.8560930705385368,0.8705752807051201,0.8527242369429904,0.8386404438774293,0.8427777203579292,0.8151594892820757,0.7783263635853581,0.7378498278661376,0.7114474270400688,0.7055330264086908,0.7364703459492952,0.7639905972415391,0.7681946789915868,0.7357952752335462,0.7248664937665539,0.7299456894946466,0.7076934685583516,0.6558952640946867,0.5897356474581588,0.5176384195291779,0.459027853645384,0.39073133262648385,0.3193942808445627,0.26158393122024926,0.19172521155647226,0.12119073686320014,0.06373583371867841,0.0,MI
0.6417534621235523,0.6529150690468617,0.6593929974486681,0.6422621142649474,0.6417562851543637,0.6538875338896077,0.6629663525433598,0.6454074219590855,0.641729429652969,0.6417291429795071,0.642178469226871,0.6586893329957366,0.6641818450734194,0.6641875182624872,0.6641875182624846,0.6641875182624815,0.6641875182624792,0.6641875182624757,0.6641875182624735,0.6641875182624699,0.6641875182624677,0.6641875182624641,0.6641875182624619,0.6641875182624588,0.6641875182624553,0.6641875182624521,0.6642642438857376,0.6770986763041527,0.6865868422234498,0.6954709022370835,0.7084372762772579,0.6903038738808274,0.664592970249072,0.6434987057283168,0.618697464833442,0.5771973221974593,0.5355852745928478,0.48959157435945144,0.44543521859836455,0.39612749825640137,0.3482195715389764,0.30610055364946964,0.26482861138687097,0.22294887517510986,0.17312630771469273,0.13152287914447758,0.09018815312180539,0.05685455322290567,0.026274127057506647,0.017817505614763363,0.050141552504999076,0.0886893143008951,0.11197511776556457,0.15117063528603625,0.18274047358854206,0.21049288897374607,0.22583761517919587,0.2582401497243363,0.27349247322340586,0.2828117157394141,0.299987022289284,0.32088754035932077,0.34174662848937976,0.3539799566159645,0.37132051070095073,0.37222858852564356,0.37222863958349484,0.3722285669782859,0.37085773544437384,0.35182953475301826,0.3278790535119822,0.2951365346214021,0.2622478721730417,0.2917368108506091,0.3530730185426836,0.415427035240294,0.47602542406925963,0.5084920205053303,0.5567047586879506,0.5943571475116336,0.6375627237280157,0.69972461177702,0.7620796128782317,0.8244346313110076,0.8867896141438112,0.9485429771157219,0.9889558795220323,1.0000000000000004,0.9788644568640934,0.9311912763875259,0.8878902766752712,0.8402837984949065,0.7911035387634944,0.747039437852699,0.7013196656692973,0.6666544024603254,0.6641877000095815,0.6641875182623531,0.66418751826235,0.6641875182623473,0.6641875182623442,0.6641221552011989,0.655177947998558,0.6418438202166374,0.6404389709988401,0.6250596915954993,0.6401559205894616,0.6398750908238755,0.6195964450675615,0.5994975334082651,0.585158377167923,0.5543102013197743,0.5291158075164271,0.5080284141862044,0.4881228432048639,0.499930010841541,0.5125438002149303,0.5516174393105824,0.5762824636560224,0.6033645962191447,0.6337517161215889,0.6416923376850079,0.6417291429793064,0.6417291429793033,0.6417291429793006,0.6417291429792975,0.6417291429792944,0.6417291429792913,0.6417291429792886,0.6417906604138355,0.6544251761826705,0.6628769427508274,0.6475180668784302,0.6625553992185931,0.6641869828593925,0.6640474325793693,0.6515219485514532,0.6417493000963796,0.6417830563194453,0.6543177128344642,0.6639864649665528,0.6528640704889601,0.6569340903491296,0.6641661096844844,0.6641825080133237,0.6592821909748285,0.6424300890203849,0.6561696865832531,0.6641441324427806,0.6642035489524027,0.6725824416928985,0.6864772374481212,0.6866458865189009,0.6866409661638113,0.6817207030246402,0.6536896958627967,0.6223089197445661,0.5913390000688556,0.5556287831877009,0.5176699079716838,0.4793435474400014,0.4379731360876087,0.3967013217038575,0.35542947125171276,0.31362141726524984,0.26357775009749407,0.22208054013659373,0.17635683392199564,0.1327643536806704,0.09149318554372599,0.051402554989668836,0.015245831560707135,0.0,0.020013977794173243,0.05002069322888758,0.08098811265081052,0.11226791827939309,0.15152927309739672,0.19176480068516089,0.21236090928678575,0.22611858189212386,0.2467096231505126,0.2752878621879207,0.27431991395147026,0.276214929250719,0.30414426355812196,0.3213013839818055,0.34211916615112603,0.35425221757991743,0.37142130633461035,0.3747572406206663,0.39258916300578806,0.37826708993493474,0.39119686828118283,0.39457861531457716,0.38296961131561025,0.3432858072722049,0.31137127289452904,0.35949334405584255,0.4217690440116293,0.482640600432934,0.5261841940112282,0.5863777974617772,0.6487308717438509,0.7110858901766273,0.773440887998893,0.8352249352849088,0.8799878598207944,0.9266142831724733,0.9306644910092499,0.9040780306980554,0.8675521578876686,0.8262879934613703,0.7844082792653828,0.7348701561922368,0.7089283123712082,0.6889498846480744,0.6748697357243536,0.6545558360890014,0.6424300890202761,0.6604679069334081,0.6645267028197162,0.6801102068144975,0.686639060210767,0.6866458935451059,0.6866458935451027,0.6865695418631113,0.677098664593295,0.6640845991674538,0.6495814091833636,0.6368348235285404,0.6162836169698829,0.5972228012400738,0.5810858592054409,0.5596499679179909,0.5321689767297384,0.5127681337063641,0.5275970843428319,0.5517562930719144,0.5759914103981716,0.6028235853901038,0.633485197639093,0.6540570541049435,0.6639864649663769,0.6530639210910487,0.6567865106890309,0.6641617142359704,0.6646519988297901,0.6803274390491056,0.6682783255369329,0.6641878349144399,0.6641819279405032,0.6587634402427147,0.6421860733207949,0.6417291429790564,MI
0.5223061705036924,0.5540097780595872,0.5588066661872881,0.5480873976485503,0.5525454020772704,0.5481060376459057,0.5211393882027915,0.49873984691212847,0.4739308855407005,0.4452924370552207,0.4252439266332626,0.405068833866995,0.38831530191725516,0.38975208254037685,0.39310322066178305,0.4161243256201521,0.44398620460984883,0.4755584709426923,0.5411201226818818,0.5868805607115011,0.6335106759608164,0.6537966860298177,0.6739425169313158,0.7024560198215672,0.7112642419187436,0.711280133473303,0.7113178160421043,0.7245977556162861,0.7489872216160531,0.752518160292011,0.819467863892819,0.8871723728326293,0.8873376664986523,0.8199340768422765,0.749351510593665,0.6992085017151561,0.6007194514931058,0.5147875023192059,0.45783199540316044,0.3873783106642623,0.30413511318832676,0.19312066187132082,0.08137798997413981,0.0,0.060892999346346954,0.14087747590104094,0.24945457547929095,0.35175954213701655,0.4357839177417704,0.5234748511114091,0.5805582338023667,0.6580125798547698,0.7674941488037721,0.8489173470656315,0.8894596938734693,0.8405309896738578,0.7931585807825066,0.7675098610480546,0.7478975092318736,0.7317768052546167,0.7428718865712671,0.6909881329600367,0.6358940103600093,0.6061540874531097,0.5826192958038181,0.5284724451460354,0.48233092113625364,0.4480325306903019,0.4711100313212029,0.5374555469500937,0.5772531566888208,0.6314346027740623,0.662290973296157,0.6510472004330845,0.6728189481949745,0.673169183009203,0.6731691830091977,0.6731691830091915,0.6731691366658765,0.672624751887474,0.6451571071869502,0.6350725884175494,0.6350342046458648,0.6232256458332648,0.5974913577604823,0.5875032603233423,0.5890707762641565,0.5752448915937363,0.5569015875909589,0.5271031792074004,0.514104479075435,0.5101768348584992,0.503531931562053,0.4830163029873411,0.5071307100189326,0.5318608829536968,0.6007843860757056,0.6356033907149827,0.6754060364463195,0.7186935882384233,0.7789249118594421,0.7849499697519811,0.7719062502774374,0.7872401875054518,0.7925554691567331,0.8230852598303455,0.8401394600405263,0.8884286766845388,0.8715713284627586,0.8585286400730459,0.8273518540521296,0.8589555600059322,0.9330040412378073,0.9990472072331746,1.0,0.9157592247009481,0.8646174064315097,0.8038149808699222,0.7295510686686484,0.6693078245117832,0.6066406243881524,0.5304148724168112,0.42493274464957853,0.3194583693950124,0.2379628137853702,0.16361626552848207,0.24873895228360698,0.3512946148702465,0.43367684971478315,0.5133832192133134,0.5992142783869667,0.6929992385612636,0.7750561836097036,0.873358742590316,0.9372049929603836,0.9734326914736773,0.9233697922117248,0.8702624480634933,0.8550956431066092,0.7997381075212155,0.8254354371807526,0.8550889725821316,0.8112510211615094,0.7589251255219649,0.7493727997256325,0.732554722258886,0.6506748172860695,0.6230359050696768,0.5705861355379991,0.5318220675899692,0.5751898763502714,0.6253710661123151,0.6194453969093558,0.6307839132916202,0.603943233825869,0.5956337455136209,0.567206058813289,0.5948980986198391,0.6338634899184088,0.6064249900459844,0.5969571363101362,0.5969472820809871,0.5970336642442069,0.6169842845045972,0.6321101397185727,0.6015452936418875,0.596948394320366,0.5969469771907647,0.5950176852739144,0.565366267848276,0.5503158472665532,0.4914145944899504,0.4945223703339492,0.5202742364564097,0.5200502740232755,0.49215107142119763,0.4929245444837047,0.5608959723673639,0.59709059862901,0.6357899520277481,0.6726986937981314,0.7034287708510334,0.7285371639188432,0.7491174121791317,0.7494377697918191,0.7639510296766217,0.7871387278449546,0.7875020344005739,0.7873908257146098,0.771847656939042,0.7739302849571876,0.8127080895593775,0.8816303142492146,0.8979284125355456,0.837549465620592,0.7659142023444074,0.7141732486646095,0.6402704071405942,0.5732597762876868,0.5151200483374261,0.4227300425468412,0.340457137184929,0.23511586150152652,0.12508338938451136,0.10549284703335005,0.2122378831844891,0.3142065043922253,0.39859119333159665,0.5012375115584211,0.5833792207161954,0.6558921106923039,0.7327931176831308,0.8244337548224685,0.9163571275413398,0.9757608364370265,0.9756859017637947,0.9175551293889406,0.869238291319637,0.8989644217273343,0.901827177347232,0.8952124494060438,0.8356563933997148,0.8255676334416462,0.811019716397853,0.760209204007209,0.7366307783431996,0.7195199140937243,0.7751003734097193,0.8427021723065495,0.8645204548211494,0.8931185164651483,0.8929952149562919,0.8654533595267857,0.8909609926435351,0.8838859675686281,0.8897854839454755,0.8851486563796289,0.8638204875207149,0.8631072696682951,0.844525287489728,0.8624677743092004,0.8385707265926472,0.8572422853586747,0.8389785408545096,0.8256506669010033,0.8231039178164306,0.7832950136659704,0.7482140637274277,0.7074873243685147,0.6351946151477108,0.5781129587826923,0.5035756907319078,0.4095012744760993,0.33538872207769277,0.28071007967184514,MI
0.624074190760679,0.6369209162373051,0.6034364761627313,0.5670827441140438,0.5201252674829013,0.4956636526600744,0.46884347873311905,0.49125579511233886,0.5348666171246141,0.5841011617642704,0.6489697342692993,0.6923621361938417,0.7169156039913642,0.7611523057432534,0.7897155324712197,0.7274129511817233,0.6481165415215657,0.5741186037096377,0.49565863445966096,0.45650113791982827,0.37564468958670627,0.2819155246757665,0.18811285396363342,0.09444002594954881,0.018957876281446406,0.001104193648275853,0.0,2.838512990832598e-05,0.012191688723731442,0.05167412365272073,0.027084407940078936,0.01792952826023031,0.07957105082926885,0.10805379793191383,0.16417129160167,0.2388635128695782,0.3313401450650266,0.40661264228385763,0.4936538836323652,0.5734562531421106,0.6491933648771568,0.6895089866644288,0.7023689764222225,0.7399103641157345,0.720465565036926,0.7052166637264219,0.7039277602799738,0.6743764435720672,0.6546155372627367,0.6046741113762413,0.5958377356292028,0.5715440979403543,0.5098371607222343,0.48365478229708847,0.475535978926644,0.4586289612029639,0.4005487255016562,0.3759139240456979,0.34112051405544896,0.2918062931194503,0.28574456916935853,0.30895909038250435,0.3553829192576776,0.408660628954435,0.46734441389071835,0.509069089450565,0.5615106368415161,0.6305828274489316,0.671862179018651,0.686195362661953,0.7211328762852713,0.7275079456503399,0.7337711847515531,0.7240678377185135,0.708785828418399,0.7178944154733391,0.6902274597029838,0.6965120801751774,0.7118147174461389,0.7083974251912584,0.6939334369080234,0.6825618355410943,0.7171394578656076,0.706530346033071,0.7194311224009682,0.7104684840601796,0.6994525649674892,0.6848309745624896,0.6894708381345747,0.6870169030030628,0.6791613618702184,0.6888230851410273,0.6459620662449539,0.6021274742452172,0.6115319940853925,0.6024042063900859,0.6211674501129214,0.6450658325256744,0.712107040148799,0.7695307393017639,0.8268205422485813,0.8643371477123707,0.887976491192703,0.8773688500768304,0.789554308997293,0.7129851704832197,0.6274927536914592,0.5460348106520079,0.4656057628801933,0.3719579583171262,0.27844113426824313,0.20022148087171,0.11679566787793405,0.045899530974587766,0.04073219394380034,0.10247197562553723,0.1859152592360398,0.2600387719767676,0.3392910826543045,0.41972439044135657,0.4932083913518137,0.5825596675525717,0.6611678735700557,0.6566902681183673,0.6283250912083953,0.6470111886393295,0.6703468938091093,0.7197132572788214,0.689703023933268,0.6882259729239517,0.7193330048537541,0.6790073507192242,0.6396406779961352,0.6027236627501762,0.6035597569387359,0.5758297196041897,0.557948957687382,0.5304715485602558,0.46714544361566857,0.43466499469317954,0.3700548709640108,0.3459795091747515,0.3521726863929602,0.3219973067763773,0.29534753680406167,0.3277047083925222,0.4137935935923349,0.4936369062527146,0.5563564422189384,0.6182212368445907,0.661878201188665,0.7060793027997145,0.7326949060260302,0.7525429921461639,0.7743075020226615,0.7929142014718846,0.7798020598396369,0.7929177211504741,0.7801798823918289,0.7929177211504768,0.7813428554494881,0.8186432585316683,0.8128714617796233,0.8171909165348281,0.803835293872718,0.8286270140110203,0.8748419542607846,0.8565859278379908,0.8379180240903392,0.8521679981048558,0.895172967793584,0.897159816131222,0.8742033068381718,0.8586996991951854,0.8901129697697905,0.8869197745158357,0.8408349918521867,0.7813519198328369,0.7338772641435258,0.7493785548527252,0.741853083786491,0.7330320596755162,0.7639122743099285,0.8276902244935047,0.9047500626766225,0.9322874586648804,0.9443652673211305,0.9999999999999996,0.9675155736995076,0.8934673606320023,0.8082294462108819,0.733286958444261,0.6499833756292852,0.5765814374687364,0.484564521564534,0.4066195944258557,0.32346347942761833,0.259653604298661,0.20245511759280754,0.1593330360556724,0.1894579131227876,0.2613203512504936,0.35164852107875655,0.424315143697656,0.5000570999639824,0.5838970542914956,0.6765586464865128,0.7495569247252472,0.8079105452331752,0.8646638014929358,0.9204236828408265,0.9094183579959165,0.9266576392547985,0.9051708735983852,0.8615285182503265,0.8532612819185013,0.8135038455557155,0.7803241483981735,0.7926704321742926,0.7631689059211273,0.7314140351358147,0.6788179896612827,0.6957235516168567,0.7375645061671423,0.6792971803473402,0.6152532438305642,0.5811582701277946,0.5224723947046876,0.45592587047489763,0.39534847926179095,0.34325454661177535,0.2873424184093749,0.23020969593556595,0.2165313841130998,0.24614619108553493,0.2805666393033004,0.3206611503862309,0.37551614767283414,0.36557350022646373,0.3827071818070773,0.37322546210141727,0.34845476682619436,0.3209559190454754,0.35318239018797337,0.3460470838324601,0.31373557095531046,0.3413844815313083,0.3455010665120617,0.3652370150577422,0.39947035459291547,0.43973318285268226,0.4561850054413621,0.45777285207507523,0.4808069017001819,0.44742914859051064,MI
0.6387037194691776,0.6387035459963917,0.6370762034720943,0.617150863065294,0.5994171338999417,0.5911014279410534,0.5749533814751406,0.5489620617056352,0.5219612565872263,0.500834123215192,0.47441338985141845,0.4527251661048193,0.4240681739670289,0.39352483472199884,0.3638710228875994,0.2993005275602463,0.22751210922268017,0.15571012245882399,0.08392733365988381,0.021139859751266865,0.0025921475017081086,6.817473414688635e-06,0.0,2.4165204881132496e-05,0.010766596994694844,0.0504550564584445,0.0321592514447504,0.010905419329232835,0.03154600562901555,0.09983684035283336,0.14744581538113444,0.19292913509050358,0.21090475290262534,0.19611713065106828,0.2351128281716477,0.227190954607138,0.2339269631221219,0.2962723662051854,0.36670550600653495,0.40664823522277027,0.44318606459001764,0.47941096812771855,0.5234991274485612,0.5697436392398254,0.5971024636699962,0.6162526373964936,0.6357647430102431,0.6387004427609924,0.6340541424078179,0.6160240150401974,0.6226147453447708,0.6252719135136657,0.6018033706391663,0.5996986455320852,0.6009346023411757,0.6002163963979044,0.6148415226494617,0.6002877783774117,0.6010186186198938,0.6155723273554865,0.6314572860693644,0.6169919321651891,0.5992178678618423,0.6034535628408806,0.6338926366493176,0.6272742429359188,0.5935016000045001,0.5913928388041434,0.5915729571955772,0.6037169653510035,0.5936277096148603,0.5579940443712008,0.5221580605632701,0.4997879031527743,0.5174300755988552,0.5223119965650507,0.5485630058194273,0.5746880287762353,0.5931436901421074,0.6129073299777144,0.6150475057371665,0.6139839886462464,0.5949311423274413,0.602760392080492,0.5906392906464921,0.5703106632124637,0.567737241864247,0.5659115110521427,0.528980252259236,0.4811779951173647,0.433664631886844,0.40438529924134237,0.41457384548097087,0.46202063715823405,0.5211710050055403,0.5811352022170171,0.6405148118335231,0.701227201517705,0.7673064448208828,0.8217532037612472,0.8868006624546734,0.941619553460062,1.0,0.9777752781679236,0.9118702166023596,0.8585580682254088,0.8036883635480425,0.7557518291803413,0.707843048423622,0.6520386394709363,0.6182821707083455,0.6009955399012221,0.5939791247544393,0.6138546283251141,0.6150407542422816,0.6083466124339592,0.5917447618835903,0.5911127840259551,0.5680012735197661,0.5440765860466277,0.5254173230201893,0.4957481202865357,0.45555041832263576,0.42714311757256107,0.40865656130036454,0.3988821022598623,0.38002277274880303,0.3645400318695087,0.3328023755535652,0.3311969380753208,0.3396783904303855,0.39142861529710027,0.429983328426204,0.45849298555298335,0.5094296668147997,0.5280458720164067,0.5441067929384946,0.5604307524205656,0.5680749477337113,0.5835751374825588,0.5705111291127252,0.5530783193477209,0.5293091568635355,0.5204514202559412,0.5187407168836895,0.49883334320702044,0.4810624216296633,0.4709388399636505,0.4524646051859951,0.46853694483807606,0.48482609981159985,0.49378402332333593,0.4655574565704499,0.44913987374769304,0.43194786160138987,0.4317778786856965,0.46393389689790654,0.5012435733481624,0.548758548422319,0.6041139959574293,0.6377297176224119,0.665879348015276,0.6529565257222116,0.6056603800202449,0.5665985753844498,0.5471163453108723,0.5741864360007556,0.5855765498569032,0.570770548452558,0.6016416823979593,0.6497819631255477,0.7055893349265334,0.7254185002454987,0.7100189333347782,0.7096707994102527,0.7096709584269743,0.7105733185931467,0.7285339154531023,0.7247076365716492,0.7071166848064001,0.687297823917457,0.6687508044519888,0.6486260110344424,0.5949649982383716,0.540234385912485,0.5025191749960061,0.5033822413413751,0.5362756582140391,0.5881300809903225,0.6447761728720165,0.7078713441216884,0.7721694490826074,0.8281142772863319,0.8916636667163989,0.9476384650814254,0.9905381581366584,0.9659569373911339,0.9102083481916514,0.8559126328542153,0.7992771772515157,0.7444945184370066,0.7092778680620988,0.6631020410938353,0.644677996152379,0.6534891439224295,0.6386261792973267,0.6222396900774307,0.6150662721584905,0.6121090496966235,0.593130604275482,0.5913928002546815,0.5913424446853113,0.5773890721915826,0.5352949461688268,0.5305184611420368,0.509650424277746,0.4773893431348819,0.4541599368494196,0.4448172921184077,0.4266814722018957,0.41305715124110476,0.40477654875537095,0.44026449725828076,0.4601606852269753,0.5039338423406052,0.5379150402246928,0.5642359926830474,0.5906817754979294,0.6123470798083916,0.6408673157514162,0.6613083113057558,0.6623594127829229,0.6623587381665303,0.6599908340910186,0.6417092457819691,0.6551135431696542,0.6400624043723218,0.6216347792660737,0.6150769930257578,0.6205747939498685,0.6380406989555056,0.6387188459282518,0.6449115811339148,0.6617518947484355,0.6509208951385665,0.6344327810215393,0.6163909560520104,0.6303905935591829,0.6377305705411884,0.6188284292436497,0.6018005540503366,0.5859294044215302,0.5533655696347193,0.5176365410328523,0.497204074295059,MI
0.6449924783901404,0.6855998384115678,0.7297819917352328,0.7700670429676004,0.7996370859133288,0.8221315377306657,0.8360081457813429,0.8223862854018844,0.7654328839990547,0.7025109697567966,0.6376417632747613,0.5754643935916242,0.5681021684163017,0.534058589969691,0.48406258172379313,0.428860341632346,0.3780603769191837,0.34177291934230536,0.33555700429157964,0.3676287021398372,0.4240201128121335,0.4746641265464038,0.505328545524822,0.4685317469884962,0.40568059896522857,0.340315851187174,0.27747587091900416,0.20706773516143628,0.1414451120491902,0.08105880030056678,0.04029540818675792,0.06296919400277812,0.11909039800315657,0.18243466642715478,0.24260950974078854,0.29960786604168543,0.33124619888747,0.33656724090508616,0.35571414157810066,0.3449236963310891,0.3753118820693191,0.4302502003560529,0.44038781225281487,0.45748399521492167,0.4783573512329371,0.5320277734720424,0.5880247006383301,0.6131371938179833,0.5858825625974642,0.5466374454793035,0.5107820368341109,0.4709377528887566,0.43539967031754756,0.41592328808497303,0.42822954583834094,0.46242079011912507,0.5025031192977425,0.5461388389227577,0.5898497252560115,0.6324717092552719,0.6769823140894295,0.7122805618380423,0.7387301536750612,0.7414427562718495,0.7452741940687713,0.7605548441678847,0.7622790789821019,0.7307450079941391,0.6974438020761886,0.6716221087724732,0.691870611417637,0.7425869463611614,0.7838568373450043,0.8192526289598525,0.8534409303222275,0.8776256599980516,0.9010968207687762,0.9206655002983133,0.8690182857290683,0.8062536033135699,0.7408497204375355,0.6707688498479121,0.6095330643934782,0.542132101268195,0.47199010735136704,0.4106915443824728,0.3433704162362796,0.2727024022384752,0.20202174967948516,0.13354884110914478,0.08931577091292309,0.10497743650247715,0.16190826171662875,0.22306407848386844,0.2831906849316157,0.34204989719452583,0.3964847140739207,0.4456276659497931,0.5036745306097206,0.5606671862461792,0.6188809754233782,0.6682240475686012,0.6776479903902322,0.6448235420321817,0.6051204896823095,0.5676502578379659,0.5323068900736792,0.5010808092524608,0.5019557134652628,0.5299537767677693,0.567802333468092,0.6124739386549563,0.6567762313387349,0.7060307462164392,0.750278398246311,0.790285811316876,0.8287247216681675,0.8544722448166568,0.8746118497469861,0.8684185630236729,0.8406674963936653,0.8127589434063214,0.7857610866658169,0.778638153321688,0.8201912502017856,0.8646400788080368,0.900516660737545,0.9391571368833225,0.9611143202500292,0.9800415761532728,0.9999999999999998,0.9616613612744251,0.893766745380882,0.8311505676365865,0.7654130828615602,0.6954304620884513,0.6407759025627333,0.5959900827947042,0.549160783128652,0.5023193047954797,0.4545151958342757,0.3916488200512074,0.33125986968932364,0.26222358127407386,0.19288200939328037,0.1325663715574923,0.07842403018579591,0.0923036516530491,0.14646114028770008,0.20953672895751452,0.2699181058051625,0.32531824550090804,0.3771911868222455,0.42297776262722264,0.48266962751984965,0.5324699004505524,0.5825917313471629,0.6259685256599943,0.6153694531592147,0.5818040729916867,0.5417269426321234,0.4963995669122989,0.45576792654336273,0.4230486151961885,0.4047007189537455,0.4236529898483714,0.4619296181130075,0.5000855588218907,0.5440126377929337,0.589499447432335,0.6362068764413789,0.6808220219292169,0.7184352339057385,0.7405669305389335,0.7500492416623514,0.7500126776803178,0.7497461417101425,0.7300481544790032,0.7014492553252059,0.6598641879759086,0.6214875301196991,0.5910362934628071,0.6056112945920089,0.6514963268649636,0.6891433442575587,0.7250658842889137,0.7581870420026291,0.7755904754992307,0.7961537238771237,0.7664458964730179,0.7021495483465914,0.6403828713481754,0.5737172366046506,0.5051585665654061,0.44456364691910033,0.3749754296149721,0.30522936970381975,0.24451196485503623,0.1762129239138155,0.1075005752625513,0.04816230351519657,0.0,0.010211594910556343,0.061080611772356574,0.12257806594426301,0.18306879086586325,0.24809361904111715,0.2992968136193883,0.3471410387242331,0.4006061780504502,0.4592839024645685,0.5138989954349114,0.5567502307602432,0.5515898054902817,0.5202134867451143,0.4885081241922722,0.45990139365893334,0.44303379377991337,0.4572250611009536,0.4927004233592476,0.5328554824178002,0.5802525120766882,0.6293383711898433,0.6731152881118694,0.7192318142120182,0.7629980030900552,0.798051296314217,0.7939475068122415,0.7887921459384113,0.7906284139105588,0.7637280576152989,0.7386362871898775,0.7092183198164423,0.6754102922235623,0.6887818489486743,0.7320464323182219,0.771232377864129,0.809469898061858,0.8479534506525146,0.8742784394444694,0.8930004851738065,0.9156757023454654,0.8799776524402716,0.8106765169567931,0.748539842151162,0.6826135524193495,0.6262213542995256,0.5683701150036213,0.5080457184791911,0.4394004255479804,0.3688601711781383,0.30515033221583154,0.24058089752028078,0.17395343062288604,0.11806283861040989,MI
0.15663676048976294,0.16813861230342653,0.22895482768147302,0.32045753335848604,0.4085821602949271,0.48590000560323077,0.5476427632844549,0.6000275903769747,0.6201179868603499,0.6512416543688797,0.6785908711328275,0.6866524108988243,0.6911130547043736,0.6986262501661984,0.7012743751869617,0.6571320697933198,0.5862199740691936,0.5345944679072594,0.4732391987440767,0.4526561853419735,0.44416170801014543,0.38664313193729205,0.29128351681733156,0.19465317044994013,0.09836606541638693,0.0268620689401442,0.0,0.005404994417895548,0.005180520965581525,0.01522464234495935,0.05239614745864296,0.045271751606488664,0.028452457507289974,0.09147689049158947,0.16287903826814798,0.21733660831541135,0.2049738893791453,0.21718043433311207,0.24816885325687021,0.25504395419889336,0.32944066278545625,0.3897882887047137,0.4327055319934896,0.39945304575846263,0.4082640693830788,0.48350951138376796,0.5614919960122444,0.6564497373851825,0.7442802416593612,0.7355119424553958,0.7109005421859265,0.7443366707716677,0.8086540669493236,0.8741693956726508,0.946025356280662,0.9888121742365708,0.9722818268700313,0.9112433830075362,0.8351335240007152,0.8021779704714587,0.7806963477295468,0.7390075142748276,0.6850869937211468,0.6238456798233161,0.5438223591350906,0.4850932852178853,0.42591500759710144,0.35622729433621236,0.2997123596042246,0.2521085438325117,0.23946891110018864,0.2815964663101207,0.3266570964487787,0.38368988577575225,0.4044649835163412,0.3995598863144574,0.38103826301643906,0.37771173077093234,0.4181105668385201,0.47415813593531597,0.5382454695522751,0.5833711708652114,0.6015835463449162,0.6326936329741333,0.6523705794934398,0.6590517826985143,0.6744188379855873,0.6601667264835842,0.6335550001013166,0.5721542201412504,0.49549370140461013,0.41837951995908185,0.3742200412604899,0.37793358597953874,0.446891758721383,0.543253616168228,0.6397546888634493,0.7085781759282006,0.6779765908104278,0.6647589853126292,0.7049358437715472,0.7557524849975503,0.8249570736556069,0.891852055264859,0.9539471365781789,0.950206199418155,0.8881911029481349,0.8458545819833847,0.8028971242833598,0.763380320506625,0.7077116508023082,0.657294163070818,0.596546990766786,0.5348645734608857,0.4771114545463351,0.420112136797556,0.34585120488393395,0.2873884745623547,0.24003604041647097,0.25093411626451934,0.29830819384905194,0.3484024632896099,0.4060916186699477,0.4400057594815352,0.42243601550560683,0.3863161540058955,0.3750396892854302,0.40958830161155024,0.45004642530631855,0.503574222971523,0.5596959926496812,0.6001652744355463,0.6299259107452806,0.6492196381390358,0.6721754472048662,0.663755364130822,0.6705588237773403,0.6565442996242661,0.6312155566582427,0.5688007297342672,0.4914530573285414,0.39639900433787645,0.3147943888625915,0.3086368069627734,0.35899079427995106,0.415345530413866,0.504862307745022,0.588914427201769,0.6566724535993154,0.6433176671510936,0.6566793132158315,0.7035051059392905,0.7677341519506515,0.8389296248392966,0.9073311527857197,0.9543689956950234,0.9289048036429333,0.8681558490260035,0.8136469000308222,0.7832552813558382,0.7356419653364763,0.7054424694110053,0.6426452406428251,0.5726636719346838,0.5138119423359573,0.44965499850387936,0.388393673607915,0.33008571510397333,0.27252421278026917,0.2213693012354394,0.21890022964438183,0.2582981130312265,0.31249349703525864,0.3456514704921707,0.3376291749053735,0.3067940307798378,0.3372480889642988,0.35341255035193253,0.401932010186008,0.4614297702656973,0.5252805988384237,0.5663987973362588,0.5907348277794022,0.6095185600605575,0.6215406000744372,0.6454371374493983,0.6640970786507463,0.6794029014503011,0.6492343850049664,0.5851410998372635,0.5078865347643147,0.4284197118441253,0.3531450939744065,0.32588596082256016,0.3562778203075343,0.4407474987074598,0.5286282660271793,0.6104466247838034,0.6975260182162297,0.6943608454506403,0.693280262354111,0.7325447050140981,0.7902972867557572,0.8630834671836376,0.9462562650295916,1.0000000000000004,0.9949843520179242,0.9285693319312274,0.8666070189657984,0.8186701409081754,0.7850718712193179,0.755276850037959,0.7012224178143192,0.6421845962640345,0.5766000352904324,0.5229408120816665,0.45281056062394676,0.3716895639799964,0.31071500166713983,0.2500599238840677,0.19427489088593797,0.20110492099363286,0.24509971109474238,0.29556328664721665,0.3545379341232491,0.3932156296089744,0.40831051911222493,0.37596132817774963,0.3740955079822297,0.40807561872643694,0.46586091119957684,0.5273636261381704,0.5648187849493582,0.5916118912796748,0.6132716008745671,0.6401498660269094,0.6490411817412927,0.672051852567014,0.6818063834054633,0.6789872847031124,0.6375307297562434,0.5649897813215183,0.4738801973771989,0.38580195301263176,0.3354997870407517,0.3307812747234742,0.38619189479263394,0.4751762188255424,0.5606763854048173,0.6447759749361519,0.7252831364517722,0.7059871771325157,0.6963469946330343,0.731913456091521,0.7886749095085936,MI
0.1312039978300661,0.16426483933932268,0.21305153557278933,0.2725480373201019,0.33123952754327646,0.37889070228357213,0.43692016448679394,0.49413136692265813,0.542204124048008,0.600560756767395,0.6488984405530391,0.7034317260341199,0.7391177894599805,0.7700595170791573,0.805809226635158,0.850269963298121,0.8901117572008459,0.9077825985398988,0.9081930995493883,0.8998079745585972,0.891329448247393,0.8709695549036944,0.8499382348972524,0.8285175739353188,0.7959277137540537,0.7754117843224384,0.7230218143413814,0.6631604500406716,0.6032745396917736,0.5447473806877385,0.5145490959338364,0.5108722586260661,0.5108391628519697,0.5140995794084626,0.5392639850368883,0.5284215598774151,0.5222095511641045,0.5656516789123323,0.6082442651935243,0.6421431699402123,0.633783560895876,0.6392273597340956,0.6622493544694892,0.6616788187774587,0.7099483897011083,0.7471052341031401,0.7275091574112247,0.69637311799203,0.6689196368250905,0.6642417188231311,0.6768267885045691,0.7043550350600751,0.7401240632806212,0.7766111015000827,0.8136636617662025,0.8535170517088091,0.8934771200285658,0.9327977506015379,0.9645695228457216,0.9885912355534769,0.9996531268743925,0.9933645261386317,0.9848614886053253,0.984713634945747,0.9846882614928842,0.979685856625425,0.9800983122722042,0.9846986288673578,0.9847136349457541,0.9847136349457564,0.9847136349457577,0.9847345480843035,0.9894650056132999,0.9996751395840524,0.9989729466526625,0.9870670104201043,0.9847162613966598,0.9846938955522335,0.9797187236560332,0.9759286863229428,0.9905070239367506,0.9997462352822468,0.9918835071645542,0.9685138350891915,0.9303472015548448,0.8949557733651459,0.8682035122585725,0.866816497853234,0.892024407972621,0.915033703180016,0.9373339338298117,0.9647330813716193,0.9832783996773646,0.9974819541067304,0.9999965842801066,1.0000000000000002,0.99993890987192,0.9886741822260319,0.9462024308421613,0.8913535959321515,0.8314903052259315,0.7716037221311989,0.7117171807808618,0.6523343029482607,0.6039528999330479,0.5473350778106354,0.48745717171174197,0.42757058861700803,0.3676901273073063,0.31115163130848944,0.26254804721488556,0.2033105002335336,0.1434242051751402,0.08444725884684678,0.05471510669859536,0.07998550649672365,0.1304260599414011,0.18936993011880565,0.2374727165871542,0.2946731119232735,0.3544204863175351,0.4060741346271459,0.4590849041356104,0.5148736944295462,0.5635169518090588,0.6069189585926302,0.6462165689420558,0.6972095786333312,0.7471490412712722,0.7992552757087912,0.8465151146566969,0.8915021175303515,0.9250915255609298,0.9431680159016282,0.9471737548821328,0.9327420137593958,0.9208425976947348,0.8994151290537797,0.8814688379586879,0.8539066250686906,0.8280514191419119,0.7847820904783693,0.747599023479047,0.7173376163747445,0.6887520542648919,0.67089873288362,0.6506006755510201,0.6501480238799118,0.6711877114090858,0.701352163687458,0.7373167215819529,0.773103564721022,0.816325637506351,0.8533391308029572,0.8888344750474186,0.9189351798036818,0.9472706649816194,0.9708295045037623,0.9888478553976621,0.9996364066599697,0.9972399336380768,0.9855087106202436,0.9840344917529211,0.9722710356588153,0.9722482264133789,0.9840087221599838,0.9803770070120092,0.9621337790929234,0.9542404315915098,0.9541409048374148,0.9541409048374156,0.954140637673276,0.9532132096652257,0.9414168130176914,0.945764789175519,0.9540541005615204,0.9541402202293112,0.952384598706616,0.9385490233550804,0.9235422296434395,0.9099347557461381,0.9033667432157972,0.8698554698925605,0.8301407757954287,0.797646876303918,0.786237450497288,0.7945359408301023,0.8318757446076426,0.853539816083712,0.8751502674780489,0.9018585075402716,0.9136969932137855,0.9233282556098634,0.9235681747290212,0.923688225395001,0.9332404815621114,0.9423469071421648,0.8924273973567625,0.8325919158802073,0.7779036165899018,0.7361159976072369,0.6984673648282718,0.6599127060426617,0.6094866431167276,0.5496816694619036,0.4898013209049157,0.4332976617133253,0.3846677198499717,0.32542158316564795,0.26553511904244664,0.20564853594771404,0.14588738062478535,0.09477266114561211,0.04171730676094754,0.0,0.0039601009896597095,0.05050119501057648,0.1101537142561162,0.17003857128128197,0.22815223342851287,0.27596814422974836,0.3344132378109905,0.39301174956260865,0.44068926537489594,0.4985681994540838,0.5485589779417646,0.6006884240715082,0.6485500872823404,0.6986386692648561,0.7517521239710672,0.7983355168393975,0.8365285136369651,0.8601458076204727,0.8759559013981246,0.8681559973245598,0.861795267646617,0.8524430070526698,0.8491689727826588,0.8334556590921711,0.8095251647723776,0.7856773595154884,0.756092519605488,0.7261550577001861,0.6994553200639773,0.6811244739431579,0.6659673196452316,0.6813177809438542,0.7081739527844111,0.7381087271525042,0.7680521845128132,0.7986826122990587,0.8368040233614475,0.8766082228814926,0.9101740414988704,0.9315150471109661,MI
0.6023521809090875,0.5329610445715556,0.47311820156985274,0.43726556193035027,0.39804417195095176,0.41734654582308295,0.4919675289367973,0.5734635100361656,0.6304628721238767,0.669710141635794,0.6958701822342048,0.7295287341189027,0.784268340597893,0.832661570687371,0.8894746791591723,0.908806640637291,0.9119855255234466,0.9407374297103592,0.9680627405121491,0.9660575038755779,0.9406906125715135,0.9084883225978597,0.8366444719591177,0.7711092144287885,0.7001094790622737,0.6329301227927404,0.5685150665194074,0.4995032853015937,0.4302531252539108,0.3642636379120452,0.29179528401115284,0.2305264790379944,0.17378384167456762,0.14850633454740336,0.15860015665495286,0.1907718582817557,0.23712478974619966,0.27517132341945594,0.3184574825518345,0.3661931025154157,0.39433986359505635,0.4201279988810258,0.42154337228030503,0.4023714006710053,0.40355165047480224,0.37535013003956674,0.32861435912670434,0.28014754804080866,0.21918434803555353,0.1591551071410846,0.1254550821368543,0.1182375734390968,0.14236936424287094,0.20381818757681547,0.2668367995505152,0.32158453275146304,0.38586304071365074,0.449792144827847,0.4965237146990713,0.5457485757020315,0.5780224981114674,0.6033381665878883,0.604488577423357,0.5890690109891441,0.5667404221388637,0.5165210304961922,0.4522230063525816,0.40075047061129165,0.3777724388527899,0.37393031637874596,0.434064445349188,0.5169203329925445,0.5870731356223011,0.6405358015738862,0.6505026434446641,0.6357616852527341,0.6597782514260881,0.7110994587173591,0.7708260449639264,0.8118705736438558,0.8200484102733876,0.8445839892495375,0.8591779430570643,0.8791876165016514,0.8988489209082511,0.8755085432021925,0.8209728914778944,0.7658240980588511,0.707590471402356,0.638066680786725,0.5626425199772731,0.4885945392752289,0.42400586113173233,0.35042724584108687,0.2848325665821596,0.22096763746043102,0.1669734445495692,0.12056482650595601,0.12687028425751112,0.17063469133708242,0.21101902724082233,0.2655914604701799,0.3152787077656356,0.36316781829190337,0.39334406231596564,0.4188263629301421,0.4220891923084942,0.4352147096605661,0.4516022953896286,0.42522322254021994,0.37739425955093253,0.3278122921955262,0.26647601249201713,0.21757587057854977,0.1776323395615007,0.15083678164433945,0.1761839957213427,0.2325831192118306,0.30239039362449827,0.3684933291468315,0.4328240830357979,0.49682891388306416,0.5491643392449017,0.5973546789715485,0.6369007530472146,0.6774100027742929,0.7021192523656063,0.7119088725854086,0.6961465445894177,0.6869661723140519,0.6186740633241428,0.5544819788254491,0.5160602370403566,0.5133529092219851,0.5258738813258743,0.6028428680598052,0.6738713489530106,0.7492495295463861,0.7812429847800306,0.7894941495538452,0.8236346522227169,0.871803642334493,0.9192109150139096,0.9445213488283679,0.968503778063516,0.9778480750663867,0.999476472792356,1.0,0.9791268791814227,0.9387186462520205,0.8855059272157959,0.8350355443263702,0.776295198963715,0.7061705017645403,0.6381322916948884,0.5704436255625396,0.4814341259466879,0.41023427769190146,0.3457537379451008,0.2973534665986257,0.2491212291349889,0.21350320208863316,0.23575843728273949,0.27408918313676356,0.3222249852383676,0.3703960430784292,0.4150659531718244,0.44585102132731524,0.45987594459073833,0.49990248547176197,0.5117873878000365,0.48735865464318273,0.49566638074865654,0.512460891387315,0.4786204249329833,0.4372351089312758,0.39065357941243306,0.3364751663357559,0.30097469491474627,0.30182996012275964,0.33295658479188894,0.3814373644659277,0.4421945850144189,0.5065230990400602,0.5706986632290452,0.6332436610645304,0.6663796365913894,0.6942238209292828,0.7332159600477546,0.7564663348658645,0.7567488337981416,0.7522601698505778,0.6875391229584178,0.5973769753754778,0.5313146637043991,0.4791218568712763,0.46357279140436347,0.4553985806381746,0.47720581277494833,0.5430137089557316,0.6212922627309094,0.6448465483376316,0.6381631322412478,0.6366994055236885,0.6683798652929278,0.7164375439743029,0.7466631827303924,0.7307483669719428,0.7551268109553178,0.7567508740215088,0.7589516227119848,0.7818558712177435,0.7545760821748848,0.7081769897624497,0.6655188441291573,0.5984370284827936,0.5317035710398361,0.4680479055753173,0.397561229455202,0.32467743258456494,0.24999657938314268,0.17363087849733727,0.09224096212787902,0.04184432818668071,0.001095762660307642,0.0,0.030402297163313996,0.07305052771769294,0.12125916651895263,0.16943926327456005,0.20963641402353161,0.24169308211987328,0.2683562955236978,0.276703872366431,0.30749678709548345,0.32990081753978995,0.3140094456039959,0.32264641410788286,0.2994044393609814,0.24425677225693576,0.19167948864274464,0.1340744710627524,0.09870864933896506,0.06051477348609158,0.05846018712037715,0.09985486332266014,0.16405085633347483,0.22842540817510137,0.30032554566452063,0.35772670773888393,0.4059070630939292,0.4538524925124774,0.49041175430293116,0.5126847938190275,0.513317916710121,MI
0.6395157116691621,0.6636936491487155,0.6607671356907225,0.6331938884265966,0.6615386817601197,0.6641159042811227,0.6641159042811307,0.664115904281136,0.658017993998719,0.6300677682532285,0.6569880826903454,0.6641121574309201,0.6660713376133609,0.6956817528479959,0.7014363593609643,0.7014363593609705,0.7015897327737157,0.7190465836273257,0.7416947657255166,0.7667995309961393,0.7405206834892271,0.7395248214078531,0.7587769031592053,0.7401798692463482,0.7576217084774841,0.7511719763108342,0.7413415280741358,0.7718675299702191,0.7760772695206164,0.7760772695206217,0.7753282552634877,0.747385214162513,0.7554573975642445,0.7759817735130117,0.7702368370653208,0.7406803203924355,0.7386049806531076,0.7163657864314326,0.6663816686238393,0.6348831957074319,0.6389061998405046,0.6294535654435469,0.6825213265722221,0.7500814262703583,0.8072783841023137,0.8474420737557651,0.8507216800272106,0.8552556029744691,0.8861461956535477,0.8826273320165834,0.8528013225350044,0.8492527010565123,0.8109476632718184,0.7270800400619102,0.6513017438149822,0.5612384306233986,0.48971479286274455,0.3943232773235996,0.31762626128742255,0.2274311122617414,0.13118664531708113,0.06304014073963415,0.03045059626089852,0.05860341322703366,0.13265697870648996,0.23405254250896057,0.33591543166792004,0.4377783208268786,0.5396412099858372,0.6414415114852039,0.7276235784299558,0.7409816348114218,0.7913331886960373,0.8437998326860976,0.8764396726240884,0.8600340831671422,0.8819465912563835,0.8868328031925401,0.8564579066812472,0.8734082038890456,0.9186341700093212,0.925357315016166,0.9274741600752989,0.9574723884477594,0.97811347726722,0.9781134772672244,0.9646894438198572,0.9937303593616775,0.9756164578886377,0.9560481870665214,0.9222386267807323,0.8876184128213431,0.8449853646261598,0.777195347902266,0.7210613738718905,0.6390849312587994,0.5707080867377021,0.5213325478464297,0.48348003950157104,0.41680846059612975,0.3698140978267608,0.31894019566351606,0.2521196072835572,0.21657562729800084,0.21647480304018352,0.2384430162168405,0.30031384295701535,0.34093420919430617,0.3908345262689785,0.4551274233316702,0.5078338949371464,0.5554448554685028,0.6222746083532549,0.6458305528939867,0.6932456936205957,0.7014278796476496,0.7014363593613497,0.7014363593613551,0.7014441981664632,0.7114098949780852,0.7381297982791857,0.7285507784033198,0.7021146974685317,0.7032960105517105,0.7338700515370435,0.7667981505780386,0.7375385169469579,0.703220522924374,0.7184959181765471,0.7386517095146488,0.7197756276599696,0.7030151472115724,0.7315431669080539,0.7387526731857026,0.7387568144412322,0.7387568144412402,0.7387568144412455,0.7387568144412526,0.738756814441258,0.7387483347275712,0.7305990815420866,0.7026989991083479,0.7217865997053989,0.7387290088684759,0.7378613219558128,0.7083000941120536,0.6871901700163967,0.6299582918361271,0.5833233075913897,0.5368801749118672,0.521018162299077,0.5650502265948463,0.6163894507392662,0.6672090847928809,0.7171437461397545,0.74143559610616,0.7725541375096592,0.7760772695211351,0.775936703289406,0.7549557055693716,0.7612427204476901,0.7728639168296576,0.7316590333712405,0.6497136885354582,0.577066202688572,0.48852359377846977,0.41188967947541766,0.3163759677762892,0.244015696728483,0.14420748748425893,0.06393390715874059,0.0009923138943070953,0.0,0.07646025244513677,0.1782848349904924,0.2717868696159407,0.3454569970297019,0.44655960437549513,0.5484224935344528,0.6487124948859195,0.7012792701659292,0.728982566775696,0.7637970811223633,0.8154800715911286,0.8794210982738173,0.8994882387780043,0.924880496927857,0.9253590898403798,0.9253590898403852,0.9253590898403914,0.9268713359947265,0.9606314425302935,0.9983620806808888,0.9999999999999929,1.0,0.9982792127782032,0.9674362586562539,0.9451255601220128,0.8859420804742113,0.8498304473658473,0.7991267702417533,0.7560581480047626,0.6898845100789508,0.6071738148099923,0.5529080247029325,0.5019276719598418,0.44227434855840553,0.3748450177112268,0.3245068094779251,0.2766511588898224,0.21049353673580917,0.17985374074196425,0.18059033832678129,0.215130357403007,0.2653681322834842,0.3029526362245418,0.36722537909489095,0.4223877832498797,0.4879198876235593,0.5466885512772368,0.588881769323998,0.604001041624878,0.6378973062195952,0.6636304315722708,0.6697652596421433,0.7002834208949817,0.6820895412995718,0.6642608607843679,0.6532331931320607,0.6397905735501892,0.6639063183821614,0.6831864351425176,0.7014057929519932,0.7014363593618249,0.7014363593618329,0.7014363593618382,0.7017315689014776,0.7263569907179424,0.7382602760885231,0.7129534318043218,0.7141260846228743,0.7201433970820004,0.7206484814034955,0.7137275295186214,0.7014877601677689,0.7032640831715824,0.7326589041592602,0.737550982874076,0.7069367275736473,0.6850661996018896,0.6379754870945353,0.5949742215589033,0.5224779900050249,0.5162198038106558,0.5446919642234391,MI
0.059559945185423846,0.02493768242438643,0.0,0.009671393015042828,0.0479751779672537,0.08307288867882967,0.12526148828369177,0.16868278758687638,0.21210495042927335,0.2555271132716699,0.2989122217691633,0.33772287374532506,0.37538071930781114,0.4187203603523373,0.46202090453352507,0.4995045103254554,0.5385227604918268,0.5798789240391504,0.6152902712956654,0.6572311977249197,0.692362946766423,0.7346097369387758,0.7764328117446004,0.8117048645520308,0.8524019749036662,0.8869816308961873,0.9188113844284358,0.9416218979409241,0.9527316828051082,0.9495397664971292,0.9481844804256003,0.9480967428606748,0.9417700007367604,0.9249431971887663,0.903387355458259,0.8794456393387651,0.8499584363471266,0.8257815314292423,0.7974540744345835,0.7715928614153447,0.7473427016417533,0.7312910886051922,0.7194216166277996,0.7257402277155134,0.7413173968610596,0.7653750992126254,0.7847221825513973,0.8060007800664071,0.8218291350033557,0.8344668391412053,0.8489335618680063,0.8618399487849295,0.8676335243114313,0.8665886794628799,0.864225165527549,0.8642194035808974,0.8643013901161001,0.8696746033637739,0.8747874959570574,0.8808758129029657,0.8851782888663047,0.8852102121587464,0.8852624745994433,0.8902116799950217,0.8956286674372682,0.892957451275405,0.8770438318590745,0.8655131129825377,0.8710222476093712,0.8801351861829083,0.8992736857904626,0.9113313107408718,0.908349027749513,0.8706280321675437,0.8301518896543436,0.7940041336158219,0.7508690372605733,0.7080533714705766,0.6727294911359558,0.6310948090419091,0.587676570150808,0.5454272867215784,0.510295537680076,0.4679041648553104,0.42448268237975784,0.3817681562970412,0.3464785851219059,0.3047115518214727,0.26330781603322584,0.23550911104283556,0.19563617330979977,0.1628991759685161,0.13589031374666183,0.09663373619503757,0.056020148176346596,0.04082259876386163,0.06676429673257345,0.1094147893272912,0.1528310230864134,0.19373155711439383,0.22954335788324398,0.27215027802792724,0.30788632415262596,0.3489622220528126,0.39237460104268185,0.4336579624403232,0.46914980115304794,0.512136286252735,0.5525091309993064,0.5887709665859115,0.6313271109377296,0.6667337891313696,0.7082674489187322,0.7493433750733147,0.7850052408405319,0.8280240471466127,0.8681770213592639,0.9044816340518862,0.9407480092909033,0.9711877813991625,0.9966972147849873,1.0,0.9919001988201459,0.9892366232940104,0.9810161513065736,0.9763593459647337,0.9567838037363552,0.9286814791232552,0.9038095091025817,0.8782113000063316,0.8521262425383622,0.8240871234104028,0.8012564713214232,0.7762389383018917,0.7601589671462636,0.7595384708395152,0.7698122304047623,0.7911321703940706,0.8124428195738147,0.828698793611494,0.8431425170355458,0.8539223029239791,0.8651355698407401,0.879271312845533,0.8850940804516279,0.8806412262619161,0.8808296741961827,0.8851732290158068,0.8852105255399576,0.8860246022270986,0.8943699106831695,0.8957046136279854,0.8957056164477175,0.8957056164477186,0.8957346812441342,0.8997954037959941,0.9060766335689385,0.9001012705300246,0.8753357961353143,0.866112387531812,0.873790067129528,0.8802629771380635,0.9015543462037572,0.9130320384051696,0.9106531746315079,0.8764388181878398,0.841040772792309,0.7982091768183872,0.7575189426133866,0.7215084232128057,0.6784301336228482,0.6350264359582396,0.5955169247280954,0.5585044387718257,0.5152369213623114,0.4718147585199144,0.42839259567751786,0.3849704328351198,0.3415482699927228,0.29812939948295925,0.2567451154783644,0.22122864797437125,0.1783548627394611,0.1349328600696602,0.09159776221518201,0.05606272985603955,0.049419302148530186,0.08172496908344973,0.1237523251050976,0.15895269246557153,0.20140425530936112,0.24465475792317393,0.281431683961612,0.32118845907003757,0.3635385522467478,0.3986771631201482,0.4409465073542125,0.4838081791212667,0.519297199297672,0.5605323593607638,0.5970822995464211,0.63706842356457,0.6776482207740673,0.7137226950618443,0.7568370122484509,0.8002591750908477,0.8436810384801301,0.8863272484525817,0.9204555855448588,0.952956873006815,0.9778982811896759,0.9891969316518621,0.9873462974303822,0.9799900221975058,0.9796546166720843,0.975422197417374,0.9558178802339246,0.9302367522606967,0.9072547855146296,0.882396575308761,0.8583347417627094,0.8322872176403295,0.8038249475063042,0.7783008878048716,0.7623674838054733,0.7504577674610025,0.7564707524193148,0.7759439031926922,0.7932782956717768,0.8103722153070836,0.8275964665213962,0.8447466095435052,0.856534975270451,0.8673745269580211,0.874643519109803,0.8781511209676691,0.8751261203781355,0.8802351099905088,0.8753668976586861,0.8776863575631588,0.8801651622879578,0.878460118976222,0.8869026847859194,0.8951598867880473,0.8957127099858375,0.8983222870138239,0.9058570513422106,0.9052501751257809,0.8969670356903019,0.8889994390955858,0.8686059651525033,0.8567593109417548,0.866404956483178,0.8799528567032766,0.8952080942802594,MI
0.39320925022295183,0.3943442144419147,0.4241651849687531,0.47345716365798296,0.4803127298048655,0.44738562292136796,0.42364078487360857,0.4054875654885701,0.3475384336389662,0.30112929121363674,0.2697328056275703,0.2615026110693508,0.26320207335209966,0.2929088380884801,0.3584464080600229,0.39374176704356634,0.4184020392561769,0.44983696012332963,0.4433312547555355,0.4868448702623418,0.5449943714443144,0.5845084577597226,0.6307443934852053,0.6790328931936065,0.73798801716906,0.7841604580231971,0.82000537062493,0.8545272199164611,0.8772457766451818,0.8954546822529057,0.8984800310206698,0.8972093896957181,0.8789857491795785,0.8740194205937555,0.8563209487194849,0.8545454699189095,0.8545447480921822,0.8545822635601041,0.8633873017296834,0.8763623402837899,0.8679819180688613,0.8547962857126641,0.8545447480921857,0.8545447480921866,0.8545463886074778,0.8580395100031635,0.8750264481589327,0.8604503886891752,0.8548641072473582,0.8688711986506461,0.8764956428263004,0.876513111383165,0.876524342613382,0.8815003220045301,0.8977968934360576,0.8984814746741399,0.8984814746741407,0.8984814746741412,0.8984903164282034,0.9031242740546479,0.9196947562781954,0.9204498379651174,0.9203326983043301,0.9060284431836219,0.8771059122502343,0.8566276003967674,0.8561997819672045,0.8865949499615398,0.9126162927869652,0.9204296755946384,0.9210496935217161,0.9376642783225093,0.9539781261377156,0.9785050612191388,1.0,0.9552934935488984,0.9024059967836058,0.833525089618075,0.7669337970453554,0.7151446920717084,0.6474384566512934,0.5780879724030505,0.5087368647589967,0.4411715549090247,0.3898782654469395,0.32265092080863544,0.2533007974737571,0.1849632731623685,0.1331869873126026,0.0674055707062422,0.015088003826130958,0.004302681762142324,0.05170982331094143,0.10523486143405236,0.17404238873770206,0.24293271556102836,0.2960190949902315,0.3601320730629243,0.4294784560229421,0.49880319908779613,0.5610121894975779,0.6158014940595633,0.6848387499759103,0.7439409430117747,0.8015282316433607,0.8563127755726545,0.8759108921309644,0.8629502845012302,0.8352653188345429,0.8304373951465287,0.8125562643805817,0.8069761886739171,0.7790430548945997,0.7548521316304466,0.7389372087216204,0.7071451450797102,0.6724969074131022,0.637805963207557,0.5998961153368421,0.5585385715038638,0.5331596779923582,0.49932850445206434,0.47393094354410215,0.4507455512224592,0.43903450907563757,0.4566897271148562,0.47641097468305116,0.5107592284528848,0.5522687621486195,0.5920829281044004,0.6373258504277075,0.6834343790053827,0.7298864581160225,0.7835142284764358,0.8292745853525418,0.8650231454525974,0.8995125213619333,0.9257215000163459,0.9309498472312239,0.9357580818936619,0.9424117704361747,0.9423845698175333,0.9338870079418191,0.9207013755856206,0.9203515549996921,0.90836152232374,0.8985321388224108,0.8984814746741705,0.8984814746741714,0.8984814746741723,0.8984814746741723,0.8984814746741736,0.8985205831261989,0.9076199302073715,0.9179317908239493,0.9003012436374331,0.8984822293112096,0.8984814746741767,0.8984814746741776,0.898481474674178,0.8984814746741785,0.8984966883646544,0.9039686653874344,0.9091294454464918,0.9008629186972934,0.9189299675911742,0.920449837965156,0.9204498379651564,0.9204498379651573,0.9204498379651578,0.9204498379651587,0.9204498379651591,0.9202352597193371,0.9057284349824095,0.8897713532396896,0.8669143436997158,0.8617666082475708,0.8934788481474705,0.9281158365611719,0.9570583627453182,0.9455738940443625,0.96065151821721,0.9643851208936551,0.9665931988850103,0.9790066949070342,0.9421449975707938,0.8753057583717045,0.8060191609076655,0.7467663309227692,0.6890625749097667,0.6198709378780856,0.5505200927164768,0.4833977327508938,0.43187907260173564,0.36443405033520015,0.295083762948793,0.22573265530473785,0.1563815476606849,0.08733901886090667,0.033369274257145864,0.0,0.017499168591547765,0.06531618562102626,0.1322599482276421,0.20096710701425868,0.25379291714844454,0.31834845138185663,0.3876945718594258,0.4550089875490251,0.5063924252859389,0.5737779803715277,0.6394071884283492,0.691457385070136,0.7596130519522393,0.8135249061146257,0.8320788534351418,0.8194441443278637,0.8038921173801441,0.7863636458284837,0.7592798801842311,0.7448341716512736,0.733098411497239,0.7100069333152215,0.6854161746539993,0.6515448709135621,0.6258444276834751,0.5859702860787244,0.5507351084427401,0.5233545272049374,0.48409209343099757,0.44315888242955026,0.41443811026656885,0.39138549569146486,0.37284845373502984,0.3860941765458148,0.411455051288212,0.4458945657310487,0.4806092275099054,0.5191949974631722,0.5654361239540582,0.6138101673502603,0.6727129687785416,0.7192267824827758,0.7645562063700755,0.8038808562843651,0.8457947499881411,0.8802055788535323,0.8981247143596969,0.898942255494934,0.9132439009689697,0.9005143606331907,0.8984137423471354,0.888023506766066,0.8770245563522052,0.8918919668415546,MI
