0,1,2,3,4,5,6,7,8,9,10,11,12,13,14,15,16,17,18,19,20,21,22,23,24,25,26,27,28,29,30,31,32,33,34,35,36,37,38,39,40,41,42,43,44,45,46,47,48,49,50,51,52,53,54,55,56,57,58,59,60,61,62,63,64,65,66,67,68,69,70,71,72,73,74,75,76,77,78,79,80,81,82,83,84,85,86,87,88,89,90,91,92,93,94,95,96,97,98,99,100,101,102,103,104,105,106,107,108,109,110,111,112,113,114,115,116,117,118,119,120,121,122,123,124,125,126,127,128,129,130,131,132,133,134,135,136,137,138,139,140,141,142,143,144,145,146,147,148,149,150,151,152,153,154,155,156,157,158,159,160,161,162,163,164,165,166,167,168,169,170,171,172,173,174,175,176,177,178,179,180,181,182,183,184,185,186,187,188,189,190,191,192,193,194,195,196,197,198,199,200,201,202,203,204,205,206,207,208,209,210,211,212,213,214,215,216,217,218,219,220,221,222,223,224,225,226,227,228,229,230,231,232,233,234,235,236,237,238,239,240,241,242,243,244,245,246,247,248,249,250,251,252,253,254,Target
0.077276761919296,0.08939719067282503,0.11603592667364504,0.17425192037159487,0.25166213366550494,0.32509926006642154,0.36751978693305354,0.35252055512408864,0.30514543743475686,0.23688156098103086,0.2103548953274621,0.18455526940732936,0.11820368071625431,0.11082539547479797,0.1638484442720043,0.22241724392368978,0.25025415894063396,0.3060595571307596,0.3557301462227862,0.372988756435904,0.4050944791028934,0.46254838106289986,0.5389368459209392,0.6175442778863087,0.6961524576903941,0.7747606374944787,0.8532558233743073,0.9196576089616224,0.9819234840908573,0.9618323215931364,0.9011878465163887,0.8351219020833804,0.7719772336559383,0.7069051307759882,0.6506939978169561,0.622866083859761,0.6034782748180874,0.595299207781621,0.595260537990848,0.6010913006129881,0.6176895521353636,0.6197229028471214,0.645069152117645,0.6650034959992825,0.68937461972323,0.7193006720965727,0.7526874959354082,0.7789594167418596,0.8050391035095572,0.8231389258589408,0.7989123837862468,0.7588723454387503,0.7082965393866059,0.6493351838873003,0.603430055594306,0.5512506445258625,0.49886721426124714,0.45486540229464456,0.41565631977875617,0.3881324634300305,0.3681127851056636,0.36559482698353474,0.381360281427499,0.3899165895023238,0.40833159463862545,0.4111405064681093,0.4111413993422146,0.4111413993422164,0.4111413993422177,0.41114139934221994,0.4111413993422217,0.4111413993422235,0.4111413993422248,0.41114076028005186,0.4092749132902451,0.3960060360645059,0.3982375812184267,0.39832138201020895,0.3940591797495592,0.4047028768574754,0.40123766927477966,0.3968278023890237,0.41091384855908686,0.4111413993422408,0.41114139934224214,0.4111264160773329,0.4047245611810171,0.3942110564933681,0.4104887928950989,0.41247012438300246,0.4374304060273597,0.4475281813920393,0.39635695895796985,0.3693101020009588,0.3701916751882677,0.3953593469581942,0.42728934307011723,0.4172646771767594,0.4111546381298168,0.41285405925795216,0.42961551240487816,0.4140198786612359,0.40505229277860133,0.3599775117571302,0.2906574852633792,0.2247069694633428,0.15639103357081652,0.08929787037637249,0.02500937815735682,0.0,0.04324047068684722,0.1029437293145663,0.18019043756588227,0.2575586534366705,0.3182169399713066,0.39300219231038813,0.47160922996079613,0.5502174097648829,0.6285511103281456,0.6933776017075486,0.7630524753511629,0.8416362531488009,0.9202359273875595,0.9869754541215254,0.9518703123844832,0.8922820641819555,0.8273548364411516,0.7627743645288043,0.703215377671706,0.6451847693026869,0.6026013057740118,0.562541821217649,0.5421322201905845,0.5287121544308073,0.5468759052011505,0.5492265955203428,0.5519413164245579,0.5748737453489827,0.5965241268438164,0.6196531389899116,0.6476261443208484,0.6921980022225416,0.7260099132348086,0.7697769666238332,0.799817519368383,0.824639839947622,0.8348759726176747,0.8162304517562005,0.7777523357362632,0.7287422937630894,0.6816138601219284,0.6294037807489747,0.5871660007585358,0.5396843292910201,0.48792940365234516,0.44638058942467307,0.4140849447648396,0.3946115671202364,0.38814606659666673,0.3881275235098838,0.38813317415141757,0.3922954879950291,0.4101027138705291,0.4118846661303497,0.42930606555055295,0.4284807214102164,0.4117674998369525,0.4111415069857718,0.4111414118063008,0.41154871327903075,0.4266296096159343,0.43413598333658365,0.43415445935069874,0.431678257272444,0.4196474949521263,0.4337432512989916,0.4248886950727595,0.4113872279624786,0.41114116819218927,0.4098368200542488,0.39143495718410337,0.3881320727686113,0.38880311144027546,0.4058235941214341,0.4112060012137748,0.42115526189264596,0.4362004525001768,0.4670854399166955,0.4979061605256394,0.4678288131060033,0.43432811499060575,0.4153663152208096,0.44244767550326625,0.4754148342255049,0.4802655261614124,0.48814260371100504,0.48420382197164846,0.4941016002457497,0.48060801097738093,0.4798908216232656,0.4598310762064033,0.39951065658637797,0.33971442952473874,0.26422495152794223,0.19925803616617532,0.12991540590646,0.06414757990403785,0.023504294569189454,0.03708162678007243,0.09192987694962129,0.15224449612518454,0.229738002666259,0.3083460872908734,0.3869542670949584,0.4653504781033426,0.5307883614414397,0.5997927530679945,0.6783731104788755,0.7569812902829627,0.8355894700870481,0.9141974595321871,0.9911934727304725,1.0,0.9432901794419468,0.8720529695274379,0.813071641311029,0.7550067891737378,0.7007149181138872,0.6613342170400509,0.6379799182060002,0.6178892764808364,0.5980354669493386,0.5952553318429961,0.5953938962078085,0.6037340216890312,0.5993523031779033,0.6184211345944672,0.6387253043696006,0.6685896713201003,0.6960144993500186,0.7343443932193474,0.7688421509863166,0.8000834679356883,0.8168317384005004,0.79895322359702,0.7585847534354633,0.7062939642935429,0.6622174274234451,0.6222005311575125,0.5733402789255875,0.5327686249238939,0.49017468832177036,0.4514251701239922,0.41868743292742083,0.41116892628077606,MI
0.9308199743076226,0.9309053315822702,0.939430548768823,0.9494007645232037,0.9632616251754786,0.9662305049333981,0.9831730177133848,1.0,0.9810080748837984,0.9607267161915596,0.9346025564207605,0.8999990556014295,0.8760687896119448,0.8365693626980306,0.7990416087617964,0.7707651118063206,0.7357559588838036,0.707808113074234,0.6788043942049842,0.6721561571665675,0.6571214717427689,0.6085957103437591,0.5538059434106506,0.49900138049912446,0.44419681758759877,0.3897688773483128,0.3571524745173864,0.3509333359389162,0.3508318612603194,0.3558398988803204,0.3833789932777796,0.43695878925459963,0.49176304200137855,0.5465666123857136,0.5988544433988543,0.6277511883061426,0.6627704125928084,0.6666578373959338,0.6540776684668614,0.6654878153409016,0.6860499947466301,0.701165057551147,0.7152444476813491,0.7198703875392067,0.7198741095161809,0.7198741095161862,0.719872124461808,0.7167334768992211,0.7047282240622859,0.7182214515569338,0.7198738613844107,0.7198741095162147,0.7198741095162196,0.7198741095162244,0.7198741095162293,0.7198741095162351,0.71987410951624,0.7198741095162449,0.7198741095162506,0.7198741095162555,0.7198741095162604,0.7198741095162662,0.7198741095162711,0.719874109516276,0.7198747298457757,0.7214693426458441,0.7417700885373919,0.7548767588701719,0.7550218433245592,0.749323389322877,0.7411783495624173,0.751889776641931,0.7380334289362822,0.7236247761217807,0.7198817866538043,0.7198741095163288,0.7198741095163341,0.719874109516339,0.7198741095163443,0.7198741095163492,0.719874109516355,0.7198741095163599,0.7198741095163648,0.7198741095163701,0.7198741095163754,0.7186462770088502,0.702136924158665,0.6655782147166867,0.6233972773915126,0.5734385624756788,0.5186510287287507,0.467622878837497,0.42606609191698164,0.37181343261035815,0.3172173793380977,0.2740905911656961,0.22495929929391822,0.17017400303021812,0.11543057919023525,0.0695334349766843,0.02419482589155031,0.0,0.02188182998673094,0.0624885528047745,0.11330432098663268,0.1681059063165833,0.22291046922810942,0.27771503213963555,0.3325195950511617,0.3873241579626874,0.4420995203603777,0.4894077434729711,0.5342372399521436,0.5889635875428327,0.6437681504543575,0.6985727133658837,0.7533772762774098,0.8081576056081046,0.8564604819086377,0.897289355537398,0.9015449499401722,0.8956820118091944,0.8931589667531372,0.8792488560544696,0.8780838803077717,0.8780843145384232,0.879960819140261,0.8900469143205254,0.8864709363456313,0.909391471588612,0.9169887172000095,0.9302356199811901,0.9322074147023809,0.9519895945523982,0.9774951302557748,0.9731316737678068,0.965850478696133,0.9550221973199902,0.9599828850854273,0.9340650451416135,0.8976319882761987,0.8618064936313834,0.8334819239848512,0.799425113582859,0.7638489305131269,0.7422865051602892,0.7193917294890269,0.6913268288973682,0.6849119309162699,0.6951352233166483,0.7038369196318954,0.7185133993172896,0.7344447206850324,0.7539118453519129,0.743508289870392,0.7460514395150448,0.7479701630692372,0.7476884463998283,0.7543010063328848,0.7406482993388996,0.7374572974313249,0.7374529315825185,0.7374529315825233,0.7374529315825287,0.737452931582534,0.7374529315825393,0.7374529315825447,0.7374529315825495,0.7374529315825549,0.7374529315825602,0.7362253472068332,0.7216529018005033,0.7198748539120063,0.7198867535871041,0.7244567939014486,0.7363369933948203,0.7230920552095172,0.7261259397043927,0.7376993700877765,0.750831717344941,0.7582229031643961,0.769627465556407,0.7562993423162259,0.755032187879229,0.7542856140791394,0.7395171704578489,0.722568500738614,0.7330269817925386,0.7317410934121211,0.7236007681558232,0.7368143179992379,0.737450698396473,0.7340990487949965,0.7206304945681032,0.7198742335826056,0.719874109516712,0.7198741095167178,0.7198731169895307,0.7175435164050907,0.6927417961726094,0.6427214580273786,0.5879295391863382,0.5339786418302968,0.4935362576499185,0.44109367999053184,0.38629010960619725,0.33151822535072517,0.283841668246541,0.2392762910615982,0.18465068002605767,0.1299243324353685,0.08509855793316712,0.043537485666901965,0.03752370328829446,0.06894240231564908,0.11440222291686553,0.1691399546737502,0.22394451758527634,0.27874908049680247,0.33355364340832816,0.3880295030817198,0.4300009791590482,0.480391983922118,0.5351930729884731,0.5899976358999992,0.6448021988115253,0.699606761723051,0.7544113246345754,0.8091899983209352,0.8572180594673076,0.9006971565094801,0.9238356836589299,0.9066771510769467,0.8953289133752476,0.8821112658438626,0.8780928408922315,0.8780835081104206,0.8780835081104259,0.8785331709920849,0.8916707439640028,0.8965179783694772,0.9101003335265427,0.9145067558556357,0.9285485073744644,0.9365340974052185,0.9543481515869559,0.9551002037114,0.9484090831927183,0.9422948567944491,0.9219253800313436,0.8868375972919078,0.8502806599869484,0.8165415523904707,0.7825635655334855,0.7473867527598874,MI
0.8466338398322613,0.8847572603393647,0.9037766700929444,0.9304650888872086,0.9365696093763063,0.9641464336926218,0.9917429771560595,0.9748817545601343,0.967088596619897,0.9387513386629127,0.8982720482704343,0.8566085751346542,0.8149362773465905,0.7743935350509252,0.7337095983187085,0.6919931772692225,0.6505156306842661,0.6138246775439162,0.5858343192023847,0.5760622190548528,0.5760233051974808,0.5760233051974843,0.5760236434490738,0.577557035557061,0.6039658869321078,0.6086443738870839,0.6086455239424753,0.6087428829635098,0.6227592272884284,0.6116250138329011,0.6086463752089761,0.608645523942493,0.6086455239424984,0.6086455239425028,0.6086455239425081,0.6086455239425126,0.6086455239425161,0.6086455239425206,0.608645523942525,0.6086585613152371,0.6163650779486813,0.6408913875592823,0.6409729886274604,0.6180949289739646,0.6086799763370525,0.6086455239425534,0.6086455239425588,0.6086455239425632,0.6086455239425677,0.608645523942573,0.6086455239425774,0.6086434493328632,0.6030210194137009,0.5781279325550868,0.6012026434145774,0.608642344377702,0.6086455239426005,0.6053255743369554,0.5779906780636077,0.5760239760632864,0.5760233051976487,0.5760233051976531,0.5760233051976567,0.576023305197662,0.5760233051976655,0.5757302511598734,0.5513641332816226,0.5155020219414403,0.5009190838932955,0.46109696318856663,0.45009532331959345,0.4780969968986719,0.5112162774397708,0.5516586067385001,0.5757387512711682,0.5756367499359563,0.5481122069966453,0.5076391626521897,0.46305328347159236,0.3883843117686858,0.3316183900615899,0.25607742498510166,0.18813486892099807,0.12409203860793738,0.05714854802686986,0.023272194715795003,0.03043511845087199,0.09769698823100281,0.17995119055292186,0.2617570548680188,0.3226716360447668,0.39411092676434034,0.47636562518858305,0.5586247885337379,0.6407928389058872,0.7072774268422206,0.7727569146979221,0.8182990794334692,0.7696705399437294,0.7376154959905312,0.7092585308741581,0.7074513769912798,0.7322253086350656,0.7391314223086463,0.7391344045601196,0.7402344867757646,0.7657172932525036,0.7717549545972835,0.7745749271021269,0.8016589505410598,0.8075935700403933,0.8346097348727088,0.850871312133874,0.8778909086156892,0.9024282357020299,0.9246365931276106,0.9348634719725917,0.9345219566647955,0.9104753887753967,0.883069307831966,0.8425560601651503,0.802013317869485,0.760588110345382,0.718871689295896,0.6781348046499724,0.6375920623543081,0.5961858654718268,0.575699254118744,0.5495553603903591,0.5215694203061298,0.5180088030757837,0.5429992309908389,0.5434010864528718,0.5434010864528753,0.5434010864528798,0.5434010864528842,0.5434010864528895,0.5434010864528949,0.5434010864528975,0.5440013829427617,0.5663854062147049,0.5738055280365808,0.5470122442740433,0.5434025240221514,0.5451406132562067,0.5719889435660424,0.5756226311056949,0.5506167207046158,0.5453091017866809,0.5724959456491678,0.5760232826478076,0.5760233051979178,0.5760233051979231,0.5760233051979275,0.576023305197932,0.5760233051979364,0.57602330519794,0.5760233051979453,0.5760233051979506,0.5760233051979542,0.5760233051979586,0.5760233051979649,0.5760233051979684,0.5760233051979728,0.5760233051979773,0.5760233051979817,0.5760233051979871,0.5760233051979906,0.5733255854216184,0.5462567367192035,0.5493195353867133,0.5752789999808163,0.5625888028121908,0.5435309910715516,0.5434010864530476,0.5434065393388732,0.550507984887755,0.5747174317531272,0.5451012173825465,0.5124832559694674,0.4944501595713362,0.45521938214461244,0.42895386422496173,0.4278318369829943,0.4677089338800702,0.49371415889787684,0.5351033218974646,0.5714301001076931,0.5707848247291922,0.5331889108419965,0.49146850406134135,0.4410469365101859,0.38712216571819,0.30794205383573736,0.24610682222058866,0.1757953084621251,0.09403241446614086,0.040905179983404594,0.0,0.009635195122645435,0.0607176737963373,0.10013915528131534,0.15932805445829512,0.21449320443129416,0.29419292129546903,0.37645208464062474,0.45868661080960216,0.5323138546861017,0.5909395104807595,0.6728665192762859,0.7551252654444873,0.8352909378111759,0.8333080419518,0.7800726945375089,0.7404906084297807,0.7391345454986231,0.7391343989229409,0.7392429116011616,0.75731364250327,0.7718574875893509,0.790647392898391,0.815967753540555,0.8367998023217682,0.8372485577442195,0.8571379223676887,0.869946528768212,0.8904135956017747,0.9056718348821695,0.9339254533039103,0.9623493821427651,0.9675718575663952,0.9823471457407829,1.0,0.9873441960751856,0.9387424172539047,0.9080214971313358,0.8675555194030391,0.8261722928803232,0.7791525868409668,0.7276227002097837,0.6858392057856699,0.6451552690534559,0.6046181642841946,0.577072659906273,0.576023305198186,0.5760233051981904,0.5760233051981958,0.5760233051982002,0.5760234630489451,0.577321839622102,0.6032284293573893,0.6086436522844192,0.6086455239431903,0.6086455239431947,0.6086455239431983,MI
0.7673187983972578,0.7847490233597767,0.7911262038960643,0.787450033253978,0.7776508488541063,0.7711087141847752,0.7640518910101242,0.7710522427386801,0.7911040760720114,0.8092998635075033,0.823249937801104,0.8603135669754491,0.8928518068261095,0.873731346063181,0.8300797647394531,0.780275020064271,0.7328447821888602,0.6899125040170033,0.6403615967247647,0.5904102348341778,0.5404709082923942,0.4931992800959435,0.450140596606327,0.4005556109095285,0.35060423497365667,0.30065306831253813,0.2513349420475881,0.2088170449631368,0.16074441301668574,0.11086593354801522,0.06571196954820968,0.028619526191003386,0.030115022566002292,0.06961820188622525,0.11350376235434712,0.16109342820771877,0.20378521398673777,0.25323797218526867,0.30275464938386487,0.34556052223796274,0.3931492560255223,0.4426372874045965,0.4853671976831122,0.5325825083430371,0.5752132530558656,0.6186521515799084,0.6550538614128014,0.6694099701225507,0.6615615835327138,0.6544847207664064,0.6570094668843984,0.6443844654087867,0.6325538456369539,0.6258919338765836,0.6475921105431028,0.6748740366122012,0.6996959252318884,0.7257523661395548,0.7518641511867827,0.7673507675404492,0.7733965383403396,0.7620548685265558,0.7461604857067312,0.7272814527987934,0.7488334470419951,0.7533283118743788,0.7475260599916567,0.7516607776275486,0.7650617050891726,0.775196271434289,0.7760345273320965,0.7734444418028426,0.7785083094508087,0.7999988636897974,0.8187458103047729,0.8185866732460458,0.83851875326538,0.8659279332296574,0.8740124635867237,0.8851826076323175,0.9274609359107076,0.9686948727091738,1.0,0.9822013312176541,0.9359674917197172,0.8891306196272624,0.8457432823114708,0.7960696927628161,0.7461182803092019,0.6961857508865388,0.6494851175343461,0.6059713749007953,0.5562637069475798,0.5063122804486804,0.4563608272637387,0.40641327366030655,0.3583418774885232,0.31587076014216464,0.2665060350479991,0.2165590259990069,0.16857304327569222,0.12607634789115574,0.07759629156052039,0.0407564571951895,0.03858627460294117,0.07775439347495117,0.12598845330432984,0.16823102662238498,0.2173354856641705,0.2666551231669638,0.309106631412541,0.3572389164706544,0.4056402598843436,0.4479697775496816,0.4971231691422613,0.5440271032089767,0.5872798551500056,0.6320537024679191,0.6731564602009981,0.7028483871140194,0.710058113950899,0.6950861134397146,0.6799263906403199,0.6631918264265457,0.6509381891718466,0.6433794688108649,0.6597585363102387,0.6832892637899992,0.7076677015473791,0.7363061358476355,0.7625808046528799,0.7833450735325578,0.7907966136488407,0.7815625890976048,0.7717925338747771,0.7753723651141007,0.773230205274706,0.7859194984595737,0.7980318007838634,0.8109903099339368,0.8211568150305972,0.8340168443993554,0.8295391728382495,0.8074373570260218,0.7827826142598775,0.761509269104016,0.754267366512974,0.7707468583726529,0.7880928991037162,0.7907697838919068,0.8153145768225163,0.8543878987204778,0.8804432237821971,0.8521464759369775,0.803251524571593,0.7603714984217866,0.7129380718369458,0.66299594024372,0.6130509494360021,0.565303492202671,0.5226240246663334,0.47314127418321483,0.42318994038319957,0.37338687413471106,0.32925920397256303,0.2832496046663173,0.23333554539670276,0.18388268185853085,0.14119089607951274,0.09360322210546113,0.051751259843792474,0.04139499511815026,0.07370549502463986,0.11974503952285409,0.16209567217792786,0.21050872214358574,0.26045177061896707,0.30788796364316506,0.3430100159621381,0.38845388678388604,0.4310093817681677,0.4803611122932958,0.5299390294940443,0.5729408736733119,0.6164535892384007,0.654308730768502,0.683289543227815,0.6847041970534011,0.67655802380601,0.6631064976822656,0.644950756492831,0.6289897658597485,0.6302165378644098,0.6438344686775985,0.6631106196207497,0.6922513073326608,0.7234381612019998,0.745842844484411,0.7705374857786838,0.7811470327426995,0.7809886770822949,0.7764542286581884,0.7734760963508605,0.7619809683906063,0.7640057780904652,0.7710190229941662,0.7719048567584419,0.7793720805363735,0.7807818245751232,0.7658580436405344,0.7518412364376015,0.745613947666903,0.7422476324400438,0.7542487457954008,0.7571857575565257,0.7721797888718356,0.8025928510033962,0.8445704504288225,0.8616473642458351,0.82778408514863,0.7800624411356691,0.7301200866961959,0.68147214974725,0.6391775143079312,0.5902140774266502,0.5402636587854963,0.490312205600554,0.44041949062317265,0.394975031479589,0.3502999415013066,0.30045765892497545,0.2505709174324737,0.20527180623885077,0.1604552845770193,0.11067230405549655,0.06548513160944447,0.022514364651984864,0.0,0.025277369703949892,0.0737266226806873,0.12366880292247417,0.17138347986642355,0.21410424709453713,0.2635416141212379,0.30951667008180883,0.35367483810659417,0.4034424469029583,0.44931438969300963,0.49356260764892546,0.5421879614673817,0.5839004359236653,0.6240570184111189,0.6505665168891681,0.6570180817973763,0.644811370109323,MI
0.9278720230557465,0.9288587817107468,0.9558485034311746,0.959771736353435,0.9304219205129662,0.9516561749086119,0.9639281543900982,0.9639360115275872,0.9639371816269078,0.9664641663971043,0.9966800528363375,0.9982274502705124,0.9688198592771977,0.9610899465755667,0.9312669630583139,0.9484800681762744,0.9638697628725694,0.9460009312450639,0.9258036542461605,0.8960530503661337,0.8918096600161114,0.8918080345840362,0.8918080345840425,0.8918080345840469,0.8918080345840531,0.8918080345840584,0.8918080345840638,0.89180803458407,0.8918080345840762,0.8918080345840806,0.8918080345840869,0.8918080345840922,0.8918080345840975,0.8919604926084288,0.9128537934697132,0.9188853783580386,0.8926725307836421,0.8918051755179217,0.8855506550036463,0.8537292442360194,0.8146667203335465,0.7847000083352222,0.7836452338731403,0.7937318960057347,0.8371449909930737,0.8578616287851579,0.8877812747390834,0.8948951674252159,0.9249192549450802,0.9278695451986074,0.9218419405271607,0.8762547856348339,0.798978847961159,0.7340713466580002,0.6666668429279206,0.5847990698638377,0.5038071543295217,0.4343400621947078,0.3453608118997238,0.2824167157086679,0.19204636835855027,0.12421133777909787,0.06781044002115344,0.08166842852471223,0.13813809734294225,0.2001832553675742,0.2893977402654526,0.38078929750447177,0.44502795284955177,0.5323778227183293,0.6050743411416555,0.6411282744761975,0.68037143839208,0.7261199609658835,0.7469358348957451,0.7216770659812255,0.7381112456180565,0.719156028915747,0.7031655761128235,0.6587037139233436,0.6373967524023794,0.6017319688299896,0.5685325810444288,0.5443312076675433,0.5148169883902485,0.47049280534825844,0.4537690786404909,0.41265211208684516,0.36606368374781173,0.3361592298923517,0.2911879395076902,0.2784144262899044,0.2533617827187147,0.25289013106552627,0.27837897072195883,0.2907013432096841,0.3353613816390393,0.365212331902228,0.41930423961546115,0.4635407107852876,0.5043252090992398,0.5510905524500354,0.5981965667433462,0.6456014016605449,0.720202333821657,0.7719161210813885,0.8021372495279753,0.8581004203858456,0.8926917086705499,0.9209328824749372,0.9294399345547486,0.9580697296435892,0.9580173602063544,0.9294264288258383,0.9278721448312135,0.9278720230561772,0.9278720230561825,0.9278720230561888,0.9254175693732511,0.8956560941126179,0.8986498247751298,0.927277071888799,0.9278655636844251,0.9176879350750262,0.8925086521632473,0.8976501302852267,0.9267289231310576,0.9278720230562358,0.9278720230562403,0.9278720230562465,0.9278720230562527,0.927872023056258,0.9278720230562634,0.9278720230562687,0.9278720230562758,0.9278720230562811,0.9278642082753379,0.9157058468922239,0.9036190945430951,0.9275429127215213,0.9278720230563042,0.9278720230563096,0.9278720230563149,0.9278741461777029,0.9339936077429067,0.962976501129055,0.9598030250352529,0.9299453458505011,0.9094295228196776,0.8919268671579825,0.891810327132073,0.8986393364098682,0.9400010346824832,0.9636815231815055,0.964477385523967,0.9886723229907286,0.9999927782105553,1.0,0.9957942824118433,0.9334065879384426,0.8695512195212007,0.7845778219006254,0.7211337489139922,0.6326029832731699,0.5623814566072838,0.48223160522695885,0.39075602715186264,0.32696738591921815,0.23919256781956388,0.15259923383452012,0.0880482526325066,0.020847634845898355,0.0,0.04220001283851271,0.09971210524815266,0.19062199378329492,0.27178997707893426,0.34103261120978345,0.43379511096972667,0.5251779457653463,0.589354293541132,0.6637870649620048,0.6820984188227888,0.7108837921313889,0.7069879266805188,0.6774500932802603,0.6754167707784369,0.6628893049926745,0.6397257984780209,0.623921679693713,0.5782554598601042,0.5323092088057946,0.4968476264530546,0.47426534777399976,0.4314728250531896,0.39944438869517374,0.3579168987450707,0.34140581214443255,0.2968353113483442,0.2763028147613076,0.24638220690067492,0.24265772986548484,0.24288330633524247,0.2666248491380978,0.30933968923840727,0.3417153249981171,0.3879794681452031,0.4339326868497402,0.4809023908538368,0.5281749885641434,0.5895598710911827,0.6394394960839707,0.7017899631784044,0.7441032949416062,0.7786053526730194,0.8259029713436759,0.8855437635019934,0.9162873560859586,0.9287291280404952,0.9549590452990282,0.9639303569307751,0.9639360115283759,0.9639360115283813,0.9639360115283875,0.9639360115283928,0.9639988016837027,0.9760762167349499,0.9836875539076972,0.9676846902708061,0.9973806232246156,0.9881640612007105,0.9644075212639436,0.9639360115284292,0.9639360115284346,0.963929509800117,0.9537200463020339,0.9387078317404844,0.9506821487626711,0.9283531488282843,0.9486057729209438,0.9639261212772388,0.9639288320955677,0.9526725290638751,0.9304219205138722,0.9593571647579511,0.9633385801760754,0.9347650461536912,0.9427283496344279,0.9446864359550524,0.9335073084118592,0.9625854934409608,0.97109063655616,0.9913356667768491,0.9601078797365856,0.9298292305260993,MI
0.7150862446053488,0.6946812511891576,0.6837035506703408,0.6427317981933296,0.6410869101332022,0.6410869101332128,0.6410886187093379,0.6446038845506035,0.6892633133523116,0.7014058418503701,0.7814002893074914,0.7965752548945737,0.7178611912675592,0.6516580596220383,0.6418234195148589,0.6690715782024981,0.6435634254289813,0.6413241114591113,0.6718453302379732,0.6585835558025579,0.6769906178918408,0.675764732167341,0.6081347298318782,0.5448664574534945,0.4843744980268152,0.3924358921746851,0.26212125725980506,0.15526809752336135,0.06650103672666319,0.05863861382871427,0.1538286629156591,0.2670671809250269,0.36108372045871917,0.45273912706854347,0.523917565883071,0.5477652461806919,0.5698901256207893,0.5380495307335611,0.5595783313860583,0.5387502672557147,0.5964049617416496,0.6404235509035061,0.6572792388535547,0.6940959006001801,0.7138582431258182,0.7605937223527786,0.7845706206151348,0.7518521552793587,0.8060192234422701,0.8965116635119372,0.9210093374019728,0.9619145527250819,0.9905059886104759,0.9640548761556733,0.9617619934847781,0.9617513037022842,0.9465862356533385,0.9093281642145143,0.9098159613639467,0.9500411910210431,0.9612127175083938,0.9246275142151728,0.9111736652304998,0.9543374841821564,0.9617652854011478,0.9735647750627603,1.0,0.9344571662822396,0.8893438282871511,0.8223574277783356,0.7953757107879742,0.7511901501901139,0.739890138220872,0.6971828247159451,0.7118499810354795,0.7415136604881525,0.6843930794976796,0.6150407543495024,0.6131966629453007,0.6080278934973844,0.5170098345044529,0.3820015985749947,0.29480569703694215,0.26832359169748266,0.30975215508973264,0.39926800343279645,0.49102514440562217,0.5682001329192552,0.5876274405176396,0.5868337909968737,0.546301132111287,0.5538876951962877,0.5872740796192701,0.5711580977220265,0.5352341894434165,0.563034283749392,0.5875849248753227,0.5620099526650897,0.5412961293172742,0.6036090984501588,0.6870858009542697,0.6945377981968317,0.7071740705128278,0.7470127395483317,0.7182360496506277,0.6898897638224177,0.6485076866430823,0.6646693341802514,0.6262150685226704,0.5886663271883243,0.58303435043989,0.5383733312530072,0.5341972492767209,0.5341959432447272,0.536973923396058,0.5801790749480276,0.5910690268952798,0.6493612849524055,0.7374358649765327,0.7189338577127433,0.65502504472596,0.6402340196955301,0.5923739044177783,0.5374262038118509,0.5341965515336842,0.5301769438702131,0.4891122209903038,0.5395512256516444,0.6076688406156272,0.6055069004634213,0.5192339384908049,0.4805527710709132,0.4325461126535117,0.326779090374691,0.18890771801244455,0.09220950181571297,0.057057126839858086,0.11267497567712503,0.20675890740909963,0.27847063606010813,0.37207359754036595,0.4248073061539266,0.4273035629785902,0.42730373294166846,0.4296867386162475,0.4721117664554484,0.4807462151963158,0.4824206552411354,0.5234443104096691,0.5343458403803663,0.5578994964447457,0.5904093573626881,0.6438533717802972,0.6938236192308143,0.7399691526879799,0.8004437984959782,0.7717752636119624,0.7481372147456327,0.7479785837120048,0.7412977030246779,0.6975751078978334,0.6938030635255572,0.6557935677852065,0.682640086157555,0.6939906794326607,0.657558195974957,0.6560448606760385,0.693995766377494,0.7157345327152846,0.7953891996781994,0.8012840811725574,0.7724816182641909,0.7085310431490655,0.694540580881208,0.6713266149092032,0.6411909211634548,0.6134864266667659,0.6137636235379897,0.6409798327349083,0.6521804120650341,0.6804455053326954,0.6150742942328655,0.5837516098797817,0.49797649326510296,0.4010105224109015,0.27377354572299595,0.13504039433388293,0.0173668959487987,0.0,0.041625646868340915,0.15362481602545586,0.2590747536422935,0.37202355922389607,0.4412970219736554,0.519542147855736,0.5867068156988573,0.5876410733455995,0.5844432123302585,0.5405039343316034,0.5341978933478781,0.5341952991747281,0.536499309953955,0.5787695689882337,0.5905875344215907,0.6342359350717786,0.6597101870120916,0.7066566050338441,0.7480843349098603,0.7853149535667452,0.7966889496400995,0.7519791281527031,0.7474320197259807,0.7107250756436088,0.6945964910993396,0.6945327469235103,0.694532746923521,0.6945226922661796,0.680104069086843,0.6422078402411149,0.6498236756402065,0.6963377441171854,0.7423543494424631,0.7457590990094687,0.7023210301692995,0.6945358509859627,0.6936635081202329,0.6540455787261372,0.684685997152485,0.6945273438871151,0.6957953074882823,0.7345607025326046,0.7194554214797613,0.6316101058566286,0.5882911076797566,0.5270380456810333,0.3911484627661874,0.2524080655830758,0.1262930198245389,0.054370514808763204,0.010100539849372758,0.06757697409426022,0.14616572308267273,0.23684831953535124,0.3315142258878936,0.44363972337542457,0.5354720969825131,0.5870858538979853,0.587595490949278,0.561820380513133,0.5353928608367351,0.5715938745913949,0.5466483111627607,0.5341997539965817,0.5341952365571228,0.5341952365571316,MI
0.1802174121625284,0.17066178236423601,0.18293441365453456,0.23712796280561443,0.3121813961751143,0.3961371616314593,0.4719871953941355,0.5281754976135216,0.5610221042303123,0.5424571903346034,0.542408920674005,0.5646607186406452,0.5545470709129217,0.48604287761705267,0.4292081253066651,0.3732315123197414,0.31311860242116607,0.23392755816532995,0.17683902634846715,0.11832520501007204,0.05893649643102661,0.017521513672105637,0.00028317865456939373,0.0024373877442385172,0.05566065745020676,0.1371115255449884,0.19602498740078422,0.2536105168408276,0.3174541417608947,0.37122454741474575,0.3602709567310831,0.29023999471902906,0.22372404937016865,0.17009561099281045,0.13176526669128075,0.057881975870532454,0.00974158698839167,0.0,0.003284753851697353,0.043254798207668976,0.09245269614320817,0.1729734406946517,0.24754802646556362,0.31283134236938137,0.3964889134445557,0.4802105974023765,0.5469946058018551,0.6200238040571926,0.7039804562800653,0.7879735433374822,0.8697438347154907,0.8856505282499181,0.8324070236478476,0.7767025788576025,0.7328420410146399,0.6929931484917478,0.6832816394154322,0.6832613566810966,0.683261356681101,0.6832613566811054,0.6821192468255322,0.6613031441383437,0.6812672122550896,0.7012037966885161,0.6905741914100809,0.7085446257336687,0.7069693884832664,0.6847584264439024,0.6832735251234401,0.689705638326005,0.6996032218593702,0.6892044240764466,0.710854389767714,0.711720311413679,0.7025288904531997,0.6749447858351583,0.6549317084022319,0.6366562459215301,0.6250837147105313,0.6011324660189268,0.597818859020927,0.5978160133215034,0.5978160133215069,0.5978160133215114,0.5978320688958738,0.6057451947303218,0.6249735673253025,0.6045506726699075,0.6137976550698068,0.6262495183352006,0.6262977944414225,0.6262977944414261,0.6262977944414296,0.6259439037697372,0.6071119856265255,0.5893832493897553,0.5617991270414007,0.5412301626279077,0.5408529630366368,0.5435719285100737,0.5699896204985557,0.604939099350037,0.6259525073855712,0.626236310253304,0.6120647551400755,0.5999421337479576,0.629944437487834,0.6498440128589453,0.6153047685507267,0.5649295253683015,0.5056434518784116,0.4236300251153531,0.339660837296615,0.26498530930763975,0.2110541817207392,0.20360290074437115,0.2601654115700307,0.32020249124113276,0.40294516275475134,0.4769401683813306,0.5427216421546555,0.6261478215631429,0.6916342891049543,0.76599622483127,0.846818332823235,0.8587633445812703,0.8184029078087742,0.7626979688351798,0.7191633335314136,0.7004624861694535,0.6835229705824992,0.6832613566812813,0.6832613566812848,0.6832609591634005,0.6811921281626536,0.658069344002882,0.6765048593085914,0.6939245706019119,0.7115886854677282,0.7117431378011969,0.7106912129456933,0.687839024430239,0.6855024493828998,0.7034695424294308,0.6845704439302254,0.683260377944102,0.6789552459904376,0.6631005891714525,0.6703068883402481,0.634323365693803,0.6263134096867566,0.6262977944415655,0.625953084589685,0.6080174939467322,0.6200000968616206,0.6262958951894482,0.6262978054837451,0.6266755059877158,0.6468853918104407,0.6547667357726676,0.6547795755614847,0.6547795755614865,0.6547795755614909,0.6547795755614954,0.654779575561498,0.6547784231611611,0.650530530492738,0.616074836645454,0.5980192841876151,0.5869497161689892,0.5749254809513462,0.5969898546876409,0.6116689030210458,0.6493349037950904,0.6686819582636088,0.6551467478766599,0.6547795755615327,0.6547800624205657,0.6573536172329537,0.6649505347002083,0.6333664188890595,0.5773452313370275,0.5035069200417719,0.44144964756805427,0.3595072821163785,0.2974542675784062,0.24561740191419146,0.23433607379637378,0.2776615418228361,0.35127784555897934,0.41325623505596054,0.49634256578967095,0.5794794777973755,0.6420973011546605,0.7198427742602678,0.8038342300889805,0.887827561077827,0.9713551438192884,0.9999999999999996,0.9459788040313692,0.8825059926299974,0.8394242105602783,0.7884928059694718,0.7688220411022519,0.7555228528265023,0.7404220341308432,0.7401840522268448,0.7288553974429619,0.7261938105930787,0.7199218939011671,0.711881224117977,0.7244804060472396,0.7219159085398279,0.7338819580029194,0.7402230036078055,0.7402217435826572,0.7334293246190513,0.7223274101239432,0.7237313905628375,0.7118356218001511,0.7117431378013932,0.7116829422065982,0.6976763348732278,0.6786781419700865,0.656286499621602,0.6547363856502764,0.6428971534848791,0.6267092245120574,0.6407980806818778,0.6547200242635252,0.654407554131931,0.6354873828164522,0.624225514469273,0.6011057817633545,0.6195202438341396,0.6193186157440702,0.6086444107732896,0.62608900504507,0.6262977944417831,0.6262977944417867,0.6262977944417911,0.6262977944417938,0.6262433975171189,0.6129880028589985,0.5973059208551441,0.5762783730320176,0.565597129326409,0.5441513178971822,0.5697285926889504,0.6019986366571595,0.6253285891139817,0.6305982959310152,0.6536868565006606,0.6547795755617183,0.6547795755617218,MI
0.7673187983972578,0.7847490233597767,0.7911262038960643,0.787450033253978,0.7776508488541063,0.7711087141847752,0.7640518910101242,0.7710522427386801,0.7911040760720114,0.8092998635075033,0.823249937801104,0.8603135669754491,0.8928518068261095,0.873731346063181,0.8300797647394531,0.780275020064271,0.7328447821888602,0.6899125040170033,0.6403615967247647,0.5904102348341778,0.5404709082923942,0.4931992800959435,0.450140596606327,0.4005556109095285,0.35060423497365667,0.30065306831253813,0.2513349420475881,0.2088170449631368,0.16074441301668574,0.11086593354801522,0.06571196954820968,0.028619526191003386,0.030115022566002292,0.06961820188622525,0.11350376235434712,0.16109342820771877,0.20378521398673777,0.25323797218526867,0.30275464938386487,0.34556052223796274,0.3931492560255223,0.4426372874045965,0.4853671976831122,0.5325825083430371,0.5752132530558656,0.6186521515799084,0.6550538614128014,0.6694099701225507,0.6615615835327138,0.6544847207664064,0.6570094668843984,0.6443844654087867,0.6325538456369539,0.6258919338765836,0.6475921105431028,0.6748740366122012,0.6996959252318884,0.7257523661395548,0.7518641511867827,0.7673507675404492,0.7733965383403396,0.7620548685265558,0.7461604857067312,0.7272814527987934,0.7488334470419951,0.7533283118743788,0.7475260599916567,0.7516607776275486,0.7650617050891726,0.775196271434289,0.7760345273320965,0.7734444418028426,0.7785083094508087,0.7999988636897974,0.8187458103047729,0.8185866732460458,0.83851875326538,0.8659279332296574,0.8740124635867237,0.8851826076323175,0.9274609359107076,0.9686948727091738,1.0,0.9822013312176541,0.9359674917197172,0.8891306196272624,0.8457432823114708,0.7960696927628161,0.7461182803092019,0.6961857508865388,0.6494851175343461,0.6059713749007953,0.5562637069475798,0.5063122804486804,0.4563608272637387,0.40641327366030655,0.3583418774885232,0.31587076014216464,0.2665060350479991,0.2165590259990069,0.16857304327569222,0.12607634789115574,0.07759629156052039,0.0407564571951895,0.03858627460294117,0.07775439347495117,0.12598845330432984,0.16823102662238498,0.2173354856641705,0.2666551231669638,0.309106631412541,0.3572389164706544,0.4056402598843436,0.4479697775496816,0.4971231691422613,0.5440271032089767,0.5872798551500056,0.6320537024679191,0.6731564602009981,0.7028483871140194,0.710058113950899,0.6950861134397146,0.6799263906403199,0.6631918264265457,0.6509381891718466,0.6433794688108649,0.6597585363102387,0.6832892637899992,0.7076677015473791,0.7363061358476355,0.7625808046528799,0.7833450735325578,0.7907966136488407,0.7815625890976048,0.7717925338747771,0.7753723651141007,0.773230205274706,0.7859194984595737,0.7980318007838634,0.8109903099339368,0.8211568150305972,0.8340168443993554,0.8295391728382495,0.8074373570260218,0.7827826142598775,0.761509269104016,0.754267366512974,0.7707468583726529,0.7880928991037162,0.7907697838919068,0.8153145768225163,0.8543878987204778,0.8804432237821971,0.8521464759369775,0.803251524571593,0.7603714984217866,0.7129380718369458,0.66299594024372,0.6130509494360021,0.565303492202671,0.5226240246663334,0.47314127418321483,0.42318994038319957,0.37338687413471106,0.32925920397256303,0.2832496046663173,0.23333554539670276,0.18388268185853085,0.14119089607951274,0.09360322210546113,0.051751259843792474,0.04139499511815026,0.07370549502463986,0.11974503952285409,0.16209567217792786,0.21050872214358574,0.26045177061896707,0.30788796364316506,0.3430100159621381,0.38845388678388604,0.4310093817681677,0.4803611122932958,0.5299390294940443,0.5729408736733119,0.6164535892384007,0.654308730768502,0.683289543227815,0.6847041970534011,0.67655802380601,0.6631064976822656,0.644950756492831,0.6289897658597485,0.6302165378644098,0.6438344686775985,0.6631106196207497,0.6922513073326608,0.7234381612019998,0.745842844484411,0.7705374857786838,0.7811470327426995,0.7809886770822949,0.7764542286581884,0.7734760963508605,0.7619809683906063,0.7640057780904652,0.7710190229941662,0.7719048567584419,0.7793720805363735,0.7807818245751232,0.7658580436405344,0.7518412364376015,0.745613947666903,0.7422476324400438,0.7542487457954008,0.7571857575565257,0.7721797888718356,0.8025928510033962,0.8445704504288225,0.8616473642458351,0.82778408514863,0.7800624411356691,0.7301200866961959,0.68147214974725,0.6391775143079312,0.5902140774266502,0.5402636587854963,0.490312205600554,0.44041949062317265,0.394975031479589,0.3502999415013066,0.30045765892497545,0.2505709174324737,0.20527180623885077,0.1604552845770193,0.11067230405549655,0.06548513160944447,0.022514364651984864,0.0,0.025277369703949892,0.0737266226806873,0.12366880292247417,0.17138347986642355,0.21410424709453713,0.2635416141212379,0.30951667008180883,0.35367483810659417,0.4034424469029583,0.44931438969300963,0.49356260764892546,0.5421879614673817,0.5839004359236653,0.6240570184111189,0.6505665168891681,0.6570180817973763,0.644811370109323,MI
0.24043943097236564,0.23000297285858462,0.2380631359634524,0.28953827320941805,0.3573094936137515,0.43996074330881996,0.49885979519109735,0.5415421816701382,0.5877164199338303,0.6264497952944934,0.706543657566467,0.7705109619244332,0.8429153170877814,0.9023878486178516,0.8627848123922464,0.8194781599142944,0.7778133039097037,0.7403156477765016,0.7334556280139246,0.7334480092914841,0.7334480092914895,0.7334476316198559,0.7295632945737731,0.7054044939111286,0.6842869641909637,0.6842868427965101,0.7037117399610482,0.7220857150165081,0.7580697907547433,0.7785765470309416,0.8306994657899285,0.8601958877481257,0.899315619644451,0.9366663408572684,0.9675772327318857,0.998495136284614,1.0,0.987240347942592,0.9702928567320424,0.9508263228814684,0.9345861098183166,0.9114634135349089,0.8882737681366546,0.8788492082832873,0.8542727832385113,0.8456897926741052,0.822603009805305,0.7994133644070498,0.7899888045536834,0.7652857877586019,0.7457598413825846,0.7520822609128004,0.7415789655312484,0.7581031258557998,0.7749996328445956,0.7752475530312175,0.7823731470178474,0.792667368135052,0.7926881165854258,0.7911600119382589,0.7688255845277716,0.7899841504022485,0.7888032939615321,0.7649558576633035,0.7630682652626373,0.7630681438681863,0.7630681438681908,0.762577173595516,0.7418314841960196,0.7319236820582367,0.700996507120971,0.6751841438341444,0.6809330958664326,0.7031603710113403,0.7072364660473065,0.7319185387825513,0.733447847432414,0.7334477395262367,0.7307409166782683,0.7061720564028455,0.6967007056609571,0.6303553014255519,0.5697360077495626,0.4935300624974337,0.4186093328977538,0.3568051999040751,0.28950879645207195,0.2208773983603729,0.13840736322444158,0.08491674907829161,0.1060117859662979,0.16801469533801505,0.25063981569409677,0.3335728502658055,0.41310277398787054,0.4689722258095683,0.5106793947094168,0.576603848558686,0.6593078109038508,0.7287413991643108,0.7695600892264967,0.8377956650174179,0.8123177539020752,0.7520336556872982,0.6982722301654745,0.6563051030445521,0.615061814524922,0.5867793951543696,0.5853474712917581,0.5858516436072314,0.606946194917418,0.609892372165409,0.5867739146718627,0.5853474308269595,0.5853473498973276,0.5855949059005843,0.6064579719890917,0.647549551578436,0.6879870797782344,0.7072363900203413,0.7422080935149573,0.7838675229901177,0.8252704264790571,0.8666699877253903,0.9048916508920826,0.911164203064379,0.9104979708046406,0.8877830001883042,0.8603070410858944,0.8439175140699939,0.8228127202196278,0.8223080758146173,0.8184236983037154,0.7942648976410718,0.7731102505036107,0.7631052612856655,0.7623972979219733,0.7401732975783162,0.7334554661550134,0.7319185387827156,0.7072462230098422,0.7122148537215516,0.732957039019178,0.7334480092918607,0.7334480092918652,0.7334480092918705,0.7334480092918758,0.7334480092918803,0.7334480092918838,0.7334480092918891,0.7334108023592645,0.7184699611574619,0.7208011497458031,0.7307118580573384,0.7061766700897119,0.7029778715201163,0.6742123431261335,0.6460196643076381,0.6445877404450284,0.6450919127604999,0.666186949648508,0.6743898435678268,0.6911812849347561,0.7179349829751009,0.7143369062686675,0.7246136145987769,0.7088820525265822,0.7033212048501598,0.6691554343186166,0.5883092284724523,0.5053729730525944,0.42310744218468077,0.3624159760236729,0.2965811899778297,0.23262028685135316,0.14993183022365564,0.07208637676295382,0.02555866418733288,0.0,0.03772859265917461,0.11438205336655471,0.1889399366929423,0.25113078596703,0.3335761925086649,0.4165125693229772,0.49944894613729396,0.5823853229516072,0.6651794170087415,0.7338073109985626,0.796126154163141,0.7888698170879724,0.7343923386312508,0.6919801580916403,0.6531662021710254,0.6445973625247241,0.6445503986297361,0.6294223107232515,0.62183504202949,0.6439167596159754,0.6445876055623794,0.6445503986297556,0.6296095574279521,0.6320832985389311,0.6590955085082912,0.6867380203957394,0.7253058782332644,0.7437142165750776,0.795043362223705,0.8267971715427809,0.8665508013041636,0.9118666796536194,0.946465333618753,0.9699178458662319,0.9700979913054137,0.9508263228819676,0.934548902886184,0.8969613459202437,0.8816910323733103,0.8812375875758107,0.8619704788859286,0.851114943395407,0.8273749751593833,0.8184291787865003,0.7945632302421384,0.7846676093492828,0.7635724510668265,0.7623973383870526,0.7401732975785773,0.7334589702571543,0.7368566006242725,0.7615381877816976,0.7580132639098016,0.74159987584141,0.7623973923401692,0.7629369249434292,0.7455209462457288,0.7412505001966014,0.7398246100631161,0.7475917544306014,0.7434527876003001,0.7334851267094393,0.7334480092921485,0.7334480092921529,0.7334480497569755,0.7339477028036985,0.7487701875194137,0.7185569305165584,0.6812176613812957,0.6886659221191191,0.707199205162083,0.7310679385573806,0.7107823664608182,0.7297110578141659,0.7475837985013882,0.7439570408454568,MI
0.8730003128807353,0.8941018713973414,0.9176599311561362,0.9490310298998881,0.9686134262477308,1.0,0.9949806491103876,0.9701990101640048,0.9362780837977267,0.9101431940304625,0.8776563927032544,0.8538110668595791,0.8186677428644695,0.7870809067922266,0.7494913162447809,0.7124400239575959,0.6805766168873011,0.6463570672875911,0.6305304919983827,0.6129908191890125,0.5824079722087658,0.5797804425093176,0.5752902282677939,0.544193816303391,0.48588327098089934,0.4265134075264645,0.36714408643720775,0.31043258215722114,0.28582873673833387,0.2828935276340121,0.2858853480504604,0.31080245983794486,0.36758712285843664,0.4269564687617864,0.48632630740212823,0.5445432413615157,0.5725181733162095,0.5665090341138646,0.5677649262866988,0.5887704122182398,0.5893249462671615,0.5794159831443655,0.5734242847989348,0.5723382272582209,0.5631169642623073,0.5729643031350786,0.5825186481515243,0.5907469768322935,0.6083179760497708,0.6071667664495264,0.6127672634070516,0.6085904012708045,0.6056749181014687,0.6056683827559333,0.6056683827559359,0.6044208729626219,0.5916245620680298,0.5891430840502307,0.5774508198894983,0.5806498166335725,0.558814727949045,0.5017198491092518,0.45537125452989136,0.4076079401763635,0.3586626690860082,0.31084912207502846,0.25741475803510916,0.20844952629147828,0.150556640759254,0.11687870801273359,0.11854004512187277,0.15253234082600375,0.20492701540050584,0.25218499322509436,0.31099211060641085,0.36675793270044243,0.4141082498064894,0.47297154277414055,0.5323417483085726,0.591581586101003,0.6416373244931131,0.6904046921271418,0.7286086639473774,0.7534275229393108,0.7749811734157683,0.7899735149393523,0.8149299272969968,0.8452616840998006,0.8692307524005418,0.8921413302624313,0.9239296651890379,0.9522988362225622,0.9840433596076545,0.978696812804797,0.9593789945075919,0.9411882253607335,0.9093305358180959,0.870280594162157,0.8386868652799748,0.8065260005802166,0.7730334231256073,0.7438121670901077,0.7118817650161344,0.6803349702419563,0.6443182397173781,0.6117522375856019,0.6056809648919876,0.6056683827559919,0.6061875506126637,0.6151578102887427,0.6064960358327842,0.6054107188014743,0.5949033883767174,0.5903142844955824,0.6030240876532105,0.6142987008391145,0.6325992396658533,0.6175396579995693,0.6141770438759906,0.6164201554552275,0.5975896918627028,0.5896139230052144,0.589528294897514,0.5895254519114204,0.5863245702281881,0.5776020590307644,0.5977848842482008,0.5794322437439505,0.5275910230522909,0.48136138188342237,0.43452302952056376,0.3898132314582412,0.3362266427533456,0.2768852989089039,0.21751599377156428,0.15976007001532277,0.11482804626878185,0.09127612398758433,0.11355048500790454,0.16680139430248886,0.2144599696513847,0.2697885478818871,0.31957121452409476,0.37254997379310817,0.4290090523621459,0.4758819418662683,0.5329512431198511,0.5793423976302288,0.6348308378104908,0.677056559623574,0.7205038378435606,0.7508149915662434,0.7747800095367845,0.7914774088986007,0.8155901720413032,0.8412379360190814,0.8660725799074438,0.8925923800033,0.9222668419810405,0.9509960517361877,0.9697894088035794,0.957680957295421,0.9287050520352502,0.8990027122646773,0.8607216201745205,0.8345138291966165,0.8021784070382392,0.7717266887391592,0.7336827628538543,0.7033662184473162,0.6705173141064362,0.63755432815337,0.6111237480821607,0.5908918461514339,0.5828236536289353,0.5735185747810623,0.5733882070390628,0.5724505925391217,0.5597231747418099,0.5487532950286851,0.5411902919304032,0.5411402605114044,0.5471297782226459,0.566361334917195,0.5861934678294451,0.5990072590954152,0.5899617380898454,0.588879565840625,0.5765914862952748,0.5733960596853316,0.5746388066179229,0.5901520230363073,0.6035821424481029,0.5930500894783823,0.6037617368326669,0.5925662619811218,0.5400830221036621,0.49328433014385675,0.44056734615531434,0.3929252274856112,0.3341034927289517,0.2747358324114977,0.21830888772190704,0.17140466094701257,0.11279966488349258,0.06026381032557637,0.016031289340065147,0.0,0.027600495592335905,0.07740911385763383,0.12394989985312188,0.1805510334709295,0.22862495481594003,0.28360515309496126,0.3428848621839231,0.3947835163004867,0.4456527639670971,0.5048510612866859,0.556588205161074,0.6050234064729114,0.6497342112368663,0.6949842826868688,0.7352142949291363,0.7647678941911868,0.7871801630999924,0.8102491278411508,0.831024494057921,0.8615919633341189,0.8924742837263486,0.9138083359766056,0.9402264764373092,0.9747038933016419,0.987915767012264,0.9653538374536632,0.944690139670965,0.9157570895612239,0.8900712037370688,0.8604602506628685,0.8293231685753439,0.7867420215588048,0.7547649255457372,0.71716959002049,0.6809796212583894,0.6541068088076103,0.6292478084544091,0.6218787044396001,0.6217942722431671,0.61715480609808,0.6060641192862479,0.6055323763389144,0.5963980593231186,0.588379692290256,0.5772381259387669,0.5972078925417148,0.5950158744240297,MI
0.8466338398322613,0.8847572603393647,0.9037766700929444,0.9304650888872086,0.9365696093763063,0.9641464336926218,0.9917429771560595,0.9748817545601343,0.967088596619897,0.9387513386629127,0.8982720482704343,0.8566085751346542,0.8149362773465905,0.7743935350509252,0.7337095983187085,0.6919931772692225,0.6505156306842661,0.6138246775439162,0.5858343192023847,0.5760622190548528,0.5760233051974808,0.5760233051974843,0.5760236434490738,0.577557035557061,0.6039658869321078,0.6086443738870839,0.6086455239424753,0.6087428829635098,0.6227592272884284,0.6116250138329011,0.6086463752089761,0.608645523942493,0.6086455239424984,0.6086455239425028,0.6086455239425081,0.6086455239425126,0.6086455239425161,0.6086455239425206,0.608645523942525,0.6086585613152371,0.6163650779486813,0.6408913875592823,0.6409729886274604,0.6180949289739646,0.6086799763370525,0.6086455239425534,0.6086455239425588,0.6086455239425632,0.6086455239425677,0.608645523942573,0.6086455239425774,0.6086434493328632,0.6030210194137009,0.5781279325550868,0.6012026434145774,0.608642344377702,0.6086455239426005,0.6053255743369554,0.5779906780636077,0.5760239760632864,0.5760233051976487,0.5760233051976531,0.5760233051976567,0.576023305197662,0.5760233051976655,0.5757302511598734,0.5513641332816226,0.5155020219414403,0.5009190838932955,0.46109696318856663,0.45009532331959345,0.4780969968986719,0.5112162774397708,0.5516586067385001,0.5757387512711682,0.5756367499359563,0.5481122069966453,0.5076391626521897,0.46305328347159236,0.3883843117686858,0.3316183900615899,0.25607742498510166,0.18813486892099807,0.12409203860793738,0.05714854802686986,0.023272194715795003,0.03043511845087199,0.09769698823100281,0.17995119055292186,0.2617570548680188,0.3226716360447668,0.39411092676434034,0.47636562518858305,0.5586247885337379,0.6407928389058872,0.7072774268422206,0.7727569146979221,0.8182990794334692,0.7696705399437294,0.7376154959905312,0.7092585308741581,0.7074513769912798,0.7322253086350656,0.7391314223086463,0.7391344045601196,0.7402344867757646,0.7657172932525036,0.7717549545972835,0.7745749271021269,0.8016589505410598,0.8075935700403933,0.8346097348727088,0.850871312133874,0.8778909086156892,0.9024282357020299,0.9246365931276106,0.9348634719725917,0.9345219566647955,0.9104753887753967,0.883069307831966,0.8425560601651503,0.802013317869485,0.760588110345382,0.718871689295896,0.6781348046499724,0.6375920623543081,0.5961858654718268,0.575699254118744,0.5495553603903591,0.5215694203061298,0.5180088030757837,0.5429992309908389,0.5434010864528718,0.5434010864528753,0.5434010864528798,0.5434010864528842,0.5434010864528895,0.5434010864528949,0.5434010864528975,0.5440013829427617,0.5663854062147049,0.5738055280365808,0.5470122442740433,0.5434025240221514,0.5451406132562067,0.5719889435660424,0.5756226311056949,0.5506167207046158,0.5453091017866809,0.5724959456491678,0.5760232826478076,0.5760233051979178,0.5760233051979231,0.5760233051979275,0.576023305197932,0.5760233051979364,0.57602330519794,0.5760233051979453,0.5760233051979506,0.5760233051979542,0.5760233051979586,0.5760233051979649,0.5760233051979684,0.5760233051979728,0.5760233051979773,0.5760233051979817,0.5760233051979871,0.5760233051979906,0.5733255854216184,0.5462567367192035,0.5493195353867133,0.5752789999808163,0.5625888028121908,0.5435309910715516,0.5434010864530476,0.5434065393388732,0.550507984887755,0.5747174317531272,0.5451012173825465,0.5124832559694674,0.4944501595713362,0.45521938214461244,0.42895386422496173,0.4278318369829943,0.4677089338800702,0.49371415889787684,0.5351033218974646,0.5714301001076931,0.5707848247291922,0.5331889108419965,0.49146850406134135,0.4410469365101859,0.38712216571819,0.30794205383573736,0.24610682222058866,0.1757953084621251,0.09403241446614086,0.040905179983404594,0.0,0.009635195122645435,0.0607176737963373,0.10013915528131534,0.15932805445829512,0.21449320443129416,0.29419292129546903,0.37645208464062474,0.45868661080960216,0.5323138546861017,0.5909395104807595,0.6728665192762859,0.7551252654444873,0.8352909378111759,0.8333080419518,0.7800726945375089,0.7404906084297807,0.7391345454986231,0.7391343989229409,0.7392429116011616,0.75731364250327,0.7718574875893509,0.790647392898391,0.815967753540555,0.8367998023217682,0.8372485577442195,0.8571379223676887,0.869946528768212,0.8904135956017747,0.9056718348821695,0.9339254533039103,0.9623493821427651,0.9675718575663952,0.9823471457407829,1.0,0.9873441960751856,0.9387424172539047,0.9080214971313358,0.8675555194030391,0.8261722928803232,0.7791525868409668,0.7276227002097837,0.6858392057856699,0.6451552690534559,0.6046181642841946,0.577072659906273,0.576023305198186,0.5760233051981904,0.5760233051981958,0.5760233051982002,0.5760234630489451,0.577321839622102,0.6032284293573893,0.6086436522844192,0.6086455239431903,0.6086455239431947,0.6086455239431983,MI
0.4274410062190692,0.42662986726939733,0.4260717320134606,0.3931843420222767,0.3614977636970538,0.32588786026234096,0.29233644927317926,0.2586873809476109,0.22151713774999338,0.19075032624579835,0.1534150350606669,0.12144579040448744,0.10543506239596989,0.12126648603863965,0.15171535380159917,0.18960241367568864,0.2278717121406304,0.2620823683628264,0.2950669134813264,0.33325382030327755,0.36571330441091354,0.391471722387037,0.42443877068761204,0.4509396479234218,0.4788232007211355,0.49501421980621707,0.505893300060908,0.5306843892251287,0.5346810224380627,0.524424956252872,0.5550902069212613,0.5904573447792822,0.6210819378388381,0.6472503211562879,0.6608675429411077,0.6684212234843094,0.6779730379241695,0.6879320328504634,0.7005558056128054,0.714773376078375,0.7337672206265651,0.7518196077347443,0.769880167184299,0.7885633726142727,0.8038027740038372,0.8230675590621166,0.8479816434974663,0.8748796488366175,0.8980668813232284,0.9182038563316075,0.9400509055118487,0.9627349231116891,0.9850578609189555,0.9999999999999998,0.9856450974665374,0.9602452455638564,0.9347322787208621,0.9091619758118872,0.8814662653338436,0.8527386640367545,0.8227420001123951,0.7930684271767106,0.7635511227949416,0.7287411512880604,0.6982231034990991,0.6686436910289528,0.6399111313975756,0.6111799985674953,0.5824548994158392,0.5552983001785339,0.530556503881189,0.5108803236849457,0.4966594893702627,0.49189212013075534,0.4924125085206841,0.5015491916252168,0.5105222149268924,0.5172303311505713,0.5284852619843414,0.5389539133400487,0.5393288053643639,0.5360926637013494,0.5266779285438494,0.5204831140343473,0.520339691633253,0.5203396916332557,0.5203396916332588,0.520400169768745,0.5260072921614132,0.541138594379794,0.5566619733837535,0.5680018484397724,0.575655432755297,0.5648480039941792,0.5497960105188529,0.5346514832236717,0.5216660080682414,0.5202959644293215,0.5155751916737086,0.5041235291075072,0.5051176708769507,0.5216466244114495,0.5270982169797391,0.5205660162812276,0.5153718400458647,0.5108838276559704,0.5080308103462676,0.5012284410865924,0.4945359061222456,0.5000980744019523,0.5075896066166858,0.5053341500927746,0.5013647118055597,0.4994188531136958,0.47513627333206987,0.4459781608728812,0.4156913172296528,0.37850691405930537,0.34754770800606494,0.31086721746274515,0.27257079957105446,0.23427196173329556,0.195973123895536,0.1576783987278756,0.12139251107355897,0.09014099833360145,0.05231735477978161,0.018547288208259127,0.0,0.014242106726783721,0.04411357756279943,0.08167299757542867,0.11996939762709324,0.1567663061653619,0.18769444796562484,0.22536805153023542,0.26366669233056794,0.3019428097294219,0.33659117460457155,0.3691730683936425,0.40736184557982646,0.44563494593388975,0.47999437162201786,0.5075440093099346,0.531986844237454,0.5562478259968138,0.5831015966794331,0.6176460510938626,0.6459153053442015,0.6663768956031106,0.679097142410704,0.6843204399448082,0.6960490513113422,0.710393531475505,0.7255576711264824,0.7431264361690664,0.7582824326216542,0.7734441922558366,0.7918403132176597,0.8088072046913424,0.8300414877366151,0.849363338100336,0.8688773110267634,0.8932900301058262,0.9203846598671943,0.9413192191481901,0.9628420559586679,0.9786047977329999,0.990517964786374,0.9746664353901611,0.9468368919030168,0.9192250521173337,0.8939862547474353,0.865301919521523,0.8383664196732159,0.8101436533421837,0.7795846602895682,0.7503806503546204,0.7216529856331091,0.691899005766228,0.6615098208888937,0.6265296349563221,0.5972722356987936,0.5706433420104635,0.5464545229922315,0.5274161281086764,0.5122648754496315,0.4978038800021869,0.4919438900802895,0.4922170821304561,0.49912289326632386,0.5043113273153328,0.5136571000214929,0.5201386353422199,0.520339691633406,0.5203396916334093,0.5203398231209861,0.5208340726104996,0.5254634417225066,0.5206169588103455,0.5216618406016518,0.5220738474080111,0.5203462676612005,0.5203396916334306,0.5203396916334337,0.5203396916334369,0.5203396916334397,0.5203396916334431,0.520339691633446,0.5203445926515626,0.5224495212940474,0.5295092325973942,0.5293154668367122,0.5203464724740547,0.5123122893045371,0.517518078840719,0.506910216929362,0.4927806112213666,0.48379159073301414,0.482418799662637,0.4865936865280249,0.48483552357382154,0.4909977817529052,0.4907300427335832,0.4699558088846445,0.4396480411795347,0.4070332905149139,0.373607625849272,0.3354360938161487,0.301864480495994,0.2682237352256225,0.23028777687408652,0.1988640233599217,0.16288338189851315,0.1257408640797153,0.09625912796336578,0.07795153983815317,0.08945458403281115,0.1230754914211476,0.1611966397359026,0.19317674090970804,0.22846905759963176,0.2667589136736619,0.3050571417623926,0.3424943492728758,0.37325075237087413,0.41045467354995746,0.44875290476067975,0.48705174259843864,0.525349413703464,0.5625537852240512,0.5933601008464988,0.6279541352748796,0.6565380594651031,0.6763966331126281,MI
0.22416801634770822,0.22597829962638993,0.2569337346866152,0.25955556547919034,0.2608033892945767,0.23443952870949092,0.18438851329196826,0.1456553397574667,0.13019297770620364,0.14848870286244065,0.20634600825643812,0.2535474813196186,0.30198472875495463,0.33272924210138255,0.35503241193028723,0.3890994509193346,0.40930985051597757,0.4074946167477327,0.36408415297579433,0.29835410763139114,0.23189377397353095,0.16700741221322835,0.1330042990484559,0.12942487600993768,0.13661482491992372,0.18169956739256587,0.24774273464291063,0.3142024445998328,0.378059911120868,0.4036098487603841,0.39465557254482775,0.4074311567871063,0.4109444674856695,0.41799242583932505,0.452910076931047,0.45838742993295556,0.44226209037698316,0.4398029066429907,0.45034913363734175,0.4572123241324122,0.4658637959578469,0.4616245278180888,0.442379184756744,0.435679501522964,0.444391581839112,0.45208051493393375,0.46483844977280153,0.4675990574437221,0.42458899122851657,0.37034116566605846,0.3092949687181825,0.25330680635672653,0.1876964491877824,0.13190703654108304,0.07065116171961705,0.029594538682928828,0.053658898842008806,0.10835907351434715,0.16995799690428282,0.23638356064441757,0.299026876720911,0.3545465441436453,0.42046889876227045,0.485253699528426,0.5397004460537658,0.6045460684221244,0.6710021334019718,0.7350458287643202,0.7896623301838468,0.8550508011087286,0.9164042530701471,0.9723087187191997,1.0,0.9499727910721836,0.8887082886796098,0.8354694168626762,0.7881220035332999,0.7412679108298148,0.7160407268286919,0.7248756114742041,0.7262613530395154,0.7186671554256461,0.6929420302902263,0.6577467711809635,0.623942817052991,0.5680352597009377,0.5275646515011387,0.48004788884958627,0.42798524558299533,0.38676905597637656,0.3412625628488688,0.29511335697820096,0.2893162475108797,0.3108925527810751,0.3411430194549059,0.36709691259630794,0.3943071593197036,0.41957911741958265,0.43619897926517925,0.4474839379512381,0.4401537249722698,0.45347000755986766,0.45461707207800073,0.4314171953255803,0.427426202429551,0.43967396141199444,0.4290043109826591,0.44223303683223003,0.460426837820445,0.44640327660122914,0.4265235958685798,0.39631614805307125,0.40681887637555425,0.44218449203665644,0.43855925945784247,0.44801825807347573,0.4429412494047469,0.3980149157835897,0.33319014055672547,0.2784137544270546,0.2148016161711026,0.15340440691132606,0.09687450879917625,0.03554302819621835,0.0,0.009808413212375244,0.06563561923318018,0.12219675599779434,0.18347044978576577,0.249904029032602,0.3163490206880235,0.37828669487088895,0.4343766801567446,0.500440058762881,0.566894714500271,0.6305330485483398,0.6853096606733988,0.7509763534230771,0.8173665288084488,0.8767991063750893,0.9069554103929343,0.8671276818093823,0.817297400860991,0.7701529012268873,0.7407296203510585,0.715830076452364,0.7224432459635648,0.7233916741407667,0.6940373871533425,0.6692561808530009,0.6360429425112302,0.6008975695530459,0.5629370291573608,0.5139862694248509,0.4689376884366623,0.42166507614489923,0.36855154516902466,0.3247286650551535,0.2854590283608558,0.2687835037637858,0.2823586102748141,0.3050932044638497,0.31772810133800267,0.31322754757189664,0.31421201438421686,0.333352031066517,0.3294574498167213,0.33525194703811634,0.33333292584430785,0.3539473984487329,0.3588564343269991,0.3602322891067282,0.36892833129040614,0.3633714356014073,0.3860735861871696,0.3759664142556658,0.35214622272597174,0.35803966545827937,0.39264441681768725,0.3971973412153007,0.40365741793721277,0.42695388701982395,0.4107815882300909,0.35906876209872296,0.2943439725217525,0.23864520561774505,0.17623481505239003,0.11350876739045823,0.0582322622968352,0.005877209313886578,0.007610252542145535,0.056108484201772946,0.11911968902984027,0.17459976003363353,0.23730621260770102,0.3036056960381508,0.3617473589798572,0.4214308979654331,0.48783220679956507,0.554236724880051,0.6144959598120359,0.6720774110352634,0.7374134448803509,0.7921296266874354,0.854034469116316,0.8927846120179463,0.8617752339485101,0.8151718664412093,0.7661145039792148,0.7459630530320323,0.774944587898228,0.7872680349342138,0.7787868447565147,0.7704894938110707,0.7471625427327862,0.71441439577199,0.6694591084305626,0.6247377900994988,0.569387136932229,0.5225295077574317,0.4770097531145452,0.4227220321512788,0.3806145490921513,0.36431272881444166,0.34503872733189356,0.35642238200623266,0.3716889431393904,0.3623236652465587,0.3922850367760251,0.415253309822619,0.43331726656127856,0.43996599946709125,0.44199048300222943,0.4576720359890314,0.4604546619159877,0.44065456063978026,0.44470671040049137,0.44748795735615365,0.46016427165896845,0.45650567050744684,0.44367129104004777,0.44492477458034685,0.46173954908899795,0.4412825752760745,0.45485041178426444,0.49213240085520216,0.5053414929418469,0.4663029928986071,0.40352871929415146,0.3370786005770343,0.2714339447530243,0.2168022763071833,0.16317229689013368,0.15015786139596798,0.19390414255843114,MI
0.7511333811720622,0.7661695015522687,0.7633294271776059,0.7500820082095405,0.7605689715168653,0.7526289434774203,0.7495052011916594,0.7600539868684133,0.7671909859839179,0.759604550624672,0.7494847609582478,0.7494374266113915,0.7582889859626083,0.7756993097443239,0.7851075204114504,0.7849896100629468,0.7735291041513634,0.7672809698350185,0.7739147145061014,0.7808888752583241,0.7676837964241532,0.767244296850075,0.7672041765699817,0.7580548914658554,0.7544790511507142,0.7669035215716415,0.7672442406207729,0.7673700490819413,0.7765616700235842,0.7720900317211936,0.7706761655936658,0.7843233832475107,0.7729173105669034,0.7617579246566382,0.7495503485964004,0.7435292727808975,0.7000315326089384,0.6641150893057417,0.6388214713894951,0.5947423437964843,0.5421039965564214,0.4986103528156134,0.45441460140212886,0.4017728929115725,0.34904109999521804,0.2967236191882088,0.2569383562678329,0.20874192169730277,0.1560188646729017,0.10330265109499992,0.056503257156997666,0.017117238038259597,0.0,0.024148777493036455,0.06587243489900763,0.10758597179561402,0.1602317908712827,0.2129635837876367,0.2656953767039911,0.3184271696203469,0.37115875106558605,0.42266679912259697,0.4610618261332595,0.5114500112413545,0.5641811978590194,0.6169129907753743,0.6696447836917296,0.7223765766080845,0.7751083695244403,0.8277840158485925,0.872948306039619,0.9128708826232406,0.9282702786203672,0.9177046105440749,0.9226923107176241,0.913007657832253,0.9104868149005543,0.9106675913842772,0.9218857870351078,0.9283780243926221,0.9330681551137525,0.9460329518278474,0.9562151638595666,0.9641676332284699,0.9642038522629472,0.9676079288473765,0.989951906928769,0.9999663584033818,1.0,0.995006839492047,0.9776377291393068,0.9527222541103755,0.9257773351557468,0.8915332175380399,0.8646479699464162,0.831833704838536,0.8025386302321373,0.7684746530830928,0.7472687899625807,0.724368985451707,0.7136618034648867,0.7144508046278277,0.7320308066622214,0.74953613681435,0.7637864501514633,0.7672464451748371,0.7698064527241497,0.7794073923270597,0.7745162084497572,0.785037270686483,0.7744427455400018,0.7672860975989431,0.7672442406208893,0.7672432822778021,0.7638823132024779,0.7551848861224757,0.7669064755341015,0.767243556090123,0.7646717546128761,0.7513981048662433,0.7642292172855716,0.7672434045154599,0.7672442406209132,0.767033724678325,0.7552786083384939,0.7517104150212508,0.7665100817498662,0.7672442406209261,0.7672442406209288,0.766549708782299,0.7521729536324595,0.7613119157289172,0.7581032060815636,0.7606983641417,0.767232330243369,0.7718351023176973,0.7890255916122761,0.7951512071566742,0.7853008853508583,0.7851491769640564,0.7851491769640591,0.7851491769640622,0.7849697965469487,0.7733937109843572,0.7672574875286369,0.7672442406209687,0.7672442406209714,0.767244240620975,0.7672442406209776,0.7672442406209807,0.767244240620983,0.7672442406209856,0.7672434583000989,0.7643943149385795,0.754683405060578,0.7588599378557954,0.728788255833571,0.6916248769044557,0.6401544531003327,0.5890814437323653,0.5510752281422797,0.4998635877521398,0.4471320649809676,0.3944692628914024,0.3526128474071699,0.3068078035049089,0.2541098296586517,0.20142009142009787,0.15811011622309712,0.11377203545522896,0.07035928877410136,0.05312038174792022,0.07211120912049607,0.11686657225416974,0.169570443944556,0.22230223686091133,0.27503402977726576,0.3277658226936211,0.3804976156099773,0.4332270858856355,0.4835823398004626,0.5102056239492967,0.5537965557905791,0.5808329677939139,0.6236539251225266,0.6516267084587177,0.6935112944544741,0.7224206691512709,0.7646699431095509,0.8161271252893152,0.8545788539654775,0.9048599343304611,0.9522502801802912,0.9508284408882512,0.9335614163242432,0.9281546608172926,0.9161883384655072,0.9104957282330131,0.9104837313658449,0.9104837460343651,0.9107238567401854,0.9235513448797925,0.9283814490039841,0.9285912828461624,0.9403459093265849,0.9464556330260612,0.9575200945249853,0.9689922678732912,0.9817289640164324,0.9831032610543979,0.9897818530630653,0.9748923518261146,0.9512715947229968,0.9319716215047236,0.9044379568781431,0.8694803102245876,0.8353959264415161,0.8048322786851902,0.7697334977493364,0.7381381353726586,0.7152095066296718,0.6982369414223215,0.695638977805281,0.7012192617479496,0.7247065822544068,0.7423401871639479,0.7504472720930631,0.7646858772136547,0.7672435609798054,0.767244240621082,0.7672442406210842,0.7672442406210873,0.7672442406210904,0.7672440157038367,0.7660156537693661,0.7532100612833839,0.7664187537211977,0.7563526983193394,0.7493749095498683,0.7493514098443481,0.7550409385873413,0.7575944221104094,0.7494249231993892,0.7493395010806121,0.7504884252659241,0.7620562932821797,0.7513974398937027,0.7643286316712903,0.7651705916521161,0.7513981048664657,0.7637292703290153,0.7657698930979606,0.7509854492983616,0.7566438449376403,0.7671935920206208,MI
0.897323225953782,0.9263514832943578,0.8453359701894705,0.763615381306769,0.7110718060044121,0.6298435584928797,0.6012551377794431,0.5444006707421156,0.5405998661873443,0.5405989555914168,0.5405989555914186,0.5405989555914203,0.5405989555914239,0.5405989555914257,0.5405989555914257,0.5405989555914275,0.5405989555914292,0.540598955591431,0.540598955591431,0.5405989555914328,0.5405989555914346,0.5405989555914363,0.5405989555914381,0.5405989555914399,0.5405989555914399,0.5403033613608237,0.48915070631785973,0.3802453204188758,0.2788029400495802,0.27150310854266024,0.33729555453852456,0.46988408463567133,0.5385434769364537,0.5972653528036584,0.6233433850723298,0.6604284620626792,0.6239601652282563,0.6750199531169478,0.6419437448135934,0.5460923930209507,0.5405999800118746,0.5399723880129947,0.489527760128901,0.49203214166926124,0.5501272369882475,0.67144304250297,0.8378892976787533,0.9849662011041982,0.9639800070110844,0.8817056110350272,0.7668735573779095,0.6814758457062862,0.5994711539640463,0.5427146585493272,0.5399248296752628,0.48790488141330357,0.4216022340011083,0.31731814694690996,0.2610604095258946,0.2053648494998246,0.1665255052961605,0.1322208366127775,0.07769584812778874,0.06757634916730915,0.0675748694489311,0.06757441415096999,0.06056806064387388,0.0038017151506988256,9.10595925773805e-07,0.0,0.001632814422286799,0.05092454372886834,0.11122112671225182,0.20257612828455862,0.2698440455225821,0.35171351268089346,0.4125023365595446,0.4849395120741722,0.567040024079775,0.6103495552382991,0.6889557223339526,0.756888736659544,0.7976704278898907,0.7454383563002409,0.7433236777628007,0.7433235639383113,0.7433235639383131,0.7433235639383149,0.7433235639383167,0.74312604581994,0.707261506663464,0.7051199002045774,0.7430783736577133,0.743323563938322,0.7433235639383255,0.7433235639383273,0.7433244745342549,0.7471252790890297,0.8038916245822101,0.8102237383486077,0.7584999534397223,0.7433499610704946,0.7433235639383344,0.7427446685221053,0.6895884290480616,0.6170820379106505,0.6049465967369851,0.516186223191685,0.4090306912975059,0.33969677405813314,0.36786753825178664,0.482490594598854,0.5987475346938247,0.6706120466927565,0.7286630637046745,0.7433167344689,0.7323886945694618,0.6783431883011808,0.6655943151312105,0.5898896853523095,0.541887748445891,0.5667415671093714,0.5499911928980303,0.4939264523768827,0.517601736363325,0.6019545728910991,0.7256441333570525,0.8917996887553237,1.0,0.9393928033618852,0.8751016615660419,0.7760881341150832,0.6643894083650803,0.5491408183865243,0.5406002076609546,0.5400677323375582,0.4889132855196827,0.4151455230805041,0.34119145721613897,0.24011641321383692,0.20289914406782827,0.2027209659631808,0.19021851475246798,0.1372645312598859,0.13514985272244395,0.1348568764551139,0.09464227786677881,0.06770002564037192,0.06757486944902524,0.06762595634598334,0.08527896436168092,0.13548103246801624,0.1820466665925231,0.26568833776437906,0.3347928366296422,0.39880835531815073,0.48071314975629775,0.5436804662067161,0.6138164970970266,0.677975977077617,0.7712143568034886,0.8109575398360374,0.844427695828962,0.8783234568801266,0.8746089424822774,0.8197555593605639,0.8108997992812306,0.8108984333873419,0.8108975227914161,0.8031070368899371,0.7518953563439368,0.7749403291417583,0.7435104445417515,0.7433235639384108,0.7426493241977141,0.6909257669378128,0.6790948288326923,0.7347432544180101,0.7331729407884051,0.678637540657844,0.6934532447001001,0.7427446685221888,0.7433235639384232,0.743323563938425,0.743323563938425,0.7433235639384268,0.742931714787419,0.68599527716081,0.5824647962405276,0.4976912868761172,0.4208141941658461,0.42586960498837456,0.5061337983943552,0.5624958054949971,0.6658542813901054,0.6785796242914603,0.7142067005375008,0.6797350137537279,0.7300955584410893,0.687126696404551,0.6610357414649908,0.5803108347038748,0.5445892587130405,0.6138125132398997,0.6625202336941989,0.6106053830340841,0.6285695235704019,0.7189793854200381,0.8298663810056706,0.963664254634244,0.9547009506706594,0.9238516304695974,0.7793040463890346,0.6318881225365462,0.6004578637314566,0.5441596817725234,0.5402115455957794,0.49577676240845037,0.4451970778950063,0.3514951924128251,0.2724752079937751,0.22979224441372104,0.20260457425771605,0.16437109865709232,0.13528541877993483,0.12578734582408657,0.07824552506404636,0.12192230252314751,0.07089460666016478,0.0675755523960575,0.06757498327360345,0.06968966181104896,0.12264364530363281,0.13702069667789019,0.1916252895921602,0.2625787358581917,0.2906940380808436,0.38104160639603357,0.47287560608048373,0.5412432729041825,0.650761866053525,0.6833752461961442,0.7551138336787471,0.8102718658089572,0.8108984333874236,0.8108984333874272,0.8108947910037223,0.7983940471603699,0.7580838533048091,0.7976705417145702,0.7457551219320031,0.7629290243329265,0.760672080506211,0.7919692277837012,0.810893425109839,MI
0.8121827684655738,0.7870398789185904,0.7955940210870445,0.792262775902012,0.7893574197013402,0.8186378259728473,0.8447090224133236,0.8554740240778917,0.8626465198933522,0.8225436178685879,0.8121256477724694,0.7860099206008657,0.7803784879939144,0.7790330716493443,0.7458290049656426,0.6868934760556362,0.6195827303757939,0.5782910120338789,0.5061318346631527,0.4181114670179964,0.3300003356132102,0.24188920420842575,0.1537780728036413,0.06636035442950838,0.012885134504236007,0.0008986104929702421,0.0,0.0020252998312999537,0.018379568935419144,0.08594864078895803,0.17392504640995732,0.26203617781474264,0.3501473092195271,0.43825844062431063,0.5261370531711655,0.5822799774655261,0.5849312147181243,0.5632707806330961,0.5283144380648093,0.4982110601155396,0.5616467678306059,0.5844348188094299,0.5583684908568252,0.5587633183853882,0.5844359280318319,0.5672631239320456,0.5600641738432355,0.5891546671915062,0.6165063405330384,0.6172665342213124,0.5939105980757038,0.6007919742788612,0.6471612714828838,0.6264841333188977,0.6443433775830787,0.6526100538277895,0.6811335128410985,0.7073865633035128,0.6880929664417774,0.7222779098164454,0.7717601988286349,0.8121709379006381,0.8128956858206413,0.82224017267903,0.8770970112805774,0.902452944247699,0.862105316969112,0.8455430495923117,0.8436965559295837,0.7984762931838025,0.7804858534534489,0.780368000800415,0.7734825058203931,0.7488337797680655,0.7355213657986495,0.718924403505917,0.7457758410450319,0.7478587692073244,0.7456518972183526,0.7185420585272473,0.7238951635242197,0.7637847201727039,0.7724062913146961,0.7486287404170104,0.754787305716615,0.777696459666454,0.7513391180730551,0.7480028746731309,0.7639067607845105,0.7793574005146287,0.7547492864767662,0.7724194715905277,0.7500426842251979,0.7501026380009437,0.784705068713011,0.8094100825838044,0.7550854265314833,0.7164906384465528,0.732830142679922,0.7612574634090734,0.7804102900175494,0.7990737621942987,0.7897894047137148,0.7917463699796858,0.79624583939062,0.7801873132028518,0.7572888039387413,0.7197406748775892,0.7225980140479464,0.7470086064965589,0.7212177126657418,0.6626011338798055,0.5836675533563831,0.5530058932081099,0.5625702645378858,0.6102249221889391,0.6683140087542414,0.7271351771643877,0.7963258703968767,0.7862577469733436,0.7427700457780766,0.7155599432336466,0.686733061254639,0.6524909259916258,0.6503125453721514,0.6498257560318539,0.6269147179357981,0.6295145982410988,0.659103613012868,0.6819829837840059,0.6607037764106094,0.631741864156588,0.6194039689646731,0.6448079356766199,0.649517083652194,0.6250933517748036,0.6518250597800641,0.695028906318524,0.6963155073368075,0.657393177572799,0.6550034274663084,0.6927491176248015,0.7236649933408259,0.769807968433339,0.8247177889537003,0.8472362411256222,0.88097040786701,0.9239789124673443,0.9225850946975385,0.8788553992641557,0.8234110250331836,0.8118545412522247,0.7852604193780142,0.7870909833740631,0.8103422189836511,0.7840703150515624,0.7803771266757167,0.7801155090961496,0.7595285637266231,0.7473371627301919,0.7231723086350188,0.7191524286976101,0.7563174857528443,0.7795300395361,0.7571579347216852,0.7478713014774057,0.747858769207463,0.7478587692074647,0.7463929383802013,0.7136636669360099,0.6842905094442031,0.6976960060165158,0.7152707238508658,0.7104094477807887,0.6845376798380487,0.6828255836149255,0.6770807499843894,0.6587615027458229,0.686545609441537,0.7131836699332466,0.6727309550557248,0.6266465417039528,0.6210426751575682,0.6792583656328262,0.7148625102840684,0.705899171520886,0.6856026453808388,0.7119215624663466,0.7126404366611121,0.6853556855144722,0.6828107603701987,0.6698442494571433,0.6486891131999073,0.6023048718837085,0.544725511230773,0.5212717192883849,0.5480186522734334,0.6053593542593632,0.6332002289862508,0.6316285898053478,0.6723235538323458,0.653051734211874,0.6172837455731486,0.5674954018788547,0.5260248164801604,0.5081276411711357,0.48794358571817664,0.48195683300463177,0.4579928486261089,0.4819342378340643,0.49864657222943976,0.5215986475752699,0.5448061202823622,0.5226943494710703,0.5146724165828118,0.4905085338768007,0.5140372988569375,0.5012468491888828,0.5077690754930204,0.5360645812917584,0.5527482907984282,0.5620870205007718,0.602409122323694,0.6221703714524995,0.6740963249443146,0.7194231797373778,0.7531354103506436,0.8047703410719338,0.8428955396982394,0.8837101096775957,0.9233962935982483,0.9678223548201865,1.0,0.9670506573925826,0.9425218724497348,0.9178685413297192,0.9440605834115834,0.9664980393433638,0.9378509545988223,0.8979984324795254,0.8933615309928831,0.9345962498981564,0.9429473345996788,0.9485883468546046,0.9746871818834322,0.9754685659623483,0.9754685659623501,0.9753029132284006,0.9561904472709033,0.9277608131332524,0.9105979634072563,0.9104371954609984,0.9104371954610002,0.9064960448629078,0.8585964872941281,MI
0.3642147326526799,0.35754260032986496,0.3804889541940448,0.4356912582919916,0.5127910293723046,0.5894450380665281,0.6396447164264529,0.6674742742669686,0.6690018257889014,0.6675044094300917,0.6250351269845145,0.5588609166328333,0.5059121700533251,0.4376825136887974,0.3774290515826988,0.3232727413207499,0.26635981265084663,0.22764856647111298,0.21360310900349155,0.2227010141575696,0.28680852423252734,0.35480089151974425,0.40766621087142774,0.4675896014509142,0.5198116872098884,0.5330754602257826,0.5642920159096536,0.62310102331401,0.667243640204016,0.6591751669058947,0.660282701027874,0.6540917651899152,0.6156020009105143,0.5396953783075431,0.46086302200469786,0.3820288023463312,0.3032314391025994,0.23493222310932538,0.21517690943095502,0.2132368131886473,0.21702135806630718,0.24411943542277514,0.3179679074123576,0.39679845925130364,0.47563267890966987,0.5544606739089413,0.626378679716932,0.6447585366463979,0.6314822900110819,0.6343673015381941,0.6541884863813214,0.6546089052057527,0.6546312981524838,0.6663452334452193,0.7063321634480411,0.7263101003954531,0.7591300472168125,0.7780804936118755,0.7967805362047469,0.8127102176804573,0.8129373359642842,0.8151548835851585,0.8346571531989802,0.8369244418858082,0.8369248275945984,0.8369248275946006,0.8369248275946024,0.8369248275946046,0.8369248275946064,0.8367145144075034,0.8212804530701865,0.8130123843461634,0.8195212017893319,0.8158455832685712,0.8129654257452441,0.8204336405890262,0.8528689184684599,0.8452323832470636,0.8369650544218419,0.836928088899235,0.8404204888582223,0.8470364004922368,0.8099373126996054,0.7766720415123296,0.7751202795469294,0.7653607998690855,0.7734752279738855,0.8099359157117996,0.8478210950366596,0.8679364684678377,0.8845312488250716,0.8850870245255957,0.8981516515908563,0.9088255605221929,0.9088994977023188,0.9142784762900091,0.941549171813763,0.9900375009418769,0.9999999999999996,0.9365209066513169,0.8710102183414228,0.7923806712602399,0.7136364170791243,0.6463130200204428,0.5797459012243209,0.5010327258163723,0.42220620744419257,0.34891898631784546,0.2879052267200395,0.2096903138981121,0.13570918456050052,0.07536399219709855,0.01632035829063394,0.0,0.04540596479319481,0.1234971005081853,0.19020663469770094,0.2573805828870346,0.33605333445013974,0.4038270947927609,0.4695666678669621,0.5330147444094302,0.5998161275235843,0.6540430341150425,0.7062547924738216,0.7478724012782925,0.7619815131613064,0.7427895765404386,0.7281395774809574,0.7170476299625439,0.7162079117068223,0.6984470855965221,0.6930001686253249,0.6929912540022389,0.6933541167876176,0.7086567330980444,0.7096681140016092,0.6842022412445394,0.683850802061142,0.6961025889567867,0.7269983206439634,0.7563144290622494,0.7943335775381053,0.8135776269013673,0.833665293405792,0.8579097910465565,0.8777583151133257,0.884318931272043,0.867569364432117,0.8766709580210419,0.8848886711214115,0.8851887346528082,0.8995351002586243,0.9088639693658247,0.9088916271635079,0.9089310517687017,0.9169484352725346,0.9176099910358606,0.9089385391742746,0.9089409458403517,0.918048084230501,0.937391448983592,0.9514800874899927,0.9151480420471123,0.8704479952784236,0.851327261702596,0.837190526248206,0.8369243868833189,0.8340189721721925,0.8136704711333773,0.7801565618571886,0.742502286604815,0.7174853513319333,0.7248552047810684,0.7607461592319513,0.779217163662167,0.7809385219800173,0.8129708140212952,0.8278883150920522,0.8133634986767437,0.8153276928949982,0.8349858557413978,0.8371381866619081,0.850614004761773,0.8697506560181987,0.9074647330892245,0.958923894109716,0.9210726924835675,0.8426163152142023,0.7637820999284299,0.6850796687103129,0.6192208705712465,0.5512032784329333,0.47244046168733567,0.3986905839965078,0.3380194561199139,0.259990675307586,0.19198835754661836,0.13206929093078346,0.08875714350380637,0.07713967993525594,0.123712286870171,0.1933334056618765,0.2673062368090511,0.3279149082767976,0.40527918011852826,0.4667703690724956,0.5378278601497497,0.5971582974167862,0.6554284478072891,0.7029980558408497,0.716865827855051,0.7154947149463085,0.6959216271303981,0.6928901854023368,0.6808985475206213,0.669086716564772,0.6659612031254847,0.6468258315478432,0.6450141537282486,0.6450133620779988,0.645013362078001,0.6450650874209138,0.6541571270966,0.6539910864810148,0.6672354180716304,0.6995216832848397,0.7387614091325463,0.7641457134329239,0.7804043693910945,0.806143073009467,0.8098448867942416,0.7907391046999406,0.7889477203704098,0.7890951281666045,0.8017040259730024,0.8128561712862505,0.812935894405217,0.8129357646082287,0.8118571466839422,0.7931167859694201,0.781373956577514,0.7780446326191868,0.7767049993303248,0.7742483984703412,0.7725433285592813,0.7738870016249235,0.8098199774320918,0.7975604178362405,0.7893080807605295,0.8040097737525351,0.8129203031650425,0.8143215181792605,0.8329322435796804,0.8241046468395794,MI
0.2943883781174843,0.30305592778637513,0.3442036029454618,0.39251517073916453,0.40842286875419886,0.3959701395605575,0.3524994706879545,0.3044872030265482,0.26508563076182035,0.23609614602274287,0.2299454805643968,0.2521253401578918,0.2954727606619938,0.2902129088583376,0.2450103930841323,0.19250902007029946,0.14896369110386298,0.14165753718350538,0.18255757436294484,0.2251468792251936,0.2511909313047185,0.2964476008518193,0.35184738676769145,0.4051373055395544,0.4530430687962872,0.5081499321816192,0.5637877006586636,0.619425469135708,0.6750483658338315,0.7277172698305623,0.7760719353282728,0.8313570587911558,0.8869909309809911,0.9385027439890539,0.9358888287289349,0.9054726852072512,0.8656493871664053,0.81920046864758,0.7727668766275866,0.7264827790228874,0.6802847179258611,0.6347421369524862,0.5904717998036328,0.5611360260843812,0.5626492754844339,0.580001287805394,0.6005800150429288,0.5987480518399333,0.5692360541978174,0.5322769721517331,0.49385543178576086,0.4546564035269409,0.4199005448659454,0.38858211842927637,0.3700651284508285,0.3725354661786202,0.38768417425431334,0.4109065884222851,0.4281569319785137,0.42561886103064595,0.4109356268688389,0.39538284800145695,0.39270515575419473,0.3891760175787464,0.3653859564332971,0.3695129060055693,0.3829297809396146,0.373255720847552,0.3534149167431666,0.31679553078117806,0.2741927545324758,0.2285153310393544,0.178861820256476,0.12918212833031895,0.07927903885161158,0.03912298357404964,0.046534975456588246,0.09861299782929445,0.1499875388965468,0.19945399438647637,0.2549481115675616,0.31058588004460597,0.366030039047903,0.41524446112199986,0.4669123877117791,0.5225174697000536,0.578155238177098,0.6337765287602806,0.6862388718741148,0.7347682423060564,0.7900868278325459,0.8457216074482836,0.8990777788691899,0.9163625722171662,0.8911715070925308,0.8538638188307262,0.80758905402797,0.758339676032493,0.7046364965688185,0.6580086685769053,0.6125349672010434,0.5696034294847125,0.5371057587289709,0.5271609905493373,0.5399304515753685,0.5591929647305105,0.5614353437691657,0.5299972614336512,0.4890754059490876,0.45190831088171035,0.41500803087934157,0.38068628107304914,0.34571283681134024,0.3173328254425809,0.3058145532375238,0.3184012533749092,0.3395430285080876,0.3616977726674626,0.37504877316289575,0.3658139427115499,0.3496379473637017,0.3402745800455984,0.31952477888605446,0.3218781436249851,0.33440078805574425,0.332546105257435,0.30971681977297383,0.26763386541824175,0.22421073654998747,0.17744878165495104,0.12510797294812392,0.07701574084380991,0.025762388113971024,0.0,0.02842594904721918,0.0764007098088999,0.13172044919965153,0.18735821767669592,0.24299598615374052,0.29863375463078445,0.35427152310782906,0.4096967635960611,0.45873139063382506,0.5105945267341807,0.5662031127632758,0.6218408812403202,0.6774786497173648,0.7329978304183311,0.7830196853401727,0.833836952015542,0.8894052543403614,0.9402107144081346,0.9380022884453643,0.9080685498663426,0.8717013966394813,0.8246911691808461,0.7781485647292075,0.7315869593871078,0.6780271526221253,0.6290473722612973,0.5911819131226572,0.5649330803344172,0.5632998181456119,0.5837073768727059,0.606859653138577,0.6137423434335314,0.5877200180826951,0.5485482853462413,0.5074421825898645,0.4714821229188022,0.4396680715222576,0.40784596521881,0.3818400811984324,0.3703886676127568,0.3858212430979173,0.40848455306716724,0.4351617044970204,0.4506910563604196,0.4446455491076968,0.43741808500222246,0.4317419544428709,0.44591617973952724,0.45346960522728597,0.4347620690183218,0.4406122132251107,0.4468199186675814,0.4391106130078779,0.4130757440466428,0.37174300542855154,0.3293709640742588,0.2779788931551328,0.22277363362339742,0.17883989723985705,0.17548568894390248,0.21612095553977606,0.2704249287913991,0.3182586902873017,0.37164420607356097,0.42727511553468367,0.4823741763743896,0.5302600122226948,0.5835761050385795,0.6392068613712927,0.6948446298483346,0.7504793152872253,0.804403212558235,0.8519723113983984,0.906776687414953,0.9622873690602434,1.0000000000000002,0.9789534728127947,0.9445174407489476,0.901348522067906,0.8541477313083023,0.8078270391521276,0.7630786006274501,0.7165891217969251,0.6704768256689766,0.6323905167501285,0.6056330610648271,0.6053812225820072,0.6221908974109642,0.6277826568676816,0.6009002292115502,0.5651070890408818,0.5279195982285001,0.4889960144144152,0.45378155012082755,0.41838071133564325,0.3783218360769094,0.35174028065072616,0.34626315447544975,0.3623313937191237,0.394768157937736,0.4222974254801075,0.4302638653707429,0.42179895138682344,0.4046813296086835,0.39763662559616386,0.385003776688591,0.3856630046086915,0.39774338022540223,0.39041113506256653,0.3688012796386222,0.3264106818182424,0.2835088520986526,0.23521255777568384,0.18611369685706536,0.13067989743224628,0.07607815919473504,0.04274252659135103,0.06118643229228793,0.10813846047220843,0.1634506857996605,0.21519156364527037,MI
0.8740230268462641,0.9065462544694078,0.9363951237633952,0.938252936299822,0.9506265865052228,0.9468308163837955,0.9381794599258546,0.9381506518479208,0.9310942872256662,0.9059490024643564,0.9096042138316465,0.9368949360500469,0.9566851597228494,0.884266527532132,0.7644804075404101,0.6707541188782375,0.6180936112878035,0.6163540523868347,0.6129123947777559,0.5751555743041168,0.4639921617638594,0.34163231476428635,0.21925153851952128,0.09762253715394031,0.01478343148445127,0.00012216486335336896,0.0,0.01025531656121803,0.0627077841410264,0.1807377345230332,0.30311720473235937,0.42549715103342134,0.5451524339533815,0.6007552100522009,0.5559121128010407,0.44962910960371527,0.34895043484986665,0.23338398412881123,0.13786132481416846,0.06202158076517961,0.055324678254585535,0.14135059669485806,0.2431614819594028,0.3522140670501601,0.4745275728905236,0.5928275516999157,0.6885078987017526,0.8081232458181038,0.9146627814375607,0.8989221196369455,0.8184222006348456,0.7751219171102504,0.7891571170945868,0.7341743850022278,0.6527429091176753,0.5782982968546646,0.5123403636853228,0.502415138377799,0.502446032043836,0.5141787591219158,0.5536158095216432,0.5991527469518498,0.6595165080827474,0.7038219435994622,0.7334785270589252,0.737218630103631,0.756283719819355,0.8015379106443739,0.8353445302204907,0.8688780136152374,0.8934244405318097,0.908367118639192,0.9352150239323844,0.9381554385000879,0.938156442152942,0.9381369687741161,0.929302679014878,0.9056036955520943,0.9050361429243967,0.9256124555589338,0.9469677412547739,0.9592219254766716,0.8848897435078111,0.7789169708919985,0.6761766202905868,0.5619622136071127,0.4640517251845333,0.3461867428634129,0.25088121328740076,0.14605037687031164,0.10910281601673066,0.1922643113939726,0.2904390844928946,0.4040896006405692,0.5264514133179192,0.6466012975328619,0.7423847475101919,0.8591949294013945,0.9480733880241292,0.9338003667023642,0.8598842003562552,0.809526252715858,0.7836395988293532,0.7107019886953037,0.6397681289683392,0.5865266470997232,0.5404111374490919,0.5414834235767714,0.5718384442542002,0.6081888449083541,0.6411813822062555,0.6915645652292177,0.7523803152301323,0.7823918310175175,0.8071767893847577,0.815740183752192,0.8166022481166966,0.8467990946695823,0.8772555814522738,0.9046286801470762,0.9401652470087187,0.9729195189846287,1.0,0.9990530777850726,0.9748786691090965,0.9915204823595065,0.9727665276493109,0.9681974799553776,0.9411284415387602,0.9382597469645395,0.9515090370484387,0.9713464270741188,0.9790941471976922,0.9717685842313228,0.8663600045878033,0.7692448928934148,0.6663455589708178,0.5589553309436956,0.44841057016777874,0.34730662877750174,0.23241205981201762,0.16177586012152023,0.16126338877580615,0.2376288871086878,0.3438228457773569,0.4649349986338853,0.5626979395626037,0.6773643150630155,0.7997375574777363,0.9181610893627763,0.9477192313899394,0.8834973643408892,0.8116624197466056,0.772356775862109,0.7469587374390638,0.6695904197399072,0.6000270650978434,0.5462495066106214,0.5359411621090846,0.5361463591723679,0.555173057939621,0.6003571627187663,0.6483781872911187,0.6992468864856622,0.7483984204365663,0.7791413720595148,0.7748824590577241,0.7941830752022732,0.816437431426789,0.8710969481351158,0.9038993727155482,0.9154827680934812,0.9376064513747657,0.9348295598425684,0.9119925703275671,0.951206008199355,0.9527078899844241,0.9359977119255527,0.8978679397003742,0.8934752209236398,0.9045867534677541,0.9047027441482927,0.9170065252473014,0.9533904955896677,0.9102195150103167,0.8163975550556257,0.7027677846596019,0.6062242141574679,0.4879910671734651,0.39228448545367556,0.27406501451815757,0.15430851759976782,0.07986976353395736,0.09694440878155142,0.19488113094533688,0.3142854924528793,0.4098125771317376,0.5281639549158763,0.650459569874914,0.7602348831102006,0.8573453061067005,0.8872317036530282,0.821636373094699,0.78020586779909,0.7443595562431637,0.6706255847625355,0.5979981697572141,0.530553940687474,0.4946401564241798,0.4699458372382761,0.4747764543707955,0.5051488681670753,0.5423959038025741,0.5976751696597882,0.6588566076564106,0.7199470118206248,0.7665220214405455,0.7705718591509969,0.7781355573083832,0.8044647013443118,0.8412161597260237,0.8860733557089757,0.904442184004294,0.9055307535361958,0.9244857104274198,0.9117953622495074,0.9355234112578934,0.91951870789417,0.9330097113104774,0.9241193516755724,0.9048944259106566,0.9046576294749924,0.9132495363677311,0.9510896294009168,0.9439520518851259,0.8471558942549455,0.7455713283739644,0.6475098514428765,0.5341826924724318,0.4304859565500063,0.322623327372372,0.21255212580794502,0.11420697329055507,0.04468364433196648,0.06731745227178809,0.16793463273720377,0.28664879045758873,0.3821207931438604,0.5013466614007793,0.6237259192989244,0.746106579737595,0.8670703648902958,0.9287822023276089,0.8748358146863175,0.7977989357028648,MI
0.077276761919296,0.08939719067282503,0.11603592667364504,0.17425192037159487,0.25166213366550494,0.32509926006642154,0.36751978693305354,0.35252055512408864,0.30514543743475686,0.23688156098103086,0.2103548953274621,0.18455526940732936,0.11820368071625431,0.11082539547479797,0.1638484442720043,0.22241724392368978,0.25025415894063396,0.3060595571307596,0.3557301462227862,0.372988756435904,0.4050944791028934,0.46254838106289986,0.5389368459209392,0.6175442778863087,0.6961524576903941,0.7747606374944787,0.8532558233743073,0.9196576089616224,0.9819234840908573,0.9618323215931364,0.9011878465163887,0.8351219020833804,0.7719772336559383,0.7069051307759882,0.6506939978169561,0.622866083859761,0.6034782748180874,0.595299207781621,0.595260537990848,0.6010913006129881,0.6176895521353636,0.6197229028471214,0.645069152117645,0.6650034959992825,0.68937461972323,0.7193006720965727,0.7526874959354082,0.7789594167418596,0.8050391035095572,0.8231389258589408,0.7989123837862468,0.7588723454387503,0.7082965393866059,0.6493351838873003,0.603430055594306,0.5512506445258625,0.49886721426124714,0.45486540229464456,0.41565631977875617,0.3881324634300305,0.3681127851056636,0.36559482698353474,0.381360281427499,0.3899165895023238,0.40833159463862545,0.4111405064681093,0.4111413993422146,0.4111413993422164,0.4111413993422177,0.41114139934221994,0.4111413993422217,0.4111413993422235,0.4111413993422248,0.41114076028005186,0.4092749132902451,0.3960060360645059,0.3982375812184267,0.39832138201020895,0.3940591797495592,0.4047028768574754,0.40123766927477966,0.3968278023890237,0.41091384855908686,0.4111413993422408,0.41114139934224214,0.4111264160773329,0.4047245611810171,0.3942110564933681,0.4104887928950989,0.41247012438300246,0.4374304060273597,0.4475281813920393,0.39635695895796985,0.3693101020009588,0.3701916751882677,0.3953593469581942,0.42728934307011723,0.4172646771767594,0.4111546381298168,0.41285405925795216,0.42961551240487816,0.4140198786612359,0.40505229277860133,0.3599775117571302,0.2906574852633792,0.2247069694633428,0.15639103357081652,0.08929787037637249,0.02500937815735682,0.0,0.04324047068684722,0.1029437293145663,0.18019043756588227,0.2575586534366705,0.3182169399713066,0.39300219231038813,0.47160922996079613,0.5502174097648829,0.6285511103281456,0.6933776017075486,0.7630524753511629,0.8416362531488009,0.9202359273875595,0.9869754541215254,0.9518703123844832,0.8922820641819555,0.8273548364411516,0.7627743645288043,0.703215377671706,0.6451847693026869,0.6026013057740118,0.562541821217649,0.5421322201905845,0.5287121544308073,0.5468759052011505,0.5492265955203428,0.5519413164245579,0.5748737453489827,0.5965241268438164,0.6196531389899116,0.6476261443208484,0.6921980022225416,0.7260099132348086,0.7697769666238332,0.799817519368383,0.824639839947622,0.8348759726176747,0.8162304517562005,0.7777523357362632,0.7287422937630894,0.6816138601219284,0.6294037807489747,0.5871660007585358,0.5396843292910201,0.48792940365234516,0.44638058942467307,0.4140849447648396,0.3946115671202364,0.38814606659666673,0.3881275235098838,0.38813317415141757,0.3922954879950291,0.4101027138705291,0.4118846661303497,0.42930606555055295,0.4284807214102164,0.4117674998369525,0.4111415069857718,0.4111414118063008,0.41154871327903075,0.4266296096159343,0.43413598333658365,0.43415445935069874,0.431678257272444,0.4196474949521263,0.4337432512989916,0.4248886950727595,0.4113872279624786,0.41114116819218927,0.4098368200542488,0.39143495718410337,0.3881320727686113,0.38880311144027546,0.4058235941214341,0.4112060012137748,0.42115526189264596,0.4362004525001768,0.4670854399166955,0.4979061605256394,0.4678288131060033,0.43432811499060575,0.4153663152208096,0.44244767550326625,0.4754148342255049,0.4802655261614124,0.48814260371100504,0.48420382197164846,0.4941016002457497,0.48060801097738093,0.4798908216232656,0.4598310762064033,0.39951065658637797,0.33971442952473874,0.26422495152794223,0.19925803616617532,0.12991540590646,0.06414757990403785,0.023504294569189454,0.03708162678007243,0.09192987694962129,0.15224449612518454,0.229738002666259,0.3083460872908734,0.3869542670949584,0.4653504781033426,0.5307883614414397,0.5997927530679945,0.6783731104788755,0.7569812902829627,0.8355894700870481,0.9141974595321871,0.9911934727304725,1.0,0.9432901794419468,0.8720529695274379,0.813071641311029,0.7550067891737378,0.7007149181138872,0.6613342170400509,0.6379799182060002,0.6178892764808364,0.5980354669493386,0.5952553318429961,0.5953938962078085,0.6037340216890312,0.5993523031779033,0.6184211345944672,0.6387253043696006,0.6685896713201003,0.6960144993500186,0.7343443932193474,0.7688421509863166,0.8000834679356883,0.8168317384005004,0.79895322359702,0.7585847534354633,0.7062939642935429,0.6622174274234451,0.6222005311575125,0.5733402789255875,0.5327686249238939,0.49017468832177036,0.4514251701239922,0.41868743292742083,0.41116892628077606,MI
0.2453904121151802,0.24054757679871974,0.2840230667326944,0.36638164703307785,0.4588474437222403,0.5071677700534969,0.5864584032263784,0.6673664631219247,0.7615913422720113,0.852965572665735,0.9324297572324745,0.9405930718593836,0.8613657397884569,0.79371963645317,0.7220895204292819,0.6437713762709554,0.5897923904891118,0.5194886562408594,0.45207830152267237,0.3805406208863613,0.29190908430783136,0.2225489922951076,0.14834206613602996,0.09655222717923762,0.07627078141213817,0.09489931300844345,0.1834118882737994,0.2606692450807153,0.33220217830748977,0.4039979775756959,0.43881191818324305,0.4705793899107005,0.4925612632186822,0.45468330994885475,0.4046660859306903,0.35420438075386196,0.2952995555813476,0.20009763677795034,0.1088110625094858,0.07813549397394315,0.07551481583412478,0.07944377548241954,0.10089341631167636,0.16965774732070704,0.16443180716105354,0.1638124347283738,0.19645124560740834,0.25534538451561284,0.32041297364333987,0.3808416495022384,0.45419920654533863,0.5244530383136925,0.6030330700489395,0.6768844232677682,0.7433749680724433,0.8026154926844806,0.8678999762179482,0.9124993164992401,0.9469207942220508,0.9701629143265156,0.957480787042678,0.9614315042292056,0.9569639670513097,0.9692163528202085,0.9517400084793022,0.945648109893702,0.9521081296531784,0.987328382244375,0.9690045421762234,0.9342741287453458,0.8960496862047642,0.8912426348925382,0.891234000955277,0.8912340009552815,0.8912355568150452,0.8947205656962942,0.9234413398311996,0.8772938009935429,0.794980478478434,0.6999375948925946,0.6207671453595487,0.544867941743854,0.5155134760614319,0.5650193218998072,0.6501489857353993,0.7296896079085484,0.8232421900423401,0.9018717036540411,0.9575610315872791,0.9034695682237879,0.8363693886907959,0.7768662612102157,0.7151954238226286,0.6539953125967348,0.6115139093311464,0.5776956646902325,0.5398460310863249,0.4929919708526387,0.43811734477263586,0.38262887871407747,0.3253261856684877,0.2747326434526043,0.22436572845070657,0.18768094791631817,0.19722712208394055,0.23379994930827097,0.2893987190393883,0.34927863796987557,0.41572242238407897,0.49075353537929134,0.5582300048137054,0.6256413910858387,0.7021296829907242,0.7721165720393812,0.8271017457533003,0.8745624739662614,0.907619872195021,0.932586216718716,0.9363643474001884,0.9283458819036503,0.9258171006051366,0.9172318581090431,0.8965045199606876,0.9053000437103509,0.8973401116133517,0.9290590319369616,0.9582486808104105,0.9025803270009818,0.8637181992997305,0.8218503237415384,0.8097105756695275,0.7987001339392577,0.7827097057995247,0.7863685271912471,0.8079102821959734,0.8209249967756675,0.7886493409804207,0.6962650722096888,0.6154151461906028,0.5240274616510701,0.44869022869591246,0.3935050516910379,0.382789207007479,0.4536777384319648,0.5330567172413709,0.6317240369581101,0.7144361443856542,0.8050982051870927,0.8294713165597245,0.760093514792167,0.6971868749513708,0.6314781763930477,0.5712945115190773,0.520682424625059,0.4702453344594004,0.4210608010377084,0.38192285353316047,0.3325958050206883,0.2900599277229947,0.2383978581565258,0.18635905355673854,0.12417374418168503,0.06679860761161915,0.022641432231245595,0.0,0.027159378066644813,0.06824371606157742,0.13701388169545625,0.19098838196576562,0.25871311933814,0.33422734306984436,0.40930263230862396,0.4720547618392845,0.5421159874573012,0.6114424065893984,0.6761813782304595,0.7406773230600652,0.7941373873822042,0.8321906014871829,0.8511652771493741,0.8639618744599864,0.8651965087128697,0.8857781082773157,0.8870078317081114,0.8758086583675806,0.8708003919134941,0.8781528478557665,0.8964359403588014,0.9147320739995792,0.8819896028090697,0.8642453658966089,0.8640425011944619,0.8639820358623163,0.8530346681920986,0.8421739491319742,0.8669637500729306,0.898246017719122,0.8600206591285491,0.7641398389491543,0.6825932574792462,0.5936608179343206,0.523389894365621,0.48676610259460995,0.5159084835304797,0.5999929559418633,0.6791504189525548,0.7754636063315936,0.8568525491580368,0.9486232038175824,0.9681983767018401,0.8905020173296543,0.8208123346394802,0.7665680479405368,0.7052803523126587,0.6569157545330699,0.6278760026616701,0.5789041086222597,0.5297342473709699,0.49058926329738606,0.4411871762372148,0.3904129111084882,0.3287844285931514,0.26180171573922406,0.20816034491706015,0.17416495706612745,0.1588874965036644,0.1908777506182293,0.24405248364098897,0.31818228118904335,0.39388108440375147,0.4617450701516872,0.5289685851134442,0.5997859109610739,0.6658600976739373,0.7241522700800993,0.797803221600557,0.8590298461924735,0.9201333920341184,0.9607865376069484,0.9886082963629845,0.9826752058231585,0.9995757288959903,0.9999999999999996,0.9999940814956232,0.9940805873463305,0.9726161098006965,0.9507893914485366,0.9629666213590791,0.9921092394048965,0.9737156896942811,0.9470669418803346,0.9262787554283931,0.9184226619702849,0.9106382291127946,0.9075239347239372,MI
0.9278720230557465,0.9288587817107468,0.9558485034311746,0.959771736353435,0.9304219205129662,0.9516561749086119,0.9639281543900982,0.9639360115275872,0.9639371816269078,0.9664641663971043,0.9966800528363375,0.9982274502705124,0.9688198592771977,0.9610899465755667,0.9312669630583139,0.9484800681762744,0.9638697628725694,0.9460009312450639,0.9258036542461605,0.8960530503661337,0.8918096600161114,0.8918080345840362,0.8918080345840425,0.8918080345840469,0.8918080345840531,0.8918080345840584,0.8918080345840638,0.89180803458407,0.8918080345840762,0.8918080345840806,0.8918080345840869,0.8918080345840922,0.8918080345840975,0.8919604926084288,0.9128537934697132,0.9188853783580386,0.8926725307836421,0.8918051755179217,0.8855506550036463,0.8537292442360194,0.8146667203335465,0.7847000083352222,0.7836452338731403,0.7937318960057347,0.8371449909930737,0.8578616287851579,0.8877812747390834,0.8948951674252159,0.9249192549450802,0.9278695451986074,0.9218419405271607,0.8762547856348339,0.798978847961159,0.7340713466580002,0.6666668429279206,0.5847990698638377,0.5038071543295217,0.4343400621947078,0.3453608118997238,0.2824167157086679,0.19204636835855027,0.12421133777909787,0.06781044002115344,0.08166842852471223,0.13813809734294225,0.2001832553675742,0.2893977402654526,0.38078929750447177,0.44502795284955177,0.5323778227183293,0.6050743411416555,0.6411282744761975,0.68037143839208,0.7261199609658835,0.7469358348957451,0.7216770659812255,0.7381112456180565,0.719156028915747,0.7031655761128235,0.6587037139233436,0.6373967524023794,0.6017319688299896,0.5685325810444288,0.5443312076675433,0.5148169883902485,0.47049280534825844,0.4537690786404909,0.41265211208684516,0.36606368374781173,0.3361592298923517,0.2911879395076902,0.2784144262899044,0.2533617827187147,0.25289013106552627,0.27837897072195883,0.2907013432096841,0.3353613816390393,0.365212331902228,0.41930423961546115,0.4635407107852876,0.5043252090992398,0.5510905524500354,0.5981965667433462,0.6456014016605449,0.720202333821657,0.7719161210813885,0.8021372495279753,0.8581004203858456,0.8926917086705499,0.9209328824749372,0.9294399345547486,0.9580697296435892,0.9580173602063544,0.9294264288258383,0.9278721448312135,0.9278720230561772,0.9278720230561825,0.9278720230561888,0.9254175693732511,0.8956560941126179,0.8986498247751298,0.927277071888799,0.9278655636844251,0.9176879350750262,0.8925086521632473,0.8976501302852267,0.9267289231310576,0.9278720230562358,0.9278720230562403,0.9278720230562465,0.9278720230562527,0.927872023056258,0.9278720230562634,0.9278720230562687,0.9278720230562758,0.9278720230562811,0.9278642082753379,0.9157058468922239,0.9036190945430951,0.9275429127215213,0.9278720230563042,0.9278720230563096,0.9278720230563149,0.9278741461777029,0.9339936077429067,0.962976501129055,0.9598030250352529,0.9299453458505011,0.9094295228196776,0.8919268671579825,0.891810327132073,0.8986393364098682,0.9400010346824832,0.9636815231815055,0.964477385523967,0.9886723229907286,0.9999927782105553,1.0,0.9957942824118433,0.9334065879384426,0.8695512195212007,0.7845778219006254,0.7211337489139922,0.6326029832731699,0.5623814566072838,0.48223160522695885,0.39075602715186264,0.32696738591921815,0.23919256781956388,0.15259923383452012,0.0880482526325066,0.020847634845898355,0.0,0.04220001283851271,0.09971210524815266,0.19062199378329492,0.27178997707893426,0.34103261120978345,0.43379511096972667,0.5251779457653463,0.589354293541132,0.6637870649620048,0.6820984188227888,0.7108837921313889,0.7069879266805188,0.6774500932802603,0.6754167707784369,0.6628893049926745,0.6397257984780209,0.623921679693713,0.5782554598601042,0.5323092088057946,0.4968476264530546,0.47426534777399976,0.4314728250531896,0.39944438869517374,0.3579168987450707,0.34140581214443255,0.2968353113483442,0.2763028147613076,0.24638220690067492,0.24265772986548484,0.24288330633524247,0.2666248491380978,0.30933968923840727,0.3417153249981171,0.3879794681452031,0.4339326868497402,0.4809023908538368,0.5281749885641434,0.5895598710911827,0.6394394960839707,0.7017899631784044,0.7441032949416062,0.7786053526730194,0.8259029713436759,0.8855437635019934,0.9162873560859586,0.9287291280404952,0.9549590452990282,0.9639303569307751,0.9639360115283759,0.9639360115283813,0.9639360115283875,0.9639360115283928,0.9639988016837027,0.9760762167349499,0.9836875539076972,0.9676846902708061,0.9973806232246156,0.9881640612007105,0.9644075212639436,0.9639360115284292,0.9639360115284346,0.963929509800117,0.9537200463020339,0.9387078317404844,0.9506821487626711,0.9283531488282843,0.9486057729209438,0.9639261212772388,0.9639288320955677,0.9526725290638751,0.9304219205138722,0.9593571647579511,0.9633385801760754,0.9347650461536912,0.9427283496344279,0.9446864359550524,0.9335073084118592,0.9625854934409608,0.97109063655616,0.9913356667768491,0.9601078797365856,0.9298292305260993,MI
0.24043943097236564,0.23000297285858462,0.2380631359634524,0.28953827320941805,0.3573094936137515,0.43996074330881996,0.49885979519109735,0.5415421816701382,0.5877164199338303,0.6264497952944934,0.706543657566467,0.7705109619244332,0.8429153170877814,0.9023878486178516,0.8627848123922464,0.8194781599142944,0.7778133039097037,0.7403156477765016,0.7334556280139246,0.7334480092914841,0.7334480092914895,0.7334476316198559,0.7295632945737731,0.7054044939111286,0.6842869641909637,0.6842868427965101,0.7037117399610482,0.7220857150165081,0.7580697907547433,0.7785765470309416,0.8306994657899285,0.8601958877481257,0.899315619644451,0.9366663408572684,0.9675772327318857,0.998495136284614,1.0,0.987240347942592,0.9702928567320424,0.9508263228814684,0.9345861098183166,0.9114634135349089,0.8882737681366546,0.8788492082832873,0.8542727832385113,0.8456897926741052,0.822603009805305,0.7994133644070498,0.7899888045536834,0.7652857877586019,0.7457598413825846,0.7520822609128004,0.7415789655312484,0.7581031258557998,0.7749996328445956,0.7752475530312175,0.7823731470178474,0.792667368135052,0.7926881165854258,0.7911600119382589,0.7688255845277716,0.7899841504022485,0.7888032939615321,0.7649558576633035,0.7630682652626373,0.7630681438681863,0.7630681438681908,0.762577173595516,0.7418314841960196,0.7319236820582367,0.700996507120971,0.6751841438341444,0.6809330958664326,0.7031603710113403,0.7072364660473065,0.7319185387825513,0.733447847432414,0.7334477395262367,0.7307409166782683,0.7061720564028455,0.6967007056609571,0.6303553014255519,0.5697360077495626,0.4935300624974337,0.4186093328977538,0.3568051999040751,0.28950879645207195,0.2208773983603729,0.13840736322444158,0.08491674907829161,0.1060117859662979,0.16801469533801505,0.25063981569409677,0.3335728502658055,0.41310277398787054,0.4689722258095683,0.5106793947094168,0.576603848558686,0.6593078109038508,0.7287413991643108,0.7695600892264967,0.8377956650174179,0.8123177539020752,0.7520336556872982,0.6982722301654745,0.6563051030445521,0.615061814524922,0.5867793951543696,0.5853474712917581,0.5858516436072314,0.606946194917418,0.609892372165409,0.5867739146718627,0.5853474308269595,0.5853473498973276,0.5855949059005843,0.6064579719890917,0.647549551578436,0.6879870797782344,0.7072363900203413,0.7422080935149573,0.7838675229901177,0.8252704264790571,0.8666699877253903,0.9048916508920826,0.911164203064379,0.9104979708046406,0.8877830001883042,0.8603070410858944,0.8439175140699939,0.8228127202196278,0.8223080758146173,0.8184236983037154,0.7942648976410718,0.7731102505036107,0.7631052612856655,0.7623972979219733,0.7401732975783162,0.7334554661550134,0.7319185387827156,0.7072462230098422,0.7122148537215516,0.732957039019178,0.7334480092918607,0.7334480092918652,0.7334480092918705,0.7334480092918758,0.7334480092918803,0.7334480092918838,0.7334480092918891,0.7334108023592645,0.7184699611574619,0.7208011497458031,0.7307118580573384,0.7061766700897119,0.7029778715201163,0.6742123431261335,0.6460196643076381,0.6445877404450284,0.6450919127604999,0.666186949648508,0.6743898435678268,0.6911812849347561,0.7179349829751009,0.7143369062686675,0.7246136145987769,0.7088820525265822,0.7033212048501598,0.6691554343186166,0.5883092284724523,0.5053729730525944,0.42310744218468077,0.3624159760236729,0.2965811899778297,0.23262028685135316,0.14993183022365564,0.07208637676295382,0.02555866418733288,0.0,0.03772859265917461,0.11438205336655471,0.1889399366929423,0.25113078596703,0.3335761925086649,0.4165125693229772,0.49944894613729396,0.5823853229516072,0.6651794170087415,0.7338073109985626,0.796126154163141,0.7888698170879724,0.7343923386312508,0.6919801580916403,0.6531662021710254,0.6445973625247241,0.6445503986297361,0.6294223107232515,0.62183504202949,0.6439167596159754,0.6445876055623794,0.6445503986297556,0.6296095574279521,0.6320832985389311,0.6590955085082912,0.6867380203957394,0.7253058782332644,0.7437142165750776,0.795043362223705,0.8267971715427809,0.8665508013041636,0.9118666796536194,0.946465333618753,0.9699178458662319,0.9700979913054137,0.9508263228819676,0.934548902886184,0.8969613459202437,0.8816910323733103,0.8812375875758107,0.8619704788859286,0.851114943395407,0.8273749751593833,0.8184291787865003,0.7945632302421384,0.7846676093492828,0.7635724510668265,0.7623973383870526,0.7401732975785773,0.7334589702571543,0.7368566006242725,0.7615381877816976,0.7580132639098016,0.74159987584141,0.7623973923401692,0.7629369249434292,0.7455209462457288,0.7412505001966014,0.7398246100631161,0.7475917544306014,0.7434527876003001,0.7334851267094393,0.7334480092921485,0.7334480092921529,0.7334480497569755,0.7339477028036985,0.7487701875194137,0.7185569305165584,0.6812176613812957,0.6886659221191191,0.707199205162083,0.7310679385573806,0.7107823664608182,0.7297110578141659,0.7475837985013882,0.7439570408454568,MI
0.8466338398322613,0.8847572603393647,0.9037766700929444,0.9304650888872086,0.9365696093763063,0.9641464336926218,0.9917429771560595,0.9748817545601343,0.967088596619897,0.9387513386629127,0.8982720482704343,0.8566085751346542,0.8149362773465905,0.7743935350509252,0.7337095983187085,0.6919931772692225,0.6505156306842661,0.6138246775439162,0.5858343192023847,0.5760622190548528,0.5760233051974808,0.5760233051974843,0.5760236434490738,0.577557035557061,0.6039658869321078,0.6086443738870839,0.6086455239424753,0.6087428829635098,0.6227592272884284,0.6116250138329011,0.6086463752089761,0.608645523942493,0.6086455239424984,0.6086455239425028,0.6086455239425081,0.6086455239425126,0.6086455239425161,0.6086455239425206,0.608645523942525,0.6086585613152371,0.6163650779486813,0.6408913875592823,0.6409729886274604,0.6180949289739646,0.6086799763370525,0.6086455239425534,0.6086455239425588,0.6086455239425632,0.6086455239425677,0.608645523942573,0.6086455239425774,0.6086434493328632,0.6030210194137009,0.5781279325550868,0.6012026434145774,0.608642344377702,0.6086455239426005,0.6053255743369554,0.5779906780636077,0.5760239760632864,0.5760233051976487,0.5760233051976531,0.5760233051976567,0.576023305197662,0.5760233051976655,0.5757302511598734,0.5513641332816226,0.5155020219414403,0.5009190838932955,0.46109696318856663,0.45009532331959345,0.4780969968986719,0.5112162774397708,0.5516586067385001,0.5757387512711682,0.5756367499359563,0.5481122069966453,0.5076391626521897,0.46305328347159236,0.3883843117686858,0.3316183900615899,0.25607742498510166,0.18813486892099807,0.12409203860793738,0.05714854802686986,0.023272194715795003,0.03043511845087199,0.09769698823100281,0.17995119055292186,0.2617570548680188,0.3226716360447668,0.39411092676434034,0.47636562518858305,0.5586247885337379,0.6407928389058872,0.7072774268422206,0.7727569146979221,0.8182990794334692,0.7696705399437294,0.7376154959905312,0.7092585308741581,0.7074513769912798,0.7322253086350656,0.7391314223086463,0.7391344045601196,0.7402344867757646,0.7657172932525036,0.7717549545972835,0.7745749271021269,0.8016589505410598,0.8075935700403933,0.8346097348727088,0.850871312133874,0.8778909086156892,0.9024282357020299,0.9246365931276106,0.9348634719725917,0.9345219566647955,0.9104753887753967,0.883069307831966,0.8425560601651503,0.802013317869485,0.760588110345382,0.718871689295896,0.6781348046499724,0.6375920623543081,0.5961858654718268,0.575699254118744,0.5495553603903591,0.5215694203061298,0.5180088030757837,0.5429992309908389,0.5434010864528718,0.5434010864528753,0.5434010864528798,0.5434010864528842,0.5434010864528895,0.5434010864528949,0.5434010864528975,0.5440013829427617,0.5663854062147049,0.5738055280365808,0.5470122442740433,0.5434025240221514,0.5451406132562067,0.5719889435660424,0.5756226311056949,0.5506167207046158,0.5453091017866809,0.5724959456491678,0.5760232826478076,0.5760233051979178,0.5760233051979231,0.5760233051979275,0.576023305197932,0.5760233051979364,0.57602330519794,0.5760233051979453,0.5760233051979506,0.5760233051979542,0.5760233051979586,0.5760233051979649,0.5760233051979684,0.5760233051979728,0.5760233051979773,0.5760233051979817,0.5760233051979871,0.5760233051979906,0.5733255854216184,0.5462567367192035,0.5493195353867133,0.5752789999808163,0.5625888028121908,0.5435309910715516,0.5434010864530476,0.5434065393388732,0.550507984887755,0.5747174317531272,0.5451012173825465,0.5124832559694674,0.4944501595713362,0.45521938214461244,0.42895386422496173,0.4278318369829943,0.4677089338800702,0.49371415889787684,0.5351033218974646,0.5714301001076931,0.5707848247291922,0.5331889108419965,0.49146850406134135,0.4410469365101859,0.38712216571819,0.30794205383573736,0.24610682222058866,0.1757953084621251,0.09403241446614086,0.040905179983404594,0.0,0.009635195122645435,0.0607176737963373,0.10013915528131534,0.15932805445829512,0.21449320443129416,0.29419292129546903,0.37645208464062474,0.45868661080960216,0.5323138546861017,0.5909395104807595,0.6728665192762859,0.7551252654444873,0.8352909378111759,0.8333080419518,0.7800726945375089,0.7404906084297807,0.7391345454986231,0.7391343989229409,0.7392429116011616,0.75731364250327,0.7718574875893509,0.790647392898391,0.815967753540555,0.8367998023217682,0.8372485577442195,0.8571379223676887,0.869946528768212,0.8904135956017747,0.9056718348821695,0.9339254533039103,0.9623493821427651,0.9675718575663952,0.9823471457407829,1.0,0.9873441960751856,0.9387424172539047,0.9080214971313358,0.8675555194030391,0.8261722928803232,0.7791525868409668,0.7276227002097837,0.6858392057856699,0.6451552690534559,0.6046181642841946,0.577072659906273,0.576023305198186,0.5760233051981904,0.5760233051981958,0.5760233051982002,0.5760234630489451,0.577321839622102,0.6032284293573893,0.6086436522844192,0.6086455239431903,0.6086455239431947,0.6086455239431983,MI
