0,1,2,3,4,5,6,7,8,9,10,11,12,13,14,15,16,17,18,19,20,21,22,23,24,25,26,27,28,29,30,31,32,33,34,35,36,37,38,39,40,41,42,43,44,45,46,47,48,49,50,51,52,53,54,55,56,57,58,59,60,61,62,63,64,65,66,67,68,69,70,71,72,73,74,75,76,77,78,79,80,81,82,83,84,85,86,87,88,89,90,91,92,93,94,95,96,97,98,99,100,101,102,103,104,105,106,107,108,109,110,111,112,113,114,115,116,117,118,119,120,121,122,123,124,125,126,127,128,129,130,131,132,133,134,135,136,137,138,139,140,141,142,143,144,145,146,147,148,149,150,151,152,153,154,155,156,157,158,159,160,161,162,163,164,165,166,167,168,169,170,171,172,173,174,175,176,177,178,179,180,181,182,183,184,185,186,187,188,189,190,191,192,193,194,195,196,197,198,199,200,201,202,203,204,205,206,207,208,209,210,211,212,213,214,215,216,217,218,219,220,221,222,223,224,225,226,227,228,229,230,231,232,233,234,235,236,237,238,239,240,241,242,243,244,245,246,247,248,249,250,251,252,253,254,Target
0.7360978547613425,0.7655068989499351,0.7837955116735414,0.7844839884615326,0.7433982515483525,0.686882141582741,0.6484450161262095,0.626371877266808,0.6317314965076107,0.6292300555669302,0.5729326628948025,0.505734120312845,0.4425831355704526,0.37762971352111585,0.3099874043890647,0.24366796740039343,0.18144327562788432,0.11444099428013144,0.0474901303018197,0.0,0.026017011588184313,0.0864034713276729,0.15320945287837828,0.22089268069788492,0.2881162791590681,0.3505760334089997,0.4164455099108231,0.48411899997580576,0.5518048055949444,0.6194906112140827,0.6871764107720552,0.7547031391875149,0.818177542813041,0.8809955990862731,0.9048951805476838,0.8799095802303399,0.8668228508188752,0.8658793501083138,0.8661858392940968,0.8461132171877156,0.8145763672574801,0.780291728520952,0.7425608702171774,0.7219137182411891,0.7345223018627237,0.7416254207476926,0.7463008657590938,0.7527428027077138,0.7617084769386261,0.7644390021044275,0.7547860850554459,0.7400764152833702,0.7179810076965415,0.7059693232230796,0.7243050843132769,0.7494861605959434,0.7448385470746218,0.7317441918154696,0.7206010851171972,0.7409038487780263,0.775756752893448,0.8008247240040366,0.8252561162779702,0.8019974609679484,0.7411614863388379,0.6768342555442118,0.6125761114474843,0.5488477436054844,0.481289291085783,0.4140212587583235,0.35146795211082316,0.28573354364637293,0.21831462463078033,0.15873664204983517,0.10325850964844618,0.05238564440245319,0.07463295133157188,0.13928190346917257,0.20167808808955479,0.2676590034035413,0.3353340431117958,0.40300854152217924,0.4689728997847523,0.5313831495144633,0.5985604893856241,0.6662457016809727,0.7339315073001108,0.8016173129192493,0.8691899751044284,0.9276882439742432,0.9272095430182504,0.8962466019770458,0.8741807012999795,0.8591580871404424,0.8509105805622953,0.8409715084420054,0.8103181105634215,0.77528777427255,0.7401655435218756,0.7300804369836794,0.7509424998547186,0.7685714346922224,0.7786192429152831,0.7857965488382376,0.7842979035692196,0.7825049176937903,0.7811257260665941,0.7801514316151333,0.782453372866195,0.7813126591143943,0.764178358610705,0.7534819883977365,0.7691508779433854,0.7913183123888862,0.7955464288121202,0.7723269454895622,0.7134273730030317,0.6514201692313367,0.5852083255956356,0.5216983701881027,0.4571451136344933,0.3895180634637092,0.3219898070785474,0.2584839836041032,0.1939198626650056,0.12630151449694071,0.06058875737993774,0.02272967263331377,0.06058875737994085,0.12629920519131987,0.19309001122442326,0.2552628100405483,0.3218361283778174,0.38951806346371287,0.45709103816778296,0.5209600453680766,0.5851417314847037,0.6527429548052558,0.7195324387064493,0.7746029266604723,0.8334647385853616,0.8894157260692229,0.8836757226654331,0.8615070916850615,0.8519883152186073,0.8476489049209043,0.8420134739075277,0.8596125813227095,0.8686250081662387,0.8757133929378037,0.8890792338666594,0.9230520858706245,0.9615622867779431,0.942201464493864,0.8840778097527501,0.8211576270221596,0.7637121311737175,0.7039249040254675,0.637904887849904,0.5860488396454938,0.6095781897996483,0.6743200022081645,0.736386016619574,0.7939839796854068,0.8184937706173417,0.8185614709957391,0.8053077474265707,0.7820743572211016,0.7842197194521573,0.8026613220064903,0.8064537756023625,0.8031873126775967,0.8039501676964212,0.800682536793284,0.8010573128120467,0.8071553783243962,0.8089173142047542,0.8006778025568636,0.791631528823478,0.7751120434696955,0.7558134357846545,0.7757898851793913,0.8126148352018198,0.8460822683162189,0.8674779562780329,0.8753242047479731,0.8855812639244044,0.902348180945323,0.9310453296932505,0.9734607890351904,1.0,0.9598046505628085,0.8982087956814052,0.8329073537218398,0.7703417680054344,0.7030660417439217,0.6357766563262027,0.5731844955584114,0.5091052678012096,0.4904575062532568,0.5493817127085596,0.6157951344127949,0.6779768221411601,0.7431213671508753,0.8037763221311832,0.8458555964946081,0.8436111028936749,0.8161279220082335,0.7927313356298679,0.7563708529734848,0.7486698222340286,0.7623772493352904,0.7722122673828139,0.7658451687493383,0.7374974193384177,0.7406562754457792,0.7628736662484753,0.7777017095886788,0.7830295950977383,0.7915597871341625,0.7863100425870192,0.774630640624487,0.7715157044742148,0.7679032951220678,0.760034707142445,0.760062521143937,0.7935832010621268,0.8277290205779487,0.8597271655454336,0.8834528986313682,0.8878905304308845,0.886686796531215,0.8959343812018182,0.9252766169267351,0.9618758250433083,0.9376152801338099,0.876779488714495,0.8142166819122706,0.7469056150190602,0.6802611497238756,0.6181169204562115,0.5513601880035123,0.48367937910762093,0.41898901204925254,0.4129452959996931,0.4730182472320218,0.5359440529029631,0.6033077246650301,0.6678296288037654,0.7307721412323654,0.7888101204215573,0.8141696802330712,0.8094950719162778,0.7928493329124068,0.7677416722630707,MI
0.8621209631423681,0.853590069764024,0.8513568621848275,0.8509490226627032,0.8432564904787723,0.8397838451807547,0.8395808117167181,0.8319267263636887,0.8110983407661041,0.7872558008803248,0.7894515064439795,0.8147799961713587,0.8346031811821242,0.843862071679762,0.8506841148560929,0.8433583614684887,0.8397858802004341,0.8396694363563006,0.8278685159119072,0.7694880927157126,0.7043580984357982,0.631431510984793,0.5577478811042751,0.48406365894042636,0.4103823763062897,0.3381861344300263,0.27328115495531047,0.20091562899086024,0.1272522363234576,0.056688001695438084,0.0,0.004264259210128518,0.06665886709001256,0.1342272077430786,0.20246939086741866,0.27604017721902085,0.3467456794102932,0.41236151489182316,0.4854614979754386,0.554584550975262,0.621227622493775,0.6871006038834562,0.7439626020401613,0.7679635629005765,0.7590950858857113,0.7438150128485221,0.7314805081308344,0.7113655163536705,0.686358066408338,0.6486020706970097,0.61472740971333,0.5836752319595007,0.5782903094303473,0.5994148590866877,0.6241680211435803,0.654734186702751,0.6951816788552354,0.740643057524301,0.7804024783440819,0.8012093974062793,0.8071394769687583,0.8087800581598499,0.805607613218664,0.813852230664202,0.8231902290904385,0.8376108908963034,0.8496951706585321,0.8522161426366952,0.8560639270311989,0.861831594344747,0.8685234312892742,0.8704791723248606,0.8678880043703108,0.847267337124044,0.8318514661324987,0.8548509916268539,0.8856226021169935,0.9055930666665584,0.9231136091693362,0.9232663932793863,0.9309084110403218,0.9370822025552674,0.9435736984867962,0.9244206727583868,0.8650555255137349,0.8010438559519526,0.7436615747719069,0.6717794732842386,0.6057634389197795,0.5355833892023856,0.46192657307146234,0.3884807944271913,0.3217044985883375,0.2524159929344232,0.17881607341186156,0.10928034212609683,0.062051153567030504,0.08777874172825229,0.1542613190257187,0.22782802640654998,0.30151224857039916,0.3751964707342488,0.44888068700722883,0.5223767954087108,0.5896221969182032,0.6583920064349913,0.7290572957748369,0.7940262164872214,0.8533272432039203,0.8950171010489825,0.9007662871273099,0.8887465795128329,0.8728196913482678,0.8496078670550453,0.8235146609125681,0.7954940641876533,0.7627025915277224,0.7268456266873276,0.6966349894597286,0.6909868303758315,0.7125253887351974,0.7412106724564713,0.7782799932304825,0.8213181112730337,0.85877515913051,0.865725201037087,0.8595370952829118,0.8408435508773082,0.8291841264489188,0.8240004641676253,0.8168480179605853,0.8165293759865984,0.8122983787145506,0.8052445319777475,0.8049931232164815,0.8086000967474829,0.8298821443791018,0.8415177809044085,0.844379471838582,0.8443935966906733,0.8444492309194842,0.8490046405282714,0.8576558609860916,0.8628359063128876,0.8697387853394924,0.8867343107953918,0.896643662313444,0.9096728122416524,0.8911360956858254,0.8543924339944395,0.8060777165752984,0.7705691049081713,0.7420771792183072,0.7218447328681228,0.7456959371490433,0.782333370419134,0.81822312557871,0.8449520243874917,0.8731378978672282,0.8956686329922046,0.9128527488150109,0.9263238259217648,0.9359308588347792,0.9250843615280115,0.8846842251260505,0.8241062837681326,0.758702445812397,0.6882469148955344,0.6191979925613473,0.5522291908262018,0.4791866897684456,0.4392185049116486,0.49510322875088475,0.5687027839677474,0.6423219080638367,0.7092996397298401,0.7595801064127583,0.828663321572316,0.8989765283845723,0.9628595415994168,1.0,0.9796481538506252,0.9717329840729891,0.9649435233328654,0.9603569292373382,0.958676167127515,0.9515601673161909,0.9333962616924505,0.9100222374213469,0.8788787253876165,0.8836732129654683,0.899708176223313,0.9029022721793438,0.9087407205914133,0.8950019349506229,0.8907795123314428,0.8905376313354325,0.8831773833166998,0.8701017296692886,0.8593138199028882,0.8504866897415817,0.8457960360499528,0.8443959423269332,0.8436752037542723,0.8347368548865635,0.8165300373180453,0.7756331550251099,0.7327372079866428,0.6915182527148569,0.6578040333648298,0.6341239100047182,0.6120265732184607,0.6282419643313746,0.6630075299344851,0.6963840172642353,0.7297152302975496,0.7518568270394916,0.7727372524183103,0.7879815234450758,0.8033048140509602,0.8082390710018328,0.7808207143750099,0.7314539585329143,0.6754152943554461,0.6156673307251872,0.5627436435974058,0.5031847525607624,0.44198995563205234,0.40236422698256136,0.4528071722220435,0.5262308640847422,0.5951724913489922,0.6622738510770194,0.7355778874184915,0.8028125665248791,0.8675707444777123,0.8889258812617924,0.8702450069981897,0.8763635116558557,0.8791545117937838,0.8791671799296177,0.8786394207564221,0.870285577763741,0.8581208129469369,0.8358165321318378,0.8276785140501577,0.8491605659209955,0.8659736682918093,0.8675734610458239,0.8679183547394114,0.8753503248931915,0.8791349113413867,0.8793161061997541,0.8854209388188881,0.8906694601861702,MI
0.921114149890049,0.9107232650261632,0.9099976172474471,0.9092694565344837,0.8952724262454335,0.8843281512053194,0.8977339903806696,0.9233760649247591,0.9230182910702074,0.8506760557321305,0.760900142862186,0.6655523956517229,0.5727316638656395,0.47837372083441343,0.3774806672911559,0.27809978738760277,0.1884691228262747,0.09113417056614681,0.03592499132803173,0.08537219455010114,0.15335157372202635,0.22251445445380247,0.3086750591296832,0.40885569300559266,0.5061652339877569,0.5965344501126757,0.6963929274198488,0.7880183197131694,0.8783709469363914,0.944639347750738,0.9517563650991478,0.9318650044764332,0.9090341023779502,0.8771849044336442,0.8368189976491682,0.7928855578309251,0.7389536875997633,0.6887352563927616,0.6594120219540778,0.6731900611010544,0.7225995785062058,0.7838472767915108,0.8482011596918491,0.8925569009355221,0.9096905937242123,0.9162436402664493,0.9182060075415208,0.9193937861431292,0.9250326897762902,0.9254305478593388,0.9316701164773082,0.9327752261187081,0.9388401015320946,0.9279996783961,0.9251135810243882,0.9239279731252159,0.9134404136510228,0.9208681489259223,0.9244529171993734,0.9102093460798377,0.886343947650805,0.9036642990881387,0.922198382676422,0.9432607266803488,0.8923888274537304,0.8022910810901673,0.7128069966472497,0.6135970895998057,0.5176991952716095,0.4262203775030131,0.3256573424039966,0.22812924844358884,0.1379527256436377,0.04970143097315538,0.04987684230995226,0.13286054384664436,0.2322252810179486,0.32221958288765085,0.42014314168599887,0.5200863885254421,0.610039701124717,0.707349513870986,0.7964301514490915,0.8711456875678647,0.9339898444314283,0.932317038965917,0.9179972265330907,0.8962790282362638,0.8718096415374887,0.8382126967259693,0.7970699258571421,0.7451342577567344,0.6939360387333888,0.6587325363220624,0.6664052795066868,0.7160373946785223,0.776543488216122,0.8418324781415358,0.8941685901787664,0.9228810529890166,0.9251012274928878,0.925104154881693,0.925104154881693,0.925104154881693,0.925104154881693,0.925104154881693,0.9250665849138819,0.9204060243745733,0.9104994544362839,0.9101609046600307,0.9176130792905193,0.9249639003000354,0.924985008323103,0.9162729684650457,0.897973158762956,0.9100780872525496,0.9312417939698072,0.9220795541572464,0.8576222365419608,0.7686328647896037,0.6712621984841194,0.581349711710418,0.4814822817550364,0.3851004771304656,0.2940282896136135,0.19364236557750125,0.09930982743048467,0.013704024576270069,0.0,0.08548584381156799,0.17511879958848153,0.2746735258353936,0.37178113333552654,0.46230510859681617,0.5621792348906429,0.6536567327884475,0.7484044772198768,0.837751088216375,0.9156890893333869,0.9343293622506832,0.968071818928554,0.9673731999142525,0.9056638596832784,0.8200252099764658,0.721736769931892,0.6294304950525986,0.5486005940578509,0.46395218649704795,0.4980737123144472,0.5972429713266014,0.6944377573839766,0.7846871805669853,0.8757092299418727,0.9461778323655508,0.9737242363138905,0.971085620815225,0.9570634058520056,0.9520683922043283,0.9609533388422284,0.9613597910335887,0.9609747704311133,0.9517063793868838,0.9466580591073654,0.9558670216921241,0.9612998990349344,0.9613610455771857,0.9626632962470678,0.9737392016053357,0.9692603783468812,0.9639409331600097,0.9746903939641145,0.9670754311314278,0.9612018865160348,0.9471713377077062,0.9010539470052161,0.8438262018388221,0.7818935944933578,0.7272234179830757,0.7183253414741042,0.7585959928851178,0.8136600957648876,0.8615311199167928,0.8961511799289243,0.9265256000328237,0.9476049274099387,0.9632843380836467,0.9854937401000505,1.0,0.9476761553969828,0.8603537785525921,0.7711696825213203,0.6739698601870052,0.6281682867206531,0.7060328213584781,0.7995875258949505,0.870383396427147,0.9438065321526268,0.9870613377990485,0.981518126206637,0.9505518925237637,0.939923027935198,0.955456383472367,0.9613039169084407,0.9613598003732942,0.9613747550282428,0.9646438148349952,0.9683947639007062,0.9695052150188079,0.9763331577576837,0.9764655800136919,0.9754863600130506,0.9645154383208614,0.9613726050867362,0.961359526414229,0.9605120927704185,0.949807425859349,0.9449384101129796,0.9197331205938117,0.8699392697130666,0.8079264855781565,0.7478352762428031,0.7078792298774546,0.7306792667777908,0.7747205459673925,0.826576547759931,0.8752815540741028,0.9122313083060805,0.9447523377738176,0.9682294535455673,0.9881878336602994,0.9913674802026424,0.9786181866596357,0.9273287619802608,0.8437170564495506,0.7542798109817923,0.6564569444657229,0.566836538896633,0.46764789251527894,0.3901328065154388,0.44330079769536157,0.5436497409594305,0.6446558494260692,0.7449419180371084,0.8351454480578249,0.9212193068629393,0.9714656519017675,0.9712351753007016,0.9447504392922594,0.9273202998793866,0.9400097770076563,0.9583384853862094,0.9509671348270063,0.9502664501290932,0.9547966354276394,0.960726750477138,MI
0.3409444831466695,0.33081930905190027,0.3678994706591132,0.42272020196347193,0.4256636988695399,0.3529028563778873,0.2800648135417234,0.21238654166069382,0.1552828589929358,0.12091371208224921,0.1188364329375764,0.17001236591864144,0.2309618894904817,0.315259123333149,0.4108246950535095,0.5114708845991369,0.6083957079820348,0.7073004145774286,0.7611046564176724,0.6924793231491952,0.6163256317698294,0.5748682138638286,0.5483036381194986,0.5186700501816144,0.47206681051485133,0.4209750316601879,0.36651075698490465,0.3129542489107149,0.28088101203433946,0.3069750122579651,0.3506418748658271,0.40149027371328594,0.42547690330772325,0.4289246224092105,0.42184906919616405,0.4239388568960021,0.44404736104973686,0.4391539898002341,0.41045276608419967,0.37471584299975436,0.3864857480675894,0.42606507906238744,0.428005530561683,0.3533420714577111,0.269572680381841,0.19915055762346623,0.23426742591989425,0.32717277134856837,0.4250120688947747,0.5174350296096877,0.6009899336345546,0.675519527929614,0.6399637070143289,0.5597324289710517,0.4926614954795008,0.4699881946794895,0.4514104649920301,0.40702366445364935,0.3485045241489979,0.2879251118692847,0.23314515329788055,0.17985294940542818,0.15237234005702405,0.18316528798806941,0.22489590020813344,0.25795257246061776,0.2581959333124204,0.2543272954807705,0.25235028105056156,0.24418546044917577,0.2276049544739951,0.1857450677382011,0.1610145468872506,0.17953618477754807,0.22434738423527256,0.20916590809960378,0.13027223082533856,0.047623941540743786,0.0,0.06438029985918958,0.1677579404951035,0.26406174156766293,0.3645320734080666,0.4631137669599512,0.5515342811390502,0.5421967024174228,0.46345260628459983,0.4020636761173575,0.3822194772611629,0.41161493661864346,0.4137634487673012,0.3735026256716514,0.3207668308996119,0.27746483492102825,0.26560653005294665,0.3022143522698808,0.35684647327465435,0.4108219652877627,0.443204860200366,0.4699734013380039,0.4941662769811057,0.5188289075774992,0.5310499385990688,0.532661572784608,0.507284010197705,0.461224840990903,0.43422550528098935,0.4640821629208214,0.4923510910181077,0.43804482625064733,0.3542173766289285,0.267453968420589,0.23984827030510347,0.314959067562125,0.41277322775637804,0.5082287143425159,0.6073587734771524,0.6711291490225786,0.620325005859194,0.5482114468617152,0.5006242297310821,0.48145556105740694,0.4643158870092916,0.42713220054416756,0.3824897148533115,0.3392147602901969,0.37929410535340824,0.43658745754578,0.4775926632101182,0.5150274610951555,0.5423955552000137,0.5776822076965031,0.6450399642483717,0.7311425905606723,0.8306275562986876,0.9252005583513572,0.942604794569337,0.8662280140489311,0.7673257595016685,0.6723163760803106,0.5704179311456083,0.47517888582376533,0.39129416250169524,0.4192496491306763,0.4923847283813998,0.5434813982909856,0.5402944248169133,0.4953932040407152,0.4905035769964823,0.5361505681268464,0.5735785855612672,0.5845148292039914,0.5683181243255844,0.5556381365231322,0.5280319832083491,0.5014327529141125,0.4771201126643121,0.42984779521408245,0.37260658986180917,0.32544990919513883,0.3235136932605409,0.36573050563934095,0.4161381475986057,0.46140832504690343,0.4718945561726653,0.44368689660154526,0.46081413697985707,0.537405015461778,0.6275263887172142,0.7230899827175261,0.8146268806050967,0.8584372813298662,0.7924569133747428,0.6888525809708994,0.5850756982689471,0.48969471146240307,0.3878969310615632,0.2894843807901879,0.19500196245716817,0.1735317550316462,0.2462363663817697,0.29089542143325553,0.2704953041792655,0.2219256221442858,0.21234369395059893,0.24653352807815687,0.2775821074596865,0.2837041345261653,0.2964913554564028,0.2940174352559157,0.2977449260274809,0.30059016180639,0.27667314545985433,0.236103595787583,0.2026267354240312,0.23448514578422897,0.289634275642477,0.34890183208456604,0.4059983732529664,0.46536975029246386,0.498735803763352,0.5179679822989167,0.5678370795500667,0.6489227929574193,0.7479528600370771,0.835937091975836,0.9088230663774566,0.9292532902666883,0.8543987468487388,0.7555669292702312,0.6605687504143429,0.5582784308773985,0.46218224258209095,0.37276214501396177,0.39188258215499894,0.4697231776111661,0.49255644700837187,0.46257334866860256,0.43250375028423815,0.45080443517044766,0.47981460853337965,0.48162240337418694,0.46873730063412977,0.4683434077337474,0.47039802407234466,0.4615698721728936,0.4301494469238991,0.3809077581451106,0.3381304048358815,0.34591965359497334,0.3954047432949339,0.45059221703478003,0.501613000395192,0.5491949166504642,0.5855146107683502,0.6070865177801628,0.6492239757365346,0.7243971566700498,0.8125327121400978,0.9065721180304329,0.9975311030361029,1.0000000000000002,0.9328177449893975,0.8425468495469188,0.7421787418006802,0.6420790429366086,0.5454274522109424,0.444943999166276,0.3853408138729051,0.4408907275384204,0.4954236067077076,0.48489289384589473,0.42544674213250855,0.38386687288351573,0.3887495198528985,MI
0.0134955721817831,0.08174072329585824,0.16501629588692124,0.24852129302097303,0.3280536285702871,0.3280439278497722,0.2855038797582572,0.3167013093708291,0.39335634689660504,0.4773518702921553,0.5672155763883224,0.6600348665663187,0.7488521933232613,0.8236954689569718,0.8790856247199446,0.9155819109365453,0.9211383116734475,0.9211286054457744,0.9163200196655081,0.8905276690773456,0.8648938569620639,0.840241347070656,0.8217819476262882,0.8040214636841538,0.7879949716838182,0.7759458309523577,0.7649548964145927,0.7600287817248343,0.7705860150071033,0.7657012084364654,0.7309792942002811,0.7181618142959492,0.7645229402088982,0.7927936168285776,0.8145358936532303,0.8201114363328292,0.7467144176017766,0.6489382845015421,0.5463466427303545,0.4435748441223448,0.3388864718249809,0.24017105105142322,0.1866936868677156,0.24274497917896376,0.3472395500155607,0.4475069083859937,0.5565273380162012,0.6392691157050527,0.634177876202032,0.6570886079001101,0.6355646382524336,0.5959542079630111,0.5435929019200456,0.4897052721666295,0.4264156058454849,0.3600982740889269,0.29619459314550856,0.22501334942314521,0.1531763258645631,0.07863049210278938,0.016369718131326705,0.0,0.05020149445122302,0.12553649204395168,0.2109057877015661,0.29642530663455124,0.3893567641929607,0.479664131675523,0.5494041023452292,0.6300951128984247,0.7039246612578327,0.7597404751078245,0.7981576578750311,0.83361097436498,0.8393705777993179,0.8093078533391185,0.7754884870216245,0.7460474041807332,0.7267388688155867,0.7270109506875273,0.7335732353310207,0.7336877569877638,0.7362671563280783,0.7478378728059742,0.7493814872293236,0.7516586912655856,0.7406045589130179,0.726320216147549,0.763159006164229,0.8177653224411747,0.8655371982719258,0.9015737556606158,0.8992130853619056,0.8204668951002065,0.717857332615957,0.606272064615081,0.49515881084407676,0.3940549489615708,0.29183060534482275,0.23351618884889014,0.2849215369515563,0.3832943685864607,0.4914591327271727,0.5916625118130607,0.6761575502155659,0.6799288495497833,0.683393876879125,0.6386533771819871,0.5944768757796108,0.542004973404302,0.4832301352628443,0.425360014260332,0.35662186862252554,0.2829589639256156,0.207004401504435,0.1336621729765728,0.06513541159926084,0.012007031863979778,0.01528586925566966,0.08960039404738507,0.16904867122733602,0.25296494161343963,0.34020921082589295,0.430744722868162,0.5195031183850385,0.6129013560576437,0.7028143092399599,0.78672388567343,0.8648439607319736,0.9217641405267942,0.9478621281138495,0.9368651219118886,0.9257812747082061,0.9523181138940138,0.9836887719652441,0.995763449968667,1.0,0.9795013058696136,0.9342742320015467,0.8719252653313534,0.7871538487897238,0.6958645052700558,0.6101970893695277,0.5232362258616665,0.43454132986422245,0.345047377780098,0.2567062774654163,0.16783395059662665,0.08678797223108825,0.06129978987328166,0.11515067885012464,0.19197287709074606,0.26864707617673833,0.3395435248926719,0.4111307170379277,0.4758412518175801,0.5326297890145089,0.5897952216024311,0.6440289949803368,0.6872110969178307,0.7289028104679338,0.7490359733728291,0.8064467075231048,0.7991000288806771,0.710327818142245,0.6090030897681875,0.5410710758280985,0.6111538397496519,0.7194439755356368,0.8149283878371247,0.9100816762046855,0.9868873517931065,0.9743495649011971,0.9470392742050215,0.9054140818263048,0.8532540585204944,0.8029024013197144,0.7799794090644174,0.7993584906941824,0.8021136567973239,0.7931736519614336,0.7854288249107082,0.7737602026225936,0.77118436565515,0.7712543527355851,0.7777310519422738,0.7986358401798874,0.8221298534613757,0.8579992717393452,0.8913009690951781,0.8927722672157392,0.8676775404530161,0.8340074096751335,0.7873820765240525,0.7258104260803271,0.6513839579076754,0.5582120139647602,0.4681118132742297,0.38098739574826546,0.29387428235629676,0.2094688190961853,0.1264346163878507,0.06147460043372632,0.09047709455603048,0.15962102173553827,0.23111930787022228,0.3068850141574657,0.37500839156792454,0.435634266332126,0.5023080395948787,0.5593827100984923,0.6149528386552827,0.6580773224405383,0.6947079497158355,0.7060338158663879,0.7361556827813565,0.7881233283361904,0.7339400800355063,0.636669538656851,0.5388284112418691,0.5486468629516672,0.6501454978367134,0.7476491936459992,0.8414106663914667,0.9095352867533579,0.8862404970432816,0.8576456378274315,0.8330247488344256,0.8039814829036533,0.7853447524262083,0.8114950260598097,0.8154721422571378,0.8061828879845248,0.8164007749436588,0.8239379724948641,0.8376488263536488,0.8516582512599049,0.8660761001810999,0.8912804716132996,0.9153186312646024,0.9442402446802287,0.9681439794401823,0.967037768150897,0.958871968223789,0.9577036057026063,0.938660997661946,0.8979289167972846,0.8323383280006724,0.7453675824009256,0.659675252003793,0.5771399529241865,0.5514186325510169,0.49911143341601827,0.4133922606397138,0.34040843132050824,MI
0.20884222675629793,0.2524602267770337,0.26923464945768605,0.22426914332260695,0.22491479144951287,0.2783196064576916,0.33214365553187264,0.3888272657657421,0.45469371321561214,0.5183395021943489,0.5443847803709967,0.5458359105704238,0.5415500537918876,0.5120173602424491,0.5273909681509568,0.5705884820448903,0.6035027053597459,0.6531646375268592,0.7269940283338021,0.8011019899653069,0.8436065361805716,0.7797447291811859,0.6927228367547442,0.6049124830562949,0.5188335417258814,0.4424411324543924,0.3770248943695764,0.32152882075324185,0.2757926727279627,0.23483138413990012,0.19606823197559153,0.19239575202547265,0.23627085484154398,0.2946325307021096,0.3624399294848504,0.4086425271626024,0.4267289769820348,0.43025288942119433,0.4222589564240917,0.46246324756350843,0.5064761254424441,0.5335524424220148,0.5920817740685107,0.6678577891633775,0.7443894853986326,0.8279961264627562,0.827843956909504,0.7412943841191202,0.6642728092544186,0.5886974530756706,0.510437573810764,0.44477239373001254,0.3951718034394014,0.3767047554308316,0.38561306409259966,0.3879854598967485,0.42618123854899426,0.48546410186285094,0.5564514702489263,0.6256902219703788,0.6789516205493842,0.6997141883274229,0.7213686175140952,0.7105989834447066,0.6657769713238124,0.6334971165210377,0.5891756318381969,0.5426368654898301,0.562920806225119,0.6325242237529987,0.6579601760136999,0.5828531654956655,0.4966499502341133,0.41073033096755984,0.3253509807563002,0.24567534492204057,0.1774647632599773,0.11277397267358902,0.0640066302992095,0.027431456917449415,0.0,0.017885516777644828,0.06560816221046473,0.13664667042993695,0.20444307238908244,0.2675907171298679,0.3139902096864442,0.3349457545871346,0.3562022634662281,0.37538311981276085,0.42745990161329916,0.4695204281443002,0.4999783300488114,0.5578584115075929,0.6448956177298149,0.7193361371091782,0.7478016691252247,0.680275390270374,0.5924729545102678,0.5051133747841345,0.4232107843928654,0.3491392072654076,0.2927693061555168,0.2563112417479634,0.2524919520383646,0.27011296090186865,0.3094749058870707,0.3713381632655359,0.4366684511980312,0.5009981473350382,0.5680711481206049,0.5969889878766452,0.5704186579579149,0.5314745413340147,0.5095060124116386,0.5350675335334811,0.5811796337578825,0.6008099211685813,0.6450836615318325,0.7203436568234844,0.7942601692661022,0.8493314744805989,0.7974289206031531,0.7093063088951128,0.625934465843343,0.6041451285028026,0.6816698666293743,0.7698044385082483,0.8640518603451748,0.9453725687785262,0.9504186003183552,0.8900631820865896,0.8129615902705132,0.7324049959890611,0.6630600840159424,0.637336638224443,0.6083917818760363,0.5656860472158232,0.5752208528434886,0.6138632522719731,0.6432730275800904,0.6354279890534922,0.5870139484451717,0.5199603009744833,0.45276118989651115,0.3852266796642132,0.3347155431089681,0.30797180086755427,0.3126350747652318,0.32532894025897585,0.37716537029014785,0.4494770213704291,0.5402487296429197,0.6290247543007708,0.7165178480648902,0.8014153232334345,0.8543542355555729,0.8147394481881183,0.7426224961269077,0.6648765983347251,0.5853493928002171,0.5399090323290361,0.5180181139021569,0.47287503464214353,0.42721348432877493,0.4004540364185867,0.37728076431264235,0.3554733566587942,0.3104412613516283,0.24514176941132915,0.17440972608399674,0.10648081864717307,0.06082892049928068,0.05798276514167977,0.0925714795573187,0.14503856270349003,0.20030035323933615,0.2690450271789302,0.3506034809192886,0.43535865755206404,0.521727007624099,0.6113395791784073,0.6992853986609071,0.7756858224359411,0.7727648992632996,0.6978523809892154,0.6262915226718968,0.6004391328175953,0.6431263139640471,0.6893771909221058,0.7203691390969491,0.7630905255998639,0.7692394826801434,0.7514219333635686,0.7235776288379798,0.6740283313447581,0.6029236893493886,0.5343710496045448,0.47266180212655384,0.43611997305788663,0.43404795142418284,0.4280702385962494,0.46676162276732036,0.5412415625217113,0.6206598591996983,0.7102388690813135,0.7975925854266983,0.8877135810938508,0.9645188680585186,0.9653393444102327,0.89092041105336,0.8113548878592345,0.7330188222916922,0.657773523821483,0.5873119046522468,0.5556652752239297,0.5131142150637582,0.46836893780198996,0.47448875707494564,0.47467784099641963,0.4610826059148312,0.42845335161669107,0.36687141456930816,0.3032151747611851,0.25050521015649596,0.2507920385561859,0.2938027011424613,0.33444996026564233,0.3845077365829763,0.44747012570374456,0.5220105077222554,0.6083988187641658,0.6951686464466293,0.7835353736193407,0.8706192310014178,0.9543748878842064,0.9999999999999998,0.9457727796606379,0.8683259359461564,0.7948652853855422,0.7184026686288265,0.6552316655403911,0.6194516284189291,0.5789699829372743,0.5726971935321925,0.5930475462446991,0.5939651474939383,0.5791953149192168,0.5337613176655964,0.4714628061537869,0.4091149344827021,0.35414737097753624,0.36474940522198307,0.3836967686851447,0.35231280637388185,MI
0.667036769223416,0.6260051368502881,0.5689913318442259,0.5008060597063988,0.427730367141566,0.37095080850900297,0.35092728194757106,0.3339223283364334,0.29099929402033853,0.25496181543292273,0.2217743333405151,0.2759847015661685,0.3710693378703893,0.46810343102863117,0.5659061010613318,0.6647161543362676,0.7469873156275955,0.7889970984824002,0.7730340328244756,0.7747035893257457,0.7848755214161192,0.7932745900218885,0.7880019237175677,0.7388873164410983,0.7000043365936883,0.7340505306583056,0.7872642782864188,0.8240423304823632,0.8304186366625257,0.7731904746845149,0.6609092263172984,0.5433500721707998,0.41571612273220593,0.2898580862387483,0.1705597960574461,0.06231931500424315,0.06743197252575839,0.1544373540765136,0.24144949012894878,0.3369180131106724,0.45915980451628213,0.5828538355985393,0.704092286429328,0.8205921993457057,0.8354050782009064,0.7527744986807474,0.6913623725992402,0.638335785935046,0.5921084734553004,0.529746100937194,0.46508341816863163,0.3880069362776326,0.30106856628182843,0.22875011079134833,0.19620150867811637,0.24924317278566788,0.33632854535590795,0.4333871942939411,0.5409193834835087,0.6396022631710228,0.7106827345902742,0.7343552812580536,0.735291789605184,0.7421234423192691,0.7530119654163094,0.7537584017002454,0.7144800451918996,0.6729235283100663,0.7054787953403006,0.7636137698421526,0.8094101925843997,0.8182332309259612,0.7689271201770604,0.6557601637860602,0.5374475206396063,0.4086113225965402,0.28498951607782663,0.1636153501945774,0.045649260446861906,0.0,0.0919715031878705,0.21349234294418773,0.33617599728083203,0.4660461855820772,0.5875510542355924,0.7100426386643108,0.8183343727881707,0.8109427670622833,0.7380142994988947,0.6860335222439025,0.6433640216506458,0.591990818085645,0.5272627215173862,0.4582731719018134,0.37335607474856447,0.29116499734377843,0.2322624008626577,0.2442932178267747,0.3233319277757012,0.41961362610944786,0.5213031702104503,0.6253238168779327,0.7124264986106219,0.757635486612954,0.7587044975342412,0.7604888998165227,0.7678882234053828,0.7795317393477292,0.7674539941610101,0.717984436133567,0.6843754043587023,0.7230964650730782,0.773781620212949,0.8086730527691692,0.8230506429533744,0.7598244277136117,0.6436088049150213,0.5263572679257629,0.41018971819672645,0.28787988073341664,0.16906490018470421,0.049546241231088084,0.022949273186543273,0.12015751550967169,0.24435527038564242,0.3674039292051856,0.489607413018573,0.6197533126577408,0.7493672310569863,0.8289387994058308,0.77066692589977,0.7078431560790261,0.6696574058216469,0.620197705871429,0.568271716656036,0.5196879091678244,0.555440905911071,0.6218670503865655,0.670837820066768,0.7165600694421945,0.7561305145769261,0.8305803645037382,0.9285684044599183,0.9915354097635993,0.9230617938117995,0.8050790479124181,0.6867047101176746,0.5593347488854601,0.4785586512533624,0.5578432320883824,0.675557013751988,0.7899483035944757,0.8741413235057358,0.8761403761991615,0.8531204573854305,0.8175315864655714,0.7710101855384632,0.7623366161583891,0.811876130973384,0.8324177986535095,0.8233631980772751,0.8152672963918492,0.8196005315521928,0.816879466723317,0.7862192233720404,0.7193597520627399,0.6205675676968601,0.5219336983454022,0.4232325538924475,0.33050704455337554,0.30810645143569904,0.37649938214290657,0.4588616757501822,0.5368913085734852,0.6013919032469972,0.660926990636594,0.7071176716059,0.749487023361203,0.8190978279046317,0.9150465971544848,1.0,0.9667525093130087,0.8547968841642661,0.735871427537977,0.6149836039671093,0.5416217653265818,0.6209223468122302,0.7366145430439213,0.8439972571294416,0.8772801297597304,0.8718822242981847,0.848178829965319,0.7960197125051609,0.7462338317467481,0.7722368452091946,0.8120227221335719,0.8067396156590783,0.7965295033740452,0.7891536104125447,0.7881479832002443,0.7660055459909603,0.7020078948830877,0.6061854138871134,0.509017136146777,0.40685596584270245,0.313760203808235,0.2625364950515978,0.3126203130908163,0.3897027856311377,0.4745066474239268,0.5435404634075005,0.6065548563009062,0.6636721540876049,0.7128833936008228,0.7674018026981715,0.8470046783805478,0.949079395500164,0.9895699154309425,0.9060962650032702,0.7874139193177006,0.6634112618301784,0.5425955665213551,0.43026382498962157,0.46320043066945127,0.5802601796674156,0.6975258525265255,0.812029565822554,0.8877164601603464,0.8849828218833644,0.8698929940728481,0.8218371553970791,0.7727916422204371,0.7833864842300367,0.8314067325016516,0.8480823811644842,0.8420458241151918,0.834202480358115,0.8325137889967076,0.8356911764496124,0.8107314457978689,0.7402338554463341,0.6556813691373109,0.5547008077786049,0.4559809360219962,0.3556579232769299,0.2784217906823394,0.3159779777135938,0.39679136522298286,0.47310488085468405,0.4900004771790645,0.5480342506904452,0.5790373883344673,0.6325156156312115,0.6850879514713317,0.722966483174809,MI
0.3409444831466695,0.33081930905190027,0.3678994706591132,0.42272020196347193,0.4256636988695399,0.3529028563778873,0.2800648135417234,0.21238654166069382,0.1552828589929358,0.12091371208224921,0.1188364329375764,0.17001236591864144,0.2309618894904817,0.315259123333149,0.4108246950535095,0.5114708845991369,0.6083957079820348,0.7073004145774286,0.7611046564176724,0.6924793231491952,0.6163256317698294,0.5748682138638286,0.5483036381194986,0.5186700501816144,0.47206681051485133,0.4209750316601879,0.36651075698490465,0.3129542489107149,0.28088101203433946,0.3069750122579651,0.3506418748658271,0.40149027371328594,0.42547690330772325,0.4289246224092105,0.42184906919616405,0.4239388568960021,0.44404736104973686,0.4391539898002341,0.41045276608419967,0.37471584299975436,0.3864857480675894,0.42606507906238744,0.428005530561683,0.3533420714577111,0.269572680381841,0.19915055762346623,0.23426742591989425,0.32717277134856837,0.4250120688947747,0.5174350296096877,0.6009899336345546,0.675519527929614,0.6399637070143289,0.5597324289710517,0.4926614954795008,0.4699881946794895,0.4514104649920301,0.40702366445364935,0.3485045241489979,0.2879251118692847,0.23314515329788055,0.17985294940542818,0.15237234005702405,0.18316528798806941,0.22489590020813344,0.25795257246061776,0.2581959333124204,0.2543272954807705,0.25235028105056156,0.24418546044917577,0.2276049544739951,0.1857450677382011,0.1610145468872506,0.17953618477754807,0.22434738423527256,0.20916590809960378,0.13027223082533856,0.047623941540743786,0.0,0.06438029985918958,0.1677579404951035,0.26406174156766293,0.3645320734080666,0.4631137669599512,0.5515342811390502,0.5421967024174228,0.46345260628459983,0.4020636761173575,0.3822194772611629,0.41161493661864346,0.4137634487673012,0.3735026256716514,0.3207668308996119,0.27746483492102825,0.26560653005294665,0.3022143522698808,0.35684647327465435,0.4108219652877627,0.443204860200366,0.4699734013380039,0.4941662769811057,0.5188289075774992,0.5310499385990688,0.532661572784608,0.507284010197705,0.461224840990903,0.43422550528098935,0.4640821629208214,0.4923510910181077,0.43804482625064733,0.3542173766289285,0.267453968420589,0.23984827030510347,0.314959067562125,0.41277322775637804,0.5082287143425159,0.6073587734771524,0.6711291490225786,0.620325005859194,0.5482114468617152,0.5006242297310821,0.48145556105740694,0.4643158870092916,0.42713220054416756,0.3824897148533115,0.3392147602901969,0.37929410535340824,0.43658745754578,0.4775926632101182,0.5150274610951555,0.5423955552000137,0.5776822076965031,0.6450399642483717,0.7311425905606723,0.8306275562986876,0.9252005583513572,0.942604794569337,0.8662280140489311,0.7673257595016685,0.6723163760803106,0.5704179311456083,0.47517888582376533,0.39129416250169524,0.4192496491306763,0.4923847283813998,0.5434813982909856,0.5402944248169133,0.4953932040407152,0.4905035769964823,0.5361505681268464,0.5735785855612672,0.5845148292039914,0.5683181243255844,0.5556381365231322,0.5280319832083491,0.5014327529141125,0.4771201126643121,0.42984779521408245,0.37260658986180917,0.32544990919513883,0.3235136932605409,0.36573050563934095,0.4161381475986057,0.46140832504690343,0.4718945561726653,0.44368689660154526,0.46081413697985707,0.537405015461778,0.6275263887172142,0.7230899827175261,0.8146268806050967,0.8584372813298662,0.7924569133747428,0.6888525809708994,0.5850756982689471,0.48969471146240307,0.3878969310615632,0.2894843807901879,0.19500196245716817,0.1735317550316462,0.2462363663817697,0.29089542143325553,0.2704953041792655,0.2219256221442858,0.21234369395059893,0.24653352807815687,0.2775821074596865,0.2837041345261653,0.2964913554564028,0.2940174352559157,0.2977449260274809,0.30059016180639,0.27667314545985433,0.236103595787583,0.2026267354240312,0.23448514578422897,0.289634275642477,0.34890183208456604,0.4059983732529664,0.46536975029246386,0.498735803763352,0.5179679822989167,0.5678370795500667,0.6489227929574193,0.7479528600370771,0.835937091975836,0.9088230663774566,0.9292532902666883,0.8543987468487388,0.7555669292702312,0.6605687504143429,0.5582784308773985,0.46218224258209095,0.37276214501396177,0.39188258215499894,0.4697231776111661,0.49255644700837187,0.46257334866860256,0.43250375028423815,0.45080443517044766,0.47981460853337965,0.48162240337418694,0.46873730063412977,0.4683434077337474,0.47039802407234466,0.4615698721728936,0.4301494469238991,0.3809077581451106,0.3381304048358815,0.34591965359497334,0.3954047432949339,0.45059221703478003,0.501613000395192,0.5491949166504642,0.5855146107683502,0.6070865177801628,0.6492239757365346,0.7243971566700498,0.8125327121400978,0.9065721180304329,0.9975311030361029,1.0000000000000002,0.9328177449893975,0.8425468495469188,0.7421787418006802,0.6420790429366086,0.5454274522109424,0.444943999166276,0.3853408138729051,0.4408907275384204,0.4954236067077076,0.48489289384589473,0.42544674213250855,0.38386687288351573,0.3887495198528985,MI
0.6870861107463917,0.7283800041555782,0.7709068403198788,0.7871370504818835,0.7481402564685877,0.7360083395093682,0.7966314867423865,0.8634969218533434,0.8962884190899251,0.856628289456295,0.8204540159091352,0.7936847477219908,0.7618117334031939,0.731598906597046,0.7216482670211349,0.7481694739227184,0.7636389936032446,0.795966073175452,0.840667585703846,0.8824808453828891,0.9028694592211731,0.8972216399436129,0.8832211655402499,0.8814071364360764,0.8966740842583204,0.8960269621448523,0.89590530344817,0.9166875249733605,0.8942135309636873,0.8281334983039762,0.7613711595576719,0.6909110363832077,0.6206908524411987,0.5538574823767652,0.4832516742060823,0.4150770283251364,0.3466602236392049,0.27545326884166377,0.2068393789092581,0.13896266559489487,0.07701088859423669,0.08300820296047987,0.14673205164805483,0.21459803681836556,0.2858044170284696,0.3571554366861809,0.42850645634389195,0.49985747600160246,0.5712084956593136,0.6425595153170248,0.7138174559334991,0.7820821305355605,0.8502565255135134,0.9048956857168119,0.8854973358133283,0.8502200563970886,0.8310778191153331,0.8072024018543269,0.7909360312011445,0.8095391370410718,0.8510283656110066,0.890872430435193,0.9098142277922129,0.9011894828435224,0.8887996157152928,0.8876127928398615,0.9000362569159824,0.8951817857317262,0.8993981123095119,0.9130828021606147,0.8759586530060445,0.8089215554050325,0.7419141750756376,0.671058937593803,0.6025095495014915,0.5344617292549573,0.4632445151296951,0.39357700419188835,0.33219010210059696,0.26781312004132285,0.19675703299407496,0.12792342328140324,0.060240408471523205,0.0,0.013672267175485725,0.07750013210519793,0.14838474547437083,0.21973500173157143,0.29108369799740386,0.361685870505146,0.42848672997984927,0.4988067648195581,0.5664683385674415,0.6296142406839889,0.7002257284581686,0.7685610496462182,0.8366499751277384,0.890147809416569,0.8628168685726115,0.8139630785724025,0.7853691393961959,0.7570440998726501,0.7269292069404597,0.7237037231157448,0.7592804512939021,0.802397255929568,0.8385670738934373,0.854934889253672,0.8527237517031051,0.8523315769823464,0.8674344637691923,0.8874879056941666,0.884768033137867,0.8850550080632399,0.9101217221442374,0.9050812048885074,0.8473890416299835,0.7789256784323713,0.7082502792683306,0.6414016225310257,0.5712270863082382,0.5003093251794595,0.43329279654533315,0.36346167408657115,0.2925513977697102,0.2255375928064168,0.15576632221259076,0.08807371340639766,0.05601250472305641,0.10772625188905874,0.1788395885276797,0.2501291283274981,0.3165124333406978,0.3753882115699817,0.44536674626865613,0.5167141852464839,0.5880650123380222,0.6591457168320255,0.7264964603367956,0.7958309678259112,0.8645874273710156,0.8980914166884745,0.8658118903241062,0.8386450661688652,0.8162595875090665,0.786665428256398,0.7727591077389977,0.8026105609829431,0.8127555887177593,0.797839337722981,0.8219955396585364,0.8490867652720892,0.8760766635226137,0.9216427971196165,0.9772929564216192,0.9919690120214034,0.9350855821728675,0.864017194831454,0.7930791518116654,0.7260310771699016,0.6562439211855516,0.5849068212448517,0.5151394783049557,0.49198695437375906,0.5479769524533988,0.6181548597340458,0.6888503053639546,0.7556809962283512,0.8253320596318415,0.8916483547282831,0.9472034299670727,0.9459772519069961,0.920915221178585,0.9026886780546425,0.907546729646112,0.8964266438190717,0.8752578862413342,0.8672051778024296,0.8712834859597115,0.8664919397139944,0.8418322075889403,0.803518650238992,0.7593247106731331,0.7440329874885645,0.77181807345782,0.80066699716367,0.8293563713208724,0.8818437495327528,0.941203428784339,0.9890125987135411,0.9625930941584532,0.8978896340273052,0.8295192569875164,0.7621663538237375,0.6910809709815059,0.619730150673985,0.5484604574830472,0.49077259384991834,0.5193797087342462,0.5892893600038694,0.6564847596144822,0.7260222659596958,0.7953550028674228,0.862335256582211,0.9228271771476585,0.9502161262642129,0.9328263489215359,0.9133127777137003,0.9183713172471694,0.9175211754723834,0.9045146564535919,0.908387999610993,0.9226709530349836,0.927521333861194,0.9100330909996229,0.8688199972880136,0.8264317643377029,0.8195562124979884,0.8433958823905848,0.8647720649873799,0.900163777247751,0.9523249736072362,1.0000000000000002,0.9756246991137351,0.9103079514852089,0.8413516630253571,0.7739518800045889,0.7028535504848952,0.6316167020567172,0.5751025628648221,0.5972457178844031,0.6600740310443368,0.7289365191485269,0.7998468428217059,0.8667107258595922,0.93041588524427,0.9587407973030019,0.9376355334271401,0.9154916262928944,0.9179530588396027,0.9168775024131769,0.9011594012241518,0.9005038652025928,0.9151615843536264,0.9231293957333045,0.9108096566897333,0.8764913788222538,0.8320604327790179,0.7915484750543141,0.7850480975460032,0.8085955917722515,0.835114054206492,0.8716527891989286,0.9259512473925998,0.9812314342075338,MI
0.2837820300675705,0.35034998215549484,0.420646331380195,0.48934971647887593,0.5605766496398743,0.6173043497078755,0.6667462568080433,0.700245163761238,0.6898223577651907,0.6973342484078796,0.7647891014387419,0.8335324694711425,0.8978967068135476,0.9013073257426542,0.8564301755473912,0.8272583705805364,0.7920012017453582,0.7477246288281514,0.723697682504684,0.7362410963858423,0.7566162313002601,0.7760255195456073,0.7752821423516372,0.7873927374385485,0.7918734191581458,0.7776082913712536,0.7727064360411718,0.7929845818656431,0.7909289081888695,0.753603324424737,0.7013956267069898,0.6346923087951758,0.5655382776713571,0.4958497366418959,0.42373768624261243,0.35473999383933963,0.2847743559840239,0.2124876144048499,0.1401715300945612,0.0723790679982225,0.05989695820348631,0.11800338942375951,0.1894000975326913,0.25798560020140826,0.3284434309131349,0.40074462791764964,0.47105173955213964,0.5311589578951387,0.6000504703272442,0.671242341352701,0.7393702860649847,0.8103861944227532,0.8780803355769783,0.9243109434689444,0.88820669618785,0.8475346382371008,0.8205502379534421,0.7819984608996462,0.7444647773200955,0.7343746452603599,0.7378413033919442,0.7486524593244337,0.7386273291685129,0.7422726805798441,0.7601184868805202,0.7560871362979696,0.7556583450954281,0.7750881233494383,0.7710795643875137,0.7312402808493074,0.6650782046335032,0.5957759276029132,0.525331990240828,0.45681431814008444,0.3850471814769417,0.3165269465581607,0.24598007121330365,0.17403230431021602,0.10568816224767733,0.03617713769959746,0.0,0.0497740088109421,0.11443944201007014,0.17320496997775434,0.23800687922086308,0.3095549419386492,0.3815736079114639,0.450025013320272,0.5206672456316427,0.5929013592521831,0.6624272593919582,0.7318380293295587,0.8035643270807437,0.8716118734863098,0.9371593462879867,0.9517426895741435,0.8980456421305515,0.8555103492149664,0.8332726935850884,0.7955679817145916,0.7557085222443206,0.7482559929267153,0.7522772146568374,0.7556169534951398,0.7461104603123045,0.7549522971203918,0.7559093173588699,0.7618655106975627,0.7856136367022616,0.7804868226241838,0.7347693053134885,0.6673743092211148,0.5972616158631593,0.5287915955322223,0.45825398683769847,0.3882039665588066,0.319298595512049,0.24714423609748917,0.17595245929054512,0.10782317538764927,0.03932534268599788,0.022753204968222474,0.07952119983309061,0.14973373322259845,0.21779204377939906,0.28927635478795144,0.36160808102267383,0.43394332757445375,0.5062785741262336,0.5785453263865227,0.6482368683711076,0.71748720902871,0.7893946543681744,0.8577252656209889,0.9195571368045025,0.9165425858209378,0.8696096001519705,0.8460378926041986,0.8134146933542993,0.7705681904185805,0.7427609412270965,0.755483271028448,0.7827037260497443,0.8252848536466538,0.8582053251761123,0.8822859727304969,0.9334566154256837,0.9845619329728593,0.971473859592796,0.9056059581196537,0.8374249169425388,0.7666960951072394,0.6981414075098354,0.6276566587100557,0.5561473410795468,0.49332871918592125,0.42800545465206197,0.3560683512557743,0.28451535489814006,0.24891717309823227,0.3034345982674572,0.37467471450759493,0.4427565982747145,0.5142975305174332,0.5837071444673004,0.6531078872631559,0.7203255573595695,0.7761284845525068,0.8034363696844619,0.8038315743840615,0.7830311824172254,0.7742333805532783,0.7769142262476881,0.766189607715606,0.777894268831451,0.7751943975275629,0.768593275824175,0.7786083180099284,0.8176162461468391,0.853174129998805,0.8758049512414409,0.9246675429168975,0.9851055312420048,0.9964519723891897,0.9415753527735548,0.880562735071183,0.8170650357130002,0.7450937173370332,0.6727585728386336,0.6004247875533871,0.5286769444167062,0.4605552839989657,0.3893215011277992,0.3184149305547198,0.292774894934934,0.35048093159672533,0.4193674411857671,0.49147423487609954,0.561217037213228,0.6303400592780826,0.6996266756006707,0.7616362813295482,0.7903793706289864,0.7983965417978348,0.7861809978355979,0.7739799415857773,0.7850093669295887,0.7716574995533879,0.7576880774374317,0.766200046519408,0.7613312388467286,0.7565998655926144,0.7624752217538043,0.7975867590241733,0.8361252387965864,0.8643514277556225,0.9085046998697496,0.9685786271812361,0.9999999999999999,0.9560344093028809,0.8895760569568575,0.8209352946070524,0.7500361805646234,0.6818652299903182,0.6105544738498992,0.5470420360118529,0.48263720865453186,0.41080482961811393,0.3482455990916543,0.36725359545263425,0.4343763136257359,0.5041990524790225,0.5755304120110498,0.6436111753091366,0.7151444355424813,0.7820879819400092,0.8147504976000036,0.8151258818613941,0.7981339887634694,0.7953509829326202,0.8124587024234945,0.8087533756111224,0.7963244681079457,0.796815836761391,0.7840911550243176,0.7604325690799654,0.7459947368647271,0.7665034190246316,0.8094039278437902,0.8435732176736107,0.8755431850940708,0.9288846578362698,0.9759118264617218,0.9514401271919705,0.891905652691804,MI
0.921114149890049,0.9107232650261632,0.9099976172474471,0.9092694565344837,0.8952724262454335,0.8843281512053194,0.8977339903806696,0.9233760649247591,0.9230182910702074,0.8506760557321305,0.760900142862186,0.6655523956517229,0.5727316638656395,0.47837372083441343,0.3774806672911559,0.27809978738760277,0.1884691228262747,0.09113417056614681,0.03592499132803173,0.08537219455010114,0.15335157372202635,0.22251445445380247,0.3086750591296832,0.40885569300559266,0.5061652339877569,0.5965344501126757,0.6963929274198488,0.7880183197131694,0.8783709469363914,0.944639347750738,0.9517563650991478,0.9318650044764332,0.9090341023779502,0.8771849044336442,0.8368189976491682,0.7928855578309251,0.7389536875997633,0.6887352563927616,0.6594120219540778,0.6731900611010544,0.7225995785062058,0.7838472767915108,0.8482011596918491,0.8925569009355221,0.9096905937242123,0.9162436402664493,0.9182060075415208,0.9193937861431292,0.9250326897762902,0.9254305478593388,0.9316701164773082,0.9327752261187081,0.9388401015320946,0.9279996783961,0.9251135810243882,0.9239279731252159,0.9134404136510228,0.9208681489259223,0.9244529171993734,0.9102093460798377,0.886343947650805,0.9036642990881387,0.922198382676422,0.9432607266803488,0.8923888274537304,0.8022910810901673,0.7128069966472497,0.6135970895998057,0.5176991952716095,0.4262203775030131,0.3256573424039966,0.22812924844358884,0.1379527256436377,0.04970143097315538,0.04987684230995226,0.13286054384664436,0.2322252810179486,0.32221958288765085,0.42014314168599887,0.5200863885254421,0.610039701124717,0.707349513870986,0.7964301514490915,0.8711456875678647,0.9339898444314283,0.932317038965917,0.9179972265330907,0.8962790282362638,0.8718096415374887,0.8382126967259693,0.7970699258571421,0.7451342577567344,0.6939360387333888,0.6587325363220624,0.6664052795066868,0.7160373946785223,0.776543488216122,0.8418324781415358,0.8941685901787664,0.9228810529890166,0.9251012274928878,0.925104154881693,0.925104154881693,0.925104154881693,0.925104154881693,0.925104154881693,0.9250665849138819,0.9204060243745733,0.9104994544362839,0.9101609046600307,0.9176130792905193,0.9249639003000354,0.924985008323103,0.9162729684650457,0.897973158762956,0.9100780872525496,0.9312417939698072,0.9220795541572464,0.8576222365419608,0.7686328647896037,0.6712621984841194,0.581349711710418,0.4814822817550364,0.3851004771304656,0.2940282896136135,0.19364236557750125,0.09930982743048467,0.013704024576270069,0.0,0.08548584381156799,0.17511879958848153,0.2746735258353936,0.37178113333552654,0.46230510859681617,0.5621792348906429,0.6536567327884475,0.7484044772198768,0.837751088216375,0.9156890893333869,0.9343293622506832,0.968071818928554,0.9673731999142525,0.9056638596832784,0.8200252099764658,0.721736769931892,0.6294304950525986,0.5486005940578509,0.46395218649704795,0.4980737123144472,0.5972429713266014,0.6944377573839766,0.7846871805669853,0.8757092299418727,0.9461778323655508,0.9737242363138905,0.971085620815225,0.9570634058520056,0.9520683922043283,0.9609533388422284,0.9613597910335887,0.9609747704311133,0.9517063793868838,0.9466580591073654,0.9558670216921241,0.9612998990349344,0.9613610455771857,0.9626632962470678,0.9737392016053357,0.9692603783468812,0.9639409331600097,0.9746903939641145,0.9670754311314278,0.9612018865160348,0.9471713377077062,0.9010539470052161,0.8438262018388221,0.7818935944933578,0.7272234179830757,0.7183253414741042,0.7585959928851178,0.8136600957648876,0.8615311199167928,0.8961511799289243,0.9265256000328237,0.9476049274099387,0.9632843380836467,0.9854937401000505,1.0,0.9476761553969828,0.8603537785525921,0.7711696825213203,0.6739698601870052,0.6281682867206531,0.7060328213584781,0.7995875258949505,0.870383396427147,0.9438065321526268,0.9870613377990485,0.981518126206637,0.9505518925237637,0.939923027935198,0.955456383472367,0.9613039169084407,0.9613598003732942,0.9613747550282428,0.9646438148349952,0.9683947639007062,0.9695052150188079,0.9763331577576837,0.9764655800136919,0.9754863600130506,0.9645154383208614,0.9613726050867362,0.961359526414229,0.9605120927704185,0.949807425859349,0.9449384101129796,0.9197331205938117,0.8699392697130666,0.8079264855781565,0.7478352762428031,0.7078792298774546,0.7306792667777908,0.7747205459673925,0.826576547759931,0.8752815540741028,0.9122313083060805,0.9447523377738176,0.9682294535455673,0.9881878336602994,0.9913674802026424,0.9786181866596357,0.9273287619802608,0.8437170564495506,0.7542798109817923,0.6564569444657229,0.566836538896633,0.46764789251527894,0.3901328065154388,0.44330079769536157,0.5436497409594305,0.6446558494260692,0.7449419180371084,0.8351454480578249,0.9212193068629393,0.9714656519017675,0.9712351753007016,0.9447504392922594,0.9273202998793866,0.9400097770076563,0.9583384853862094,0.9509671348270063,0.9502664501290932,0.9547966354276394,0.960726750477138,MI
0.823189797704823,0.8426542900613694,0.855703006644039,0.8430893902141714,0.8079809637148434,0.7703516015115872,0.7295354363186528,0.6914181052333876,0.6496207904164513,0.6224409992146736,0.609973924061052,0.6005299621978561,0.6051647574812862,0.6150444733484088,0.6240135603371451,0.6369179992637701,0.6397124007620485,0.6394970650723286,0.6307473095574216,0.6375838171540729,0.6349079061495451,0.6416157762927022,0.640258809432803,0.6306865509044177,0.6302865775425925,0.6302852224778925,0.6287141357157322,0.6172481449566936,0.6151967917385324,0.6120162457247893,0.6077048288774451,0.6019050238153525,0.5890707873693788,0.5558013180410708,0.5354731489569711,0.5328213402093216,0.547938072434256,0.5715307637793974,0.585497415773627,0.6095827003036864,0.6326447312351215,0.5615101775805831,0.4796542376800741,0.4029925996996624,0.3168710864731141,0.23028928932256254,0.14371234136386524,0.0596015159482568,0.0,0.009102180838060248,0.08120561100664281,0.15660050832732586,0.2398779117657137,0.32436472526915083,0.399488625746234,0.48389618942427615,0.5599027593098034,0.6426248612978862,0.7259950615720052,0.8000204256837067,0.8306821126524719,0.8018894384482695,0.7849790504204914,0.7857508984941914,0.8033196497515991,0.8325357869282113,0.8600997202991125,0.8925485578214791,0.9182967459367946,0.9295751910818117,0.9072027152969866,0.869209744129775,0.8255294108595435,0.7765222112662651,0.7319517738155172,0.6888936652723803,0.6494273368731049,0.6187831951788707,0.5973114759034639,0.5856340609389734,0.5824318593883271,0.5811040459815244,0.5850120481224887,0.5850440366261707,0.5850440366261715,0.585158454135619,0.592099565141124,0.5981727894322686,0.5872220849796188,0.5950624835753306,0.600090621383256,0.6001248835983202,0.6001248835983206,0.6001248835983211,0.5999896108157718,0.5923356807039581,0.5803375698483138,0.5638877157476527,0.548306722059811,0.5207783099367413,0.48743665380465306,0.4852040289392623,0.5082893864024125,0.5343741660633683,0.5612401385841832,0.5737281067616162,0.6098723199449385,0.6033425676528685,0.5282839605439753,0.4497583091243602,0.36369715142128434,0.28659311225402084,0.20663534857699628,0.14888146100834354,0.17531115597480684,0.24958521196314654,0.32485991364444833,0.408197717551283,0.48615120206502893,0.564595284478427,0.6396254019530072,0.7240063100357157,0.7971627146752709,0.8108625546290884,0.7655812060613936,0.7403258910718196,0.7304046462647997,0.7364535368759559,0.7508316069689938,0.7684240334909986,0.7833936011543725,0.8154397272072706,0.8291249981339981,0.8103778135601354,0.7896280125814241,0.7793032756803082,0.7763081131283662,0.7990736992775125,0.8464703774844129,0.9212874865821508,0.9876524868697298,0.9999999999999998,0.9392981876806414,0.8573071182806056,0.7817480418818137,0.6965095373768084,0.620005595781042,0.5423506772246369,0.5363987748291679,0.6152895403273944,0.6952243948459789,0.7355737280790466,0.7094645519467899,0.6443037137754464,0.607932639730228,0.5944283766673049,0.5643064933574788,0.5415254394406361,0.5281751626111195,0.5597623420329418,0.5935923539761052,0.606592408139605,0.6178880622540006,0.6299567346623232,0.6362449133813082,0.6364144557086979,0.6431385229053228,0.6512190659169457,0.6513997633036157,0.6509837035825556,0.6413057157251336,0.636352202217296,0.6363189163314675,0.6363189163314671,0.6363189163314666,0.6362449133813024,0.6299724482853415,0.6228164368233442,0.6267077586709922,0.6272678494569008,0.6378680287258967,0.6573879810381926,0.6869004564166403,0.7291109437051013,0.772401426973927,0.8157541845723448,0.8627907225995755,0.9094975403898495,0.9466872834728683,0.9693569998014022,0.9720806539676123,0.9565178568266861,0.9309576027270514,0.9007661789958223,0.8723961249675518,0.8453092133240065,0.8261347065821087,0.833234665990658,0.8624170480919304,0.9248487135649917,0.9890006926322703,0.9969035273402904,0.9326888737670183,0.8493177381471411,0.7741527672053878,0.6889311662141389,0.6049907666290812,0.5354752042398101,0.47209118616324264,0.39727114853355183,0.38499696955947704,0.4636840213811,0.5433036721607765,0.6218434966363564,0.6997753595434502,0.7575558062755785,0.7413758701360369,0.6755955801176168,0.626493685549333,0.6186878422179614,0.5973099452983621,0.5840844786347505,0.5880503026274424,0.6204217590699226,0.6451710088189351,0.6574050129754785,0.6598650368329431,0.6589649166513951,0.6663290113717573,0.6664806102757435,0.666480610275743,0.6664806102757426,0.6666837052510919,0.6749354974416171,0.6814712884740104,0.6815614572478867,0.6815614572478863,0.6815614572478859,0.6815614572478854,0.6811856134249095,0.6716990927182065,0.6621148231055021,0.6519093319122977,0.6514004806907858,0.6525373873734555,0.6661692003920361,0.6969693820959721,0.7389964645088016,0.7753160590247072,0.8164080424222553,0.8547258757627578,0.8857489782245891,0.8926307998354519,0.8902497059842969,0.8737166514482448,MI
0.5967531025424462,0.6576077458129626,0.6663509752007775,0.5896629919344831,0.47646983621575334,0.3707036063002196,0.270562875878434,0.15660863874685704,0.04461671339544515,0.0,0.09049479356378387,0.202977423728133,0.30210857171938654,0.4104327625334099,0.5208220721422712,0.6434764577735543,0.7570845121978698,0.8193683632448683,0.7464890912850537,0.654902420702002,0.5811415309613115,0.5252523035449097,0.4704257548544466,0.4171760859488418,0.3847230530085253,0.4115705337380198,0.48342564635518626,0.5644800130815364,0.641438865462634,0.6958730721349764,0.708937339383366,0.6948492444819752,0.6868204441296419,0.6808636538699169,0.6454824704389646,0.6018365215326686,0.6168048378747044,0.6747772243595604,0.6742591995049945,0.5862542125375834,0.4714527027017126,0.35589753921790956,0.24172286852374714,0.12694990696137265,0.0331263208270276,0.06550830296637589,0.17619627310666353,0.29595551287613775,0.42096245386227027,0.5459289892546306,0.6648706379566365,0.775745827151141,0.791238514414065,0.7065832736469928,0.6248315388244214,0.5620462897756728,0.5141290322893908,0.45633901118404463,0.40550871391658294,0.39006400629470805,0.44119190148763643,0.5218202187290899,0.6097960659222328,0.6849728738506804,0.7318070638973122,0.7268481610313473,0.7222210258474782,0.7183549553933912,0.7037237078363878,0.6606269457035308,0.6182652579569381,0.6312861621919161,0.6711085143621225,0.6436312807254052,0.537209094404925,0.42289485862459575,0.3066323315334212,0.19154629936670564,0.08486794494740302,0.06462287354468699,0.16293224871500267,0.2825958437371052,0.4021840034966586,0.5188956562131586,0.6408584454698358,0.7296424111517634,0.6899360746337413,0.6083524428301121,0.5392467995291312,0.4813844044807998,0.42858161212503987,0.3743077740767138,0.34442721908680696,0.38174718874184643,0.45148058085015697,0.5378630782382041,0.621418645733276,0.6846584317799169,0.6917103188898261,0.6747244714450278,0.6680155301589852,0.6644936642449375,0.6335940384451715,0.6029421649785056,0.6346416388298719,0.6696607626733115,0.6515472883791249,0.5578778029879228,0.444219497585721,0.3287730905024522,0.21306998642282982,0.09070077164201185,0.024466926128870803,0.09740594988976659,0.21542785172284162,0.33590008925417525,0.4518417289475951,0.5744199156904481,0.6888854630263022,0.789065187806937,0.7469394152935176,0.6433243547723504,0.5621425004789056,0.49757213924938126,0.44404216548579756,0.39116662739689945,0.33645517058400154,0.33227819181831775,0.3939199399172071,0.4707109158745362,0.5579532595670935,0.6400367405213858,0.6889635692564324,0.6782791645780888,0.6952956790461817,0.7185129100769116,0.7313739262794403,0.7030257562954243,0.6246557429450559,0.54327460875616,0.46179207366314756,0.3863538369922077,0.38376123636844994,0.4408623195628816,0.4936627529820319,0.5460165731859807,0.6153414893481397,0.7026183001753674,0.8027672790856437,0.9120729623922821,1.0,0.9556077937145631,0.845714605267283,0.7259343591317062,0.6106381747355032,0.4875202780933692,0.4046982663047798,0.4721408530082156,0.5859936272885582,0.6892243538022589,0.7309259747572909,0.7201230518022954,0.6687103482546566,0.6674829828589899,0.7042217470194685,0.716597165700593,0.7199701293700538,0.734225133481194,0.7442977634184476,0.7154602478328593,0.6499416219242797,0.5614962612122794,0.47986118166740876,0.41578249418997615,0.4070274109722445,0.45717971877105734,0.5139498176032014,0.5672239153076388,0.6404730474385505,0.724756205147354,0.8245982513148808,0.9273381679793284,0.9631206581386178,0.8780796488304645,0.776624795312423,0.6718088119962848,0.5490602990802196,0.43693674148565,0.40190999949955275,0.5031794662563849,0.6145393200544014,0.7003431541302492,0.7260268942921906,0.6933611761464293,0.668494077238285,0.7083817501085696,0.7492459751769966,0.7644081954722446,0.7729417413852255,0.7817402173328651,0.7836214773306351,0.7495640743553573,0.6883707980941258,0.6052481764313766,0.5155880512819464,0.45450220939026087,0.4651026516052861,0.5189601133326609,0.5722774932077996,0.6232733437323184,0.7030804130737902,0.7943319432268274,0.8946612537108156,0.9698853925402093,0.9182708047844588,0.8043692401255389,0.6902662601410894,0.5804893235718533,0.48070494649787365,0.4233206005010315,0.5134247230294222,0.6249652519018651,0.7135257961017949,0.737311817486022,0.7053893872019685,0.6558409097656663,0.6797295458958303,0.7191700142565658,0.7312800199111287,0.7354980232989172,0.7485940662593462,0.7540619731613276,0.7304760969492134,0.6737406991888162,0.5919063345511009,0.5073386406490106,0.44666640062270613,0.45479515488622857,0.5018033497924006,0.5591613768480483,0.6117653558519294,0.6882920762110727,0.7828991964599576,0.8795755610410398,0.9767740177979172,0.9813429782271781,0.8835681542482798,0.7866669996983786,0.6706747649987923,0.558804880411365,0.5659906637954215,0.6656369764988685,0.7194330299762757,0.7190441819070927,0.6672736648396831,MI
0.36530813354267977,0.365308133542686,0.36529713118046825,0.3600217790429774,0.3441790361047028,0.3946840744474951,0.37737422832224965,0.2881662414271178,0.27157223996254665,0.2760759030048785,0.26682173199873827,0.2828187335573551,0.2744667434249086,0.2759947515687937,0.2503064773324679,0.23257817927563273,0.20268171898457155,0.14002268242971283,0.0728284479721637,0.031206319881995626,0.0,0.029318283856519578,0.0842811943017594,0.1462599556732389,0.2123267108331639,0.2711945390394517,0.30267430018447605,0.3070609601959928,0.28732359174271593,0.2857048966783573,0.2688853706149148,0.24592728011220366,0.24697550273052915,0.24628337690780278,0.24697550273053803,0.24574915782648787,0.24894914858149786,0.25466971676347594,0.2594930414653165,0.2546697167634884,0.24895056443769636,0.24716894098158448,0.24568677384039894,0.24568677384040427,0.2471689409815978,0.248890721186938,0.24610654091600992,0.23367691486095143,0.18233401464070464,0.13554596181116008,0.13463220698177558,0.1766200880011617,0.21777131544321282,0.2497208780247835,0.27109625698069184,0.28570595857062475,0.28596331802813957,0.2859633180281467,0.28596331802815467,0.285961902171989,0.28360040344591475,0.2703372994756217,0.3223373420748965,0.4169878383546681,0.3991798965479836,0.29261434432277245,0.21880475350547535,0.23070421373342676,0.23306571245951346,0.2344160457041493,0.24938070016438196,0.2511490325851087,0.2497891128344314,0.22795449896182696,0.1869955608315994,0.12938863007573698,0.07271193875773285,0.03359391267751022,0.022049829485522032,0.04312317689941203,0.10621087744186308,0.1636455481820116,0.22897758848895222,0.28109662947031744,0.3071101550488944,0.3124005875043423,0.312411943830619,0.3137718635813078,0.333569429249426,0.3388488593426482,0.3388602156689249,0.3402204893836567,0.3613779748024557,0.38645497056379075,0.39174540301923777,0.3917564053814706,0.3917564053814777,0.3917564053814857,0.3917564053814928,0.3914880435617665,0.3707225792762099,0.3087086908945498,0.2633824698379392,0.2668272258111415,0.30199986441289806,0.324439319542873,0.35533548912842416,0.35559143272976357,0.33691843383107045,0.31578207631115873,0.3115407510762065,0.2928249008084176,0.28598693434929423,0.28360075741026236,0.2712551322610377,0.3296259649213642,0.4242931718285954,0.3939578319575494,0.27042475393998977,0.19144751272191218,0.20198898804552723,0.26177036604150317,0.32648789864939687,0.44996657371069215,0.579796015857954,0.6913475364147539,0.819335152152787,0.9235138254610078,0.9286469227140879,0.8367421695456017,0.7157253983084795,0.603341802000025,0.4769741349188994,0.38432419424496356,0.3599815931474861,0.36908605671347683,0.3758624101016004,0.37676235902483945,0.39553432855173565,0.4119657696823644,0.42833338911408436,0.4252952204757383,0.3930781749147103,0.37277573114780527,0.352763647016773,0.3813276693140324,0.43974881228094276,0.45512090316492415,0.46052269024880665,0.4803199019528668,0.4803199019528597,0.46052269024878445,0.45524326015556227,0.4552319038292856,0.45387163011455467,0.432714144695753,0.40763856479059335,0.40461638420327617,0.41378309386714207,0.40743255522459254,0.40927025442978415,0.38123771798466954,0.375898444640665,0.3758833643227124,0.3724919236569866,0.3444936293930594,0.29872983362314454,0.23473702409871233,0.17691540078966828,0.10776066763315839,0.09514967929548579,0.131941420406803,0.18863495029731858,0.245928844940015,0.29008405570345275,0.3161042836448562,0.3229658664248074,0.3229905446377588,0.32169082210189526,0.31148814696145877,0.3226279975119031,0.34152925719596006,0.450090346557233,0.582183962616905,0.7143651245934697,0.8369991750387804,0.9438793512104526,0.9631459060242697,0.8707726696804183,0.7525139397600942,0.6361834205506582,0.524115619483883,0.4106310011241563,0.3527746493787607,0.3494405862962049,0.3494391704400224,0.34943917044001527,0.3494391704400073,0.34943917044000106,0.34932089140504186,0.33776865230159725,0.3130121108790975,0.2698680989872102,0.23310496355894728,0.21151262919710323,0.26282250588331646,0.31465040910800024,0.32296551246062677,0.32299089860166585,0.32299089860165875,0.32299089860165164,0.3238658153478866,0.3425775876599566,0.34929585922795425,0.3377977624342341,0.3232482580591256,0.3229908986016099,0.3232482580591114,0.33779776243420656,0.3493318937671406,0.3547296028953024,0.3745271685634064,0.3757688092791289,0.36412332331773545,0.33320200474184514,0.26289584215642936,0.2043720901711641,0.1428481197399254,0.09799621359086785,0.11868605222545003,0.16930048427234823,0.23432798677594224,0.2881998291340633,0.2989066032376213,0.32200835891633073,0.3460646060396284,0.3494350924840557,0.3494391704397666,0.34945158865815884,0.35806508183391994,0.43573000160964437,0.5558539698132705,0.6877196905121998,0.8054115453284867,0.9249204519924215,1.0,0.9281726594019011,0.8178308163658805,0.6893359078282515,0.5773444809662402,0.47204980733495194,0.42992868037671883,0.4287839859545599,0.4287839859545528,0.4287839859545457,MI
0.6455341840214439,0.7120152436311789,0.7701773320628016,0.7923973577959149,0.8371063126126033,0.8436908746636926,0.739222489968177,0.6418573692724623,0.5570202300003197,0.4810916631463318,0.4462988786110458,0.4116302904664666,0.45942012741857674,0.4127708406001429,0.331084890274699,0.2679081528743046,0.2271798324066574,0.19522307098860914,0.1397357433453874,0.0910773060631973,0.0865536010548178,0.13952986925470245,0.2211418922168913,0.30713174551056843,0.4024191069366285,0.5039847218307485,0.5873236643245865,0.643759037982254,0.6669516693033106,0.6687177143179155,0.6656889642816961,0.6589498869973638,0.658820611026194,0.658820611026198,0.6587522798699115,0.6499168520849343,0.6155726588191022,0.5903949557842663,0.5593036088122338,0.5890175782267475,0.6548627617854166,0.6990163513815721,0.7162089727379874,0.7390591032192222,0.6558297777037634,0.5659931893058872,0.47418253652503317,0.410098441310109,0.33073710395494205,0.3065642418036525,0.3623550111825242,0.3162470636938859,0.2345597140533764,0.1724346310214928,0.1234598732850678,0.08130416112826833,0.03586423172764697,0.0,0.011642958375780221,0.07261038344118775,0.1524883438779825,0.24163486146983804,0.32864906530347593,0.4231657471158301,0.5152661391038014,0.5767164285303696,0.5898995634206012,0.5851297179051467,0.5936597105765515,0.5925034277507653,0.5771151467341142,0.5850606721443401,0.5975122574950085,0.5948738371791533,0.555378270124149,0.5245006669953334,0.4972664083426088,0.5263226401517698,0.5961600665129558,0.6671635315723425,0.7221013965814671,0.7659420227342464,0.7956446287204413,0.7125097404443763,0.6071081236368743,0.5202969895145886,0.4516683407551292,0.406756054871086,0.4052908317525379,0.43803141097544795,0.36018636055418307,0.2871800500442885,0.2468539655894264,0.21010517158011943,0.1888955778749799,0.16389009403429133,0.17163536373322907,0.2279176329841177,0.3136549485612363,0.40021166089597626,0.49629511417519234,0.5857442190223914,0.6753688932831108,0.7549313336105032,0.8017621393933991,0.7899245398491384,0.7635582084098833,0.7355337424395785,0.7022278228082799,0.6811483148742417,0.6640890069853458,0.6514748686769307,0.6347401549438083,0.6065789806441013,0.5901554946614276,0.5618693852140564,0.5938044511244787,0.6679097503507339,0.7237092153409073,0.7500198570336036,0.7615153081755164,0.6832439894761895,0.5912415050869644,0.5021090480173243,0.43167719391484605,0.45995042715413614,0.5286843612038519,0.6086719443055424,0.6992272845910472,0.8102888211252446,0.916429974116507,0.9507833964558787,0.8729712393260685,0.8188965866836524,0.7937684965269107,0.7469165860602236,0.6760815381202749,0.6477914862803709,0.6694015344673363,0.7054969778509563,0.7194125459215996,0.7356023425572369,0.7532307391740694,0.7728241747921949,0.8082612748335589,0.834097607939158,0.857869261842434,0.8733576335228808,0.8654223527550862,0.8043379983978434,0.7355003400355553,0.642402098610114,0.555082997216775,0.4556871194131973,0.36268072213551683,0.2857695907691413,0.2521090756740909,0.26209476368723106,0.29860489519055955,0.32856906960985466,0.3822459096989661,0.4675281939969449,0.5496572137839024,0.5607903691072158,0.5495233287835637,0.585075278336491,0.6013798450552663,0.6913823140580746,0.8014183739806828,0.9112959802276817,0.9905533565983031,0.9525272936892493,0.8663284652028129,0.8079813023712368,0.7687897894046749,0.6991641445246453,0.6242653720486548,0.5835442708746297,0.6106937451931311,0.6383467482217147,0.6595580382061441,0.6674066427723084,0.6636132318886818,0.6561817058470698,0.6671115633543598,0.667484643754078,0.6679596395512442,0.6778917991457263,0.6651101708982181,0.6139667080732676,0.529287664458288,0.4459649926299001,0.3529506809395384,0.2664214363642432,0.1740093960029916,0.09960794148318675,0.09946395080522041,0.13706727086931503,0.17795245535611537,0.22414049824340054,0.2839920880916842,0.36601737096111675,0.4573349190079967,0.49462974443252516,0.4790921572439437,0.5171331087388418,0.5848280245706738,0.6738948785812164,0.7818669435968748,0.8943231038936434,0.9573822667312499,0.8978721017396367,0.8073393800720825,0.7758046383288968,0.745265611194986,0.6832160782773435,0.6524629830955768,0.6756450335472208,0.7032155591214053,0.7289207767878612,0.732455913501922,0.7324648892123569,0.7326907731298546,0.7436229997558752,0.7539308059004477,0.7499726980002395,0.7262645176824596,0.6856979687539329,0.6079481667016564,0.5143592605983374,0.42695815558472683,0.33570347223447383,0.24633791085029655,0.17115557614652488,0.17341655396908529,0.22135201681566308,0.27330945652867333,0.3099959462730455,0.3572295063207078,0.4340750750116582,0.5195504888300437,0.5967215952935527,0.585995902926459,0.546141007030589,0.5971797232118821,0.6605509479986811,0.7601098976607408,0.872986838012419,0.9741439505711251,0.9999999999999996,0.9233807547304904,0.8748564788748601,0.8666179862424643,0.8119173325519786,0.7424658206969186,MI
0.831542073040044,0.8150798901089269,0.8060605451732354,0.7971851504481013,0.8104928738693511,0.8241669442827888,0.8295468678690812,0.8344664064706109,0.8490368640903609,0.8576461337248955,0.853106161669483,0.8494713093758852,0.8310983500634421,0.8465119970957704,0.87098640255283,0.9022820371029652,0.9201068909638579,0.8765945829203527,0.8061433524775601,0.742396454605359,0.7322999647991639,0.7145678235303154,0.6466777281007983,0.5799719475377503,0.5030057728306008,0.4232420438736,0.3456928361381828,0.2731682043254928,0.21502359961307227,0.1767516079167506,0.15323540737957586,0.11753045915664972,0.08021145310420774,0.04718006465463298,0.01848283998921274,0.016492242909485144,0.06512617263325193,0.12284346782549993,0.18220787890709067,0.2520152723636886,0.3233779677249089,0.3962843217611769,0.4739066236505576,0.5471161934184254,0.61774934999967,0.6881835740414308,0.7578060529916919,0.8173472633422709,0.8572418710633847,0.8479730864141621,0.8263105142004608,0.8088163121435388,0.7993368758872936,0.8041503750811954,0.8162109981604071,0.8226326726038944,0.8330304770617047,0.8307070431517345,0.8232762114705183,0.8273287986673346,0.8317880124292634,0.8326288578399828,0.8061454504182795,0.8168074459731867,0.8469497165540916,0.874948826816885,0.886146531927503,0.8559304191975339,0.7875199350760944,0.7210631375991241,0.6846521972145203,0.7053186423126041,0.6455618979956104,0.5671091391627068,0.48860075405108594,0.407188968665108,0.33022372029454705,0.2557518309639104,0.1905166766648596,0.15815357469466162,0.13566040120536926,0.10233696704845108,0.06402378787458707,0.029523073405393063,0.0,0.00844666526610438,0.046439510554962204,0.10543871143078642,0.18005805735251923,0.24862396181107882,0.31774925079220084,0.38944600705448784,0.463014306683623,0.5342312094135142,0.6051195450321905,0.677281980699004,0.7519099319771883,0.8165968464402278,0.8493932981752907,0.8487686472869505,0.832783637178304,0.8126465341155278,0.7967374336955211,0.8095760619732668,0.833268418063009,0.8571350971337441,0.8762810051172027,0.8925256550284089,0.8928286099124727,0.905661238142625,0.8900806292532568,0.8866024390502831,0.9034309312553388,0.9288333434651195,0.9561513527009207,0.9381911010795312,0.8721532908203553,0.8020304015386572,0.7553758610365806,0.7772017090780912,0.7301193050662134,0.6530677398850318,0.574820283118012,0.4977469179157825,0.42110893811055905,0.34779763433160626,0.3064636345374745,0.3551247655356622,0.43657317301536747,0.5148100599426018,0.5932650608507799,0.671786751099196,0.7491339076748935,0.8272011363745624,0.9004128218891037,0.9456749756763294,0.9308934169464331,0.9734522131690095,1.0,0.995457550761405,0.9711774123033425,0.9472713489897244,0.9388275526759471,0.9555126044531552,0.951174933510389,0.9421328735202579,0.9227984184487625,0.9061531711864772,0.8790496137721688,0.8594790344333347,0.8546677458709255,0.8721685916015027,0.8946481011404814,0.8997851995780826,0.8855905529113466,0.8381066512990722,0.7744708086197511,0.7068780388987477,0.6337799996585127,0.5631688400118122,0.49119187130034003,0.4178964392135942,0.3465827486414421,0.2689479199520699,0.19957606055325772,0.1315825226858749,0.0740264701449369,0.044089626670577475,0.0660293452208256,0.09838161959577985,0.13956418999884512,0.16852964300094553,0.19777015887437477,0.2280689527737807,0.2899224286740629,0.36930500046596837,0.4554444487418685,0.5381671933301291,0.6149889413536158,0.6914091208282824,0.7680603639873538,0.8457434841323033,0.8969762139370143,0.866114666692809,0.866313145579928,0.9211821103302471,0.9378383772445651,0.9235127163878967,0.8978835961540419,0.8660886022931371,0.86615334777989,0.8836593051826305,0.8768281214273324,0.8716952358361354,0.8742398537667886,0.8758719203982586,0.8746637590294832,0.8681170883306892,0.8554177805431236,0.8436069576112333,0.8445720383090625,0.8682826216151045,0.8845223084754208,0.8977487271424693,0.8979381658444736,0.8577946218115535,0.8021444435164269,0.7362856497385817,0.6649704350146204,0.5886423032574111,0.527630659732212,0.46059344665120805,0.389427962330291,0.3207956490155186,0.2478067002860307,0.18045964724871544,0.1207724890204589,0.06685873372563522,0.06039426110057522,0.0944371072061021,0.12766305928163857,0.16697434672834266,0.19735660654542575,0.23286090598069253,0.27929736043412823,0.34893507966316073,0.42971593909661054,0.5076288605157606,0.584411369800337,0.6495561707402588,0.7198925625524812,0.7973470098998852,0.8769039266673584,0.9384348218810428,0.9165551428688978,0.8656953522627111,0.906978033437476,0.956500351482914,0.9643454060433108,0.957553066480672,0.9216634580276075,0.89663047025397,0.8801745043278384,0.8959049080023829,0.8976063800262368,0.8939435977429473,0.8905653920092629,0.8765181095082526,0.8778024203699664,0.8696355303199352,0.8582816203617929,0.8451389696181408,0.8472019700167719,0.8669817516211933,0.8852615730520306,MI
0.46681435615912514,0.5172575592342255,0.5481901825287467,0.5407934068553795,0.5414709627398211,0.5240791833896181,0.5298768761622887,0.5322287968399531,0.5322329502485723,0.5322330801147235,0.5328791665633501,0.5451057854129049,0.5503119855418603,0.5416169955781469,0.4974596103654738,0.4668585721887095,0.4506832769986935,0.49073010643387827,0.5401983659585579,0.5738916585578422,0.5682492512927175,0.5703458976032825,0.5626611814162823,0.5751033038907991,0.5921394652065617,0.5347731713959041,0.44896237687052265,0.4186050170395679,0.48701696119200477,0.5805202306411394,0.6782455761510495,0.7765913435840113,0.8494282315093047,0.7945151234339676,0.6991557573839979,0.6055799039377363,0.510680666491083,0.41565232557317655,0.3338134042072829,0.2845676847042977,0.2538440265844648,0.21460555848118945,0.17252563408621668,0.13576157815349088,0.09281628127734143,0.060435974403051596,0.022447725337497726,0.0,0.02427570283125302,0.07209722045895672,0.1351634287287169,0.2061579804590692,0.2806127705114094,0.35991383895672824,0.42924835482574863,0.49603312003601197,0.546745607380902,0.5667556981343793,0.5554778077213727,0.5620057089188899,0.5609459606807126,0.5543738679340184,0.5430963873333554,0.5325282004494989,0.5322612667355946,0.5363526532834082,0.5428771572792255,0.5474671327444183,0.514332779101403,0.47583745374883835,0.4410206058938204,0.4553500818324254,0.5165361746513346,0.5513719538473207,0.5724615413847034,0.5862420715834338,0.5867226543789168,0.5891539178512959,0.5655393520600422,0.4754269482638085,0.39878493817562877,0.3902015476531089,0.4656962657040724,0.5649198378814284,0.662958125913184,0.7610397032974925,0.8288912701076816,0.765525499552496,0.6590952744192546,0.5652997791227747,0.47768307079237937,0.39189326394941526,0.32221933891968657,0.2715624492799211,0.24082452677965627,0.2149929176529981,0.1954868275497188,0.1604514979737881,0.12427726337691203,0.08025255667569109,0.04516330949397007,0.04638904663496568,0.07964714289374619,0.13819223411571535,0.2070425346067699,0.28605944615474943,0.35887098180729016,0.4279817118199909,0.49226966106622694,0.548172391919588,0.578368246014592,0.5828534771233933,0.5693331372479697,0.5572472084208364,0.5496464204944282,0.5369023377479678,0.5322568130246008,0.5323755582194258,0.5408225118093073,0.5499731659962057,0.5342158928696716,0.4833427123477838,0.4516258296152804,0.4369187780520143,0.48425467044334347,0.5294635410427824,0.5581535957557793,0.5831693098024875,0.5986358802310425,0.6282337513662606,0.6280106606057374,0.601828539916939,0.5725178612751756,0.5315104215843016,0.5197477875038845,0.558317507062541,0.5900607377102216,0.5939646769707263,0.5937325342592645,0.5842990083860755,0.5874987885209468,0.5940404848186676,0.6023240670390555,0.6136141254133718,0.627556592844658,0.6332378408548771,0.6424557782718305,0.613324578587843,0.5734221689515948,0.5169087675639652,0.45328640115018715,0.37597402010665215,0.29825600715642464,0.22875244474064838,0.16155176183023867,0.10744868325361434,0.0969911088548896,0.1340776467128082,0.1761422455109094,0.21286521239914213,0.24834019695941256,0.277211229732341,0.3031092304271672,0.3442337292540465,0.41109405361440077,0.49594778738377965,0.585627704745947,0.677289073343625,0.7741273109775606,0.8707022006664564,0.9553832114552221,0.9747917974145279,0.9056886479329309,0.8178483705838309,0.7201065781562881,0.6344918894255125,0.6477758755482323,0.7089943806017489,0.6816487061536582,0.6494406848005889,0.6482057059676087,0.6381878512791839,0.6226764597878542,0.5968212908521027,0.5533329498662023,0.5166296734752738,0.5364975550696958,0.5879884486037263,0.6112341671206525,0.6035789518336521,0.592482688631975,0.5853827469297928,0.5937000909368808,0.6006345429363487,0.6117842054526843,0.6183432059126108,0.6211241167281734,0.618546427514687,0.6204481002302242,0.6078826230223338,0.5766390223471962,0.5205273105671093,0.4470647647013233,0.37300826398965503,0.3021413874534189,0.22934921905136996,0.1596136022532728,0.09450380605292841,0.07083112847268369,0.10137103927131852,0.14080557464926757,0.17415234490887732,0.21568786022102504,0.2556789446965486,0.29502335848557326,0.32717250631035233,0.38015162056720353,0.4598818720203046,0.548403943199999,0.642709758590831,0.7362167228831527,0.8416503051779385,0.9363360828840057,1.0,0.9745698497658899,0.8975169368425848,0.8000676240777911,0.705877323095355,0.6160197253743558,0.6462251171549886,0.7154231144122449,0.7094971254725264,0.6531137899111603,0.6314328379219925,0.6246854974441161,0.6283972479728468,0.6176052250158763,0.5823526246933981,0.5435284738663726,0.5319190071670463,0.5731906630437238,0.5951654958429731,0.6090422184724269,0.6002329658352177,0.5938780746150614,0.585927008212483,0.5871143340650589,0.578459037900795,0.5840343552956768,0.5785996282011578,0.5852573222953632,0.5939848111322927,0.6023885464704404,0.5961001840352416,0.5628505497776297,MI
0.6149162197736782,0.6518550477045288,0.689206500991296,0.7262387613519099,0.7552092424156847,0.7602766683042503,0.7293517084927417,0.7442611811814994,0.808186358306195,0.8420261613989508,0.8100177128849038,0.7237231919528893,0.6354760603280043,0.5529623802632104,0.47277316110949097,0.37843370323458503,0.2860450024242416,0.21988527236978173,0.2621712261503233,0.3591107752472904,0.45430869858303424,0.5448011308863887,0.6319942344981653,0.7121575712082802,0.7601851624212417,0.7404670477939308,0.6962726309559928,0.6506075024288067,0.6048252634832305,0.5891279693559808,0.6141607054929055,0.6636657861788438,0.7250211037612688,0.7915832443099662,0.8340441913648617,0.8475561828838973,0.833101723508161,0.7979417350119564,0.7991609227690595,0.8399633995753,0.8862509059385273,0.9211816545245592,0.8596689348548918,0.7572591724290962,0.6607761824684277,0.558225286550718,0.47289132968394476,0.38956584902127633,0.3009429265982104,0.2843152495665775,0.3657086558874141,0.4645043255768406,0.568324651360169,0.6608830931211709,0.7519422293798046,0.8349567106221141,0.8612568204373536,0.8064213746428073,0.7431796459225377,0.6839964288305596,0.6331794034058733,0.5821946366694728,0.5284949903220246,0.4891735522166847,0.4816161268747743,0.5228373121364007,0.5655199753957907,0.5787311188976536,0.5435583659789216,0.5025544476340318,0.4924886794367578,0.5319835810420475,0.5830369721779507,0.6213524796037639,0.5896800538855125,0.5105139054537786,0.4116506877494066,0.3130462486472456,0.21340072705968693,0.11698867179687067,0.0253409004031937,0.0,0.07962130055166061,0.18083945182833516,0.27774099195792146,0.3771325107307455,0.471013298519809,0.5615786012076445,0.6462144435297312,0.6887683372901745,0.6522576438042473,0.5977426509918338,0.544173297629218,0.49020052980184237,0.4507397442166243,0.45502954562632447,0.4943100909720768,0.5499157948285607,0.6122576372176662,0.6654657239123731,0.7096149940335841,0.7156287618235049,0.6940798456158901,0.7073483285651991,0.7513015423390033,0.7889203086988723,0.8303679241899782,0.8057976202059378,0.7111257566533955,0.6113623324979525,0.5136525947272521,0.41230862592558815,0.31650564647493606,0.2924281595645466,0.369129387636725,0.4663271059625722,0.5615132949943862,0.6540789798843802,0.7441518018374556,0.8349827432232333,0.8958843302312629,0.895082650108578,0.8419987712377983,0.7871875041174254,0.7302484481685259,0.6802650141085134,0.6514259905024957,0.669849303358609,0.7150109745933455,0.7650973462109181,0.8128003138950399,0.8518495227746219,0.8885779990363663,0.8892393012523878,0.8533016775712299,0.8064859123687698,0.7571780767008236,0.7101942297342942,0.6996017019268641,0.7375021351996298,0.7925336790455706,0.8517056898982802,0.9018473704686008,0.9646887591267275,0.9686272711197126,0.9137191429366127,0.8428319549265644,0.7570108507968452,0.6685639110493982,0.5773655537596909,0.49936305309461826,0.5391231409104595,0.6303998153494388,0.715249871773866,0.808758094829225,0.9071966774394471,0.9349217064287001,0.8758151631610787,0.823667010288688,0.7847095694907393,0.7466035222895422,0.7480887529021585,0.7522473240824481,0.7234484318036585,0.6766170812556198,0.6184848858965504,0.5593810670830079,0.5074601428305694,0.484796741855102,0.5185155196108937,0.5737529368777847,0.6272899043728681,0.685167546184883,0.739707633802174,0.735022856334699,0.6914330299003111,0.6274931915231419,0.5397138915747866,0.44831458800927826,0.3525017435152531,0.2754453598705249,0.32967033345368857,0.42638618230442815,0.5276689884970147,0.6244733946838925,0.7021582252358236,0.6852707355964527,0.6394288077833847,0.5903199986806713,0.5442769966493746,0.543298446990055,0.5851631439611296,0.617085123296945,0.6049388668082902,0.5664607141629325,0.5267085864486223,0.5363154799848635,0.584268677476594,0.6408686618576958,0.6888264550829124,0.7433750340056511,0.8074195364429997,0.8732138052948701,0.9261018959221614,0.9098015646375721,0.8560032446728245,0.7663331355277827,0.6724321506305169,0.5807444420113737,0.4916596148868315,0.4942955614994906,0.584792781599047,0.6746127653218976,0.7628979865530328,0.8619704329850997,0.9563516961973657,1.0,0.9634254709662762,0.9143527187733134,0.8670619435785345,0.8424706240758217,0.8699067568296805,0.8883359508216957,0.8774765856820097,0.8549948739406283,0.8022941488648261,0.7340403130629567,0.6798153899283981,0.6339160418269503,0.6372804678591597,0.6871088992166245,0.7296151483461224,0.7782868642537268,0.8210205427272075,0.7954075130961566,0.7411331212198387,0.6650528207775526,0.5772720672476916,0.48108622524947675,0.45187163912604844,0.5359083262959863,0.6348132551720036,0.7320301078749178,0.8274849133519835,0.8772255121813153,0.8862035329244904,0.8639755422705262,0.8017701377164057,0.7749556190907505,0.8048035188454135,0.8032155185045844,0.7691309341952093,0.7382242695893106,0.6986250377719743,0.6604967107281117,MI
0.5370824619286663,0.5508416423885434,0.5382708349949685,0.4332075591092872,0.3075083689078859,0.2503307429888362,0.2066370627376486,0.11089713534346579,0.04900618542098867,0.0,0.04189528699739009,0.1486408516987887,0.2928517649611049,0.44167715959475773,0.592733385907132,0.7337863888980243,0.7579379772502866,0.6388228664900053,0.5296662065617799,0.47267096344665527,0.39233856602270034,0.2749736841330339,0.19041048779195968,0.1304776640754297,0.06813509163010467,0.03935453229187802,0.0948072174803376,0.1881618142128887,0.27672996581328,0.32728390146136865,0.3938726592371973,0.4704200035696058,0.5073246077201228,0.5286606376426168,0.540408118284041,0.4577350847160009,0.32273940229571085,0.20802769345154726,0.20808121353845888,0.33301016825980634,0.48743521488143937,0.6340405738109873,0.7494075422379725,0.6833608019473751,0.5626099986008155,0.49868145555594934,0.4508375010301342,0.34909341564568663,0.25111356245785377,0.17693482077303724,0.11438512269942347,0.05749505099950003,0.07280002515786155,0.15772061124422576,0.2461596715117378,0.32036402026837063,0.36206630365441983,0.436050841719116,0.4963426381470808,0.5347128798194727,0.5551233961697228,0.5452054054216102,0.4504793437398802,0.3061495574866666,0.20762462783622482,0.2591409556140163,0.3970693075606291,0.5526207693815888,0.697001308742558,0.7934465832199127,0.7001702168610033,0.5724127160767836,0.49408356308344503,0.43905826853008634,0.33326543555801535,0.24760748286692946,0.18306385649430013,0.11266623249518615,0.060370493162619,0.08197468942727504,0.17991943848843484,0.27412004132053536,0.33775303426251213,0.3780271023578057,0.4526145195504161,0.5261955725838878,0.5568786333142781,0.5739266095722342,0.5724556457570054,0.5015282217728463,0.3715129993438042,0.2354875023038021,0.19082371375609064,0.30651179198768386,0.4527902595794875,0.6041079830315161,0.7310948989963837,0.6920064724075621,0.5642912307964973,0.49417672392789,0.4309964372552262,0.32365143439510113,0.24156285003341926,0.1803834443502894,0.10984068094610588,0.06086605296549008,0.08634527565945405,0.18390281104351924,0.276032165099938,0.32622510157057727,0.38383157700244386,0.4611937552418208,0.5062709131396281,0.5458797969301163,0.5627540185163071,0.5194355721320072,0.4041315389500193,0.27130469098168675,0.1729158342321666,0.23257264621650986,0.3731006944302231,0.5274736169582477,0.6719540358736249,0.7887835719090632,0.7226927790750395,0.5959873568632084,0.5003835275801731,0.4522313006470209,0.34854615513241205,0.24037380544946352,0.17568628514944873,0.1812271751422272,0.2513856388473492,0.34148498071165845,0.45437457132041636,0.5350711005718094,0.59037215755707,0.7193753530835951,0.8501517733581339,0.9561039250218033,0.9271543158874604,0.791127879193374,0.646557096894524,0.4951799608911087,0.44499828706799605,0.5507541404549396,0.6123287857206408,0.6263386713486319,0.5971857437125276,0.5662663694709518,0.5421948133456134,0.46247924711765576,0.39595258630577446,0.3518211147106518,0.2690508217829062,0.1709087011620669,0.13002961327891915,0.19102216071381362,0.25473138995050526,0.3280829878985294,0.4338905943200153,0.5317972427493496,0.5590338495059659,0.6449410518788388,0.7627583920577594,0.878435024566147,0.987876847603721,0.9631429225545993,0.8309447465886546,0.6818915742137204,0.5380193674854077,0.5256280882959636,0.6237360867170794,0.6373520369107237,0.6307605287003897,0.6037283308615198,0.5656413386272465,0.4910463711387316,0.42842048687388523,0.4151835219024269,0.35488194440367193,0.2663726941058786,0.16552840135523939,0.13191375122639126,0.19456420571019706,0.25940477818405316,0.33614462545479507,0.44557099051220206,0.53698812010586,0.5655894325204711,0.6580914956449382,0.7859987798401669,0.9173531903403092,1.0,0.9199591921700971,0.7765592150755207,0.6322243118615622,0.4890258019004903,0.4879551687256414,0.5793459499295395,0.6204264436454627,0.6100932738296927,0.5892205871517264,0.5587339554481225,0.4936593319340066,0.41799656626864046,0.3767365113172496,0.3108619879788934,0.21827818049623327,0.12910563295009592,0.12394942691575483,0.1948226136448321,0.25430237208892503,0.34613066893383637,0.45695709490269465,0.5353352424061382,0.5908605418175017,0.7081905530810046,0.837932026317894,0.9566376211378951,0.9553777261700316,0.8264571381853898,0.68153369507304,0.5320568264065737,0.44925240843371084,0.5391900790883692,0.5937120673752405,0.589481948893122,0.5667642461121813,0.5359528365887449,0.4752570630988986,0.39768784138887003,0.3479510588794592,0.27654757756163306,0.18571882811339657,0.11330155098427319,0.1413987080300636,0.2074848741274371,0.27237792544793527,0.3748105370886261,0.49226844387819124,0.5486690027895591,0.6295740471607147,0.7578266674057361,0.8898630033580832,0.9927481712032655,0.9572986212330483,0.8225156635078497,0.6664719302046911,0.5107739388226102,0.4522414747469474,0.5368166292960512,0.6052645710594042,0.6085289867460566,0.5927359205213585,MI
0.7360978547613425,0.7655068989499351,0.7837955116735414,0.7844839884615326,0.7433982515483525,0.686882141582741,0.6484450161262095,0.626371877266808,0.6317314965076107,0.6292300555669302,0.5729326628948025,0.505734120312845,0.4425831355704526,0.37762971352111585,0.3099874043890647,0.24366796740039343,0.18144327562788432,0.11444099428013144,0.0474901303018197,0.0,0.026017011588184313,0.0864034713276729,0.15320945287837828,0.22089268069788492,0.2881162791590681,0.3505760334089997,0.4164455099108231,0.48411899997580576,0.5518048055949444,0.6194906112140827,0.6871764107720552,0.7547031391875149,0.818177542813041,0.8809955990862731,0.9048951805476838,0.8799095802303399,0.8668228508188752,0.8658793501083138,0.8661858392940968,0.8461132171877156,0.8145763672574801,0.780291728520952,0.7425608702171774,0.7219137182411891,0.7345223018627237,0.7416254207476926,0.7463008657590938,0.7527428027077138,0.7617084769386261,0.7644390021044275,0.7547860850554459,0.7400764152833702,0.7179810076965415,0.7059693232230796,0.7243050843132769,0.7494861605959434,0.7448385470746218,0.7317441918154696,0.7206010851171972,0.7409038487780263,0.775756752893448,0.8008247240040366,0.8252561162779702,0.8019974609679484,0.7411614863388379,0.6768342555442118,0.6125761114474843,0.5488477436054844,0.481289291085783,0.4140212587583235,0.35146795211082316,0.28573354364637293,0.21831462463078033,0.15873664204983517,0.10325850964844618,0.05238564440245319,0.07463295133157188,0.13928190346917257,0.20167808808955479,0.2676590034035413,0.3353340431117958,0.40300854152217924,0.4689728997847523,0.5313831495144633,0.5985604893856241,0.6662457016809727,0.7339315073001108,0.8016173129192493,0.8691899751044284,0.9276882439742432,0.9272095430182504,0.8962466019770458,0.8741807012999795,0.8591580871404424,0.8509105805622953,0.8409715084420054,0.8103181105634215,0.77528777427255,0.7401655435218756,0.7300804369836794,0.7509424998547186,0.7685714346922224,0.7786192429152831,0.7857965488382376,0.7842979035692196,0.7825049176937903,0.7811257260665941,0.7801514316151333,0.782453372866195,0.7813126591143943,0.764178358610705,0.7534819883977365,0.7691508779433854,0.7913183123888862,0.7955464288121202,0.7723269454895622,0.7134273730030317,0.6514201692313367,0.5852083255956356,0.5216983701881027,0.4571451136344933,0.3895180634637092,0.3219898070785474,0.2584839836041032,0.1939198626650056,0.12630151449694071,0.06058875737993774,0.02272967263331377,0.06058875737994085,0.12629920519131987,0.19309001122442326,0.2552628100405483,0.3218361283778174,0.38951806346371287,0.45709103816778296,0.5209600453680766,0.5851417314847037,0.6527429548052558,0.7195324387064493,0.7746029266604723,0.8334647385853616,0.8894157260692229,0.8836757226654331,0.8615070916850615,0.8519883152186073,0.8476489049209043,0.8420134739075277,0.8596125813227095,0.8686250081662387,0.8757133929378037,0.8890792338666594,0.9230520858706245,0.9615622867779431,0.942201464493864,0.8840778097527501,0.8211576270221596,0.7637121311737175,0.7039249040254675,0.637904887849904,0.5860488396454938,0.6095781897996483,0.6743200022081645,0.736386016619574,0.7939839796854068,0.8184937706173417,0.8185614709957391,0.8053077474265707,0.7820743572211016,0.7842197194521573,0.8026613220064903,0.8064537756023625,0.8031873126775967,0.8039501676964212,0.800682536793284,0.8010573128120467,0.8071553783243962,0.8089173142047542,0.8006778025568636,0.791631528823478,0.7751120434696955,0.7558134357846545,0.7757898851793913,0.8126148352018198,0.8460822683162189,0.8674779562780329,0.8753242047479731,0.8855812639244044,0.902348180945323,0.9310453296932505,0.9734607890351904,1.0,0.9598046505628085,0.8982087956814052,0.8329073537218398,0.7703417680054344,0.7030660417439217,0.6357766563262027,0.5731844955584114,0.5091052678012096,0.4904575062532568,0.5493817127085596,0.6157951344127949,0.6779768221411601,0.7431213671508753,0.8037763221311832,0.8458555964946081,0.8436111028936749,0.8161279220082335,0.7927313356298679,0.7563708529734848,0.7486698222340286,0.7623772493352904,0.7722122673828139,0.7658451687493383,0.7374974193384177,0.7406562754457792,0.7628736662484753,0.7777017095886788,0.7830295950977383,0.7915597871341625,0.7863100425870192,0.774630640624487,0.7715157044742148,0.7679032951220678,0.760034707142445,0.760062521143937,0.7935832010621268,0.8277290205779487,0.8597271655454336,0.8834528986313682,0.8878905304308845,0.886686796531215,0.8959343812018182,0.9252766169267351,0.9618758250433083,0.9376152801338099,0.876779488714495,0.8142166819122706,0.7469056150190602,0.6802611497238756,0.6181169204562115,0.5513601880035123,0.48367937910762093,0.41898901204925254,0.4129452959996931,0.4730182472320218,0.5359440529029631,0.6033077246650301,0.6678296288037654,0.7307721412323654,0.7888101204215573,0.8141696802330712,0.8094950719162778,0.7928493329124068,0.7677416722630707,MI
0.6338477630247565,0.6185250778034415,0.6242987723185762,0.6973988182924229,0.7935088921158346,0.8601617678183815,0.8007143789423883,0.7029715102564746,0.6104741115896544,0.5248770647088059,0.45580078796227674,0.3952919241341468,0.3204333598381628,0.2441664584897154,0.17155057750926095,0.09561718630728411,0.029497392950959433,0.024158933984144815,0.08893381479463902,0.1707425289518174,0.25809895934255556,0.34417650967183144,0.43491519032137527,0.5183857968599157,0.5769061548555747,0.5987857512744235,0.5741751292534718,0.5241950092720224,0.5266233411954166,0.5667171464876564,0.6068078308512437,0.6207110265588516,0.6267804664890204,0.600601770515468,0.6502190644700692,0.7450475927279996,0.8383245828916697,0.8412021992697771,0.7474626603942287,0.6510729456061406,0.5570238378248247,0.4842924635899819,0.4276485771275871,0.3547317561368797,0.28107336755312007,0.20838531967256047,0.1299683833098404,0.05784699779750224,0.018753271583830777,0.05520593987470823,0.1304292952682513,0.21437179791124894,0.3049679122578126,0.39776416378804047,0.4806266234228955,0.54810160215558,0.5777723677844815,0.5566561251046367,0.5035472719553367,0.479446703992672,0.5272355720338027,0.5752524036146194,0.5936214168258713,0.6000924263422149,0.5854904576657849,0.582897780477075,0.661052575979129,0.7570580833618132,0.8200063792576326,0.7485459898950579,0.6486715889119514,0.5582918550840072,0.4804059086765404,0.4197836065934428,0.35483411838253054,0.2892408331352512,0.21314771705995494,0.13549466961285028,0.06457015539551314,0.02085558751380856,0.05205894297717428,0.12479145075545839,0.21492873533225687,0.3058011720587619,0.39090065431447485,0.472559174627353,0.5396888706260068,0.5697670197962657,0.5743272456530932,0.5439416542751285,0.49684549150824786,0.5141465895416077,0.5728768402098039,0.6088479054001037,0.6238763735697588,0.62723869489884,0.6106181591897357,0.6085427739080953,0.6966564633930514,0.7934860782548911,0.8453846283255664,0.7726781424584881,0.6772771546295107,0.5872842360854333,0.5049611829082599,0.44027611256934174,0.374551950132048,0.2970352721627272,0.22024452118788562,0.1441903553095505,0.06650817491972827,0.0,0.003056688919743644,0.07494136076248958,0.15810358870573293,0.2473362376201116,0.3368304793412349,0.4245129926843485,0.513133180893663,0.5768288034424005,0.591910998281914,0.5631427445391912,0.5169148350744734,0.5430626010077044,0.5984299172584464,0.6466432863695015,0.6800634350998824,0.6573973139792901,0.6096375980534168,0.5802063424431836,0.6151804276370796,0.635964454251396,0.6232647234310926,0.5675663715856416,0.48783686746131405,0.40501474094233636,0.3311815699990597,0.2461964547894433,0.15529503580272408,0.07050200539132256,0.052328120721296,0.12013604975012626,0.20170659588647877,0.27877599980216883,0.3535348191364338,0.4261891552367323,0.4890893012215112,0.5569886586850492,0.6474879155409381,0.7440788770055802,0.8441381961993755,0.9397266407269287,0.9737468337421475,0.8984099143789961,0.7941330342836292,0.7114779781979834,0.704217620558667,0.6741347122086103,0.65888469796367,0.650146463829453,0.6148065361485462,0.5692963190159892,0.5697349973305204,0.6111769313785231,0.6144635932616329,0.5988980670539119,0.5474126156291224,0.47353179580624616,0.3881610749177953,0.2959634196094876,0.2085802794632945,0.12544801344052248,0.07588418778121464,0.11936935328066389,0.19116373917353058,0.2648737844281577,0.342711641108552,0.4081712904365724,0.4705845261558621,0.5375212925385964,0.6215324083806624,0.7156973943477518,0.814862805878708,0.9109260640823078,0.9398613424291247,0.8663915765923407,0.7860354179710844,0.6976170249172133,0.6629198421306439,0.6518735617209148,0.6351566036731486,0.6289064715156485,0.5933176300935354,0.5476388710697093,0.5606160740913246,0.6037420254812793,0.618848256799942,0.600812770181669,0.5488783849610148,0.4697612099993953,0.3818004133378272,0.29453388087368193,0.2077293143412402,0.12512259480127352,0.07290461968179152,0.11537245523796957,0.18898134626002738,0.26929850447865866,0.3428369707334311,0.41432393259771416,0.47961758058585025,0.5412113708372379,0.6216531700204557,0.7170937389436589,0.8229911955193279,0.926005462319798,0.9988530709656818,0.9631619265233042,0.8703486028700582,0.7706652180841411,0.701724668386515,0.684733464320578,0.6560699361928983,0.641592025328444,0.6072280466383844,0.5770184354458525,0.6015674116818164,0.6349892776348947,0.6285034300355763,0.5955249911020566,0.525836854043177,0.4440441432800455,0.3570807693524056,0.2837991737881822,0.20177419121757723,0.11491175456349256,0.0694408913942024,0.11893589972095331,0.1989543636760951,0.2731924900875107,0.34560071724868213,0.4186315698452283,0.48163963806425736,0.5485769498779427,0.6360626764980606,0.7343772674840578,0.8222798090391144,0.9131442556908604,1.0,0.995066935439274,0.9046890352234325,0.7998657136772911,0.7142065375845172,0.7054627742405053,0.6759660691470022,MI
0.0134955721817831,0.08174072329585824,0.16501629588692124,0.24852129302097303,0.3280536285702871,0.3280439278497722,0.2855038797582572,0.3167013093708291,0.39335634689660504,0.4773518702921553,0.5672155763883224,0.6600348665663187,0.7488521933232613,0.8236954689569718,0.8790856247199446,0.9155819109365453,0.9211383116734475,0.9211286054457744,0.9163200196655081,0.8905276690773456,0.8648938569620639,0.840241347070656,0.8217819476262882,0.8040214636841538,0.7879949716838182,0.7759458309523577,0.7649548964145927,0.7600287817248343,0.7705860150071033,0.7657012084364654,0.7309792942002811,0.7181618142959492,0.7645229402088982,0.7927936168285776,0.8145358936532303,0.8201114363328292,0.7467144176017766,0.6489382845015421,0.5463466427303545,0.4435748441223448,0.3388864718249809,0.24017105105142322,0.1866936868677156,0.24274497917896376,0.3472395500155607,0.4475069083859937,0.5565273380162012,0.6392691157050527,0.634177876202032,0.6570886079001101,0.6355646382524336,0.5959542079630111,0.5435929019200456,0.4897052721666295,0.4264156058454849,0.3600982740889269,0.29619459314550856,0.22501334942314521,0.1531763258645631,0.07863049210278938,0.016369718131326705,0.0,0.05020149445122302,0.12553649204395168,0.2109057877015661,0.29642530663455124,0.3893567641929607,0.479664131675523,0.5494041023452292,0.6300951128984247,0.7039246612578327,0.7597404751078245,0.7981576578750311,0.83361097436498,0.8393705777993179,0.8093078533391185,0.7754884870216245,0.7460474041807332,0.7267388688155867,0.7270109506875273,0.7335732353310207,0.7336877569877638,0.7362671563280783,0.7478378728059742,0.7493814872293236,0.7516586912655856,0.7406045589130179,0.726320216147549,0.763159006164229,0.8177653224411747,0.8655371982719258,0.9015737556606158,0.8992130853619056,0.8204668951002065,0.717857332615957,0.606272064615081,0.49515881084407676,0.3940549489615708,0.29183060534482275,0.23351618884889014,0.2849215369515563,0.3832943685864607,0.4914591327271727,0.5916625118130607,0.6761575502155659,0.6799288495497833,0.683393876879125,0.6386533771819871,0.5944768757796108,0.542004973404302,0.4832301352628443,0.425360014260332,0.35662186862252554,0.2829589639256156,0.207004401504435,0.1336621729765728,0.06513541159926084,0.012007031863979778,0.01528586925566966,0.08960039404738507,0.16904867122733602,0.25296494161343963,0.34020921082589295,0.430744722868162,0.5195031183850385,0.6129013560576437,0.7028143092399599,0.78672388567343,0.8648439607319736,0.9217641405267942,0.9478621281138495,0.9368651219118886,0.9257812747082061,0.9523181138940138,0.9836887719652441,0.995763449968667,1.0,0.9795013058696136,0.9342742320015467,0.8719252653313534,0.7871538487897238,0.6958645052700558,0.6101970893695277,0.5232362258616665,0.43454132986422245,0.345047377780098,0.2567062774654163,0.16783395059662665,0.08678797223108825,0.06129978987328166,0.11515067885012464,0.19197287709074606,0.26864707617673833,0.3395435248926719,0.4111307170379277,0.4758412518175801,0.5326297890145089,0.5897952216024311,0.6440289949803368,0.6872110969178307,0.7289028104679338,0.7490359733728291,0.8064467075231048,0.7991000288806771,0.710327818142245,0.6090030897681875,0.5410710758280985,0.6111538397496519,0.7194439755356368,0.8149283878371247,0.9100816762046855,0.9868873517931065,0.9743495649011971,0.9470392742050215,0.9054140818263048,0.8532540585204944,0.8029024013197144,0.7799794090644174,0.7993584906941824,0.8021136567973239,0.7931736519614336,0.7854288249107082,0.7737602026225936,0.77118436565515,0.7712543527355851,0.7777310519422738,0.7986358401798874,0.8221298534613757,0.8579992717393452,0.8913009690951781,0.8927722672157392,0.8676775404530161,0.8340074096751335,0.7873820765240525,0.7258104260803271,0.6513839579076754,0.5582120139647602,0.4681118132742297,0.38098739574826546,0.29387428235629676,0.2094688190961853,0.1264346163878507,0.06147460043372632,0.09047709455603048,0.15962102173553827,0.23111930787022228,0.3068850141574657,0.37500839156792454,0.435634266332126,0.5023080395948787,0.5593827100984923,0.6149528386552827,0.6580773224405383,0.6947079497158355,0.7060338158663879,0.7361556827813565,0.7881233283361904,0.7339400800355063,0.636669538656851,0.5388284112418691,0.5486468629516672,0.6501454978367134,0.7476491936459992,0.8414106663914667,0.9095352867533579,0.8862404970432816,0.8576456378274315,0.8330247488344256,0.8039814829036533,0.7853447524262083,0.8114950260598097,0.8154721422571378,0.8061828879845248,0.8164007749436588,0.8239379724948641,0.8376488263536488,0.8516582512599049,0.8660761001810999,0.8912804716132996,0.9153186312646024,0.9442402446802287,0.9681439794401823,0.967037768150897,0.958871968223789,0.9577036057026063,0.938660997661946,0.8979289167972846,0.8323383280006724,0.7453675824009256,0.659675252003793,0.5771399529241865,0.5514186325510169,0.49911143341601827,0.4133922606397138,0.34040843132050824,MI
0.6870861107463917,0.7283800041555782,0.7709068403198788,0.7871370504818835,0.7481402564685877,0.7360083395093682,0.7966314867423865,0.8634969218533434,0.8962884190899251,0.856628289456295,0.8204540159091352,0.7936847477219908,0.7618117334031939,0.731598906597046,0.7216482670211349,0.7481694739227184,0.7636389936032446,0.795966073175452,0.840667585703846,0.8824808453828891,0.9028694592211731,0.8972216399436129,0.8832211655402499,0.8814071364360764,0.8966740842583204,0.8960269621448523,0.89590530344817,0.9166875249733605,0.8942135309636873,0.8281334983039762,0.7613711595576719,0.6909110363832077,0.6206908524411987,0.5538574823767652,0.4832516742060823,0.4150770283251364,0.3466602236392049,0.27545326884166377,0.2068393789092581,0.13896266559489487,0.07701088859423669,0.08300820296047987,0.14673205164805483,0.21459803681836556,0.2858044170284696,0.3571554366861809,0.42850645634389195,0.49985747600160246,0.5712084956593136,0.6425595153170248,0.7138174559334991,0.7820821305355605,0.8502565255135134,0.9048956857168119,0.8854973358133283,0.8502200563970886,0.8310778191153331,0.8072024018543269,0.7909360312011445,0.8095391370410718,0.8510283656110066,0.890872430435193,0.9098142277922129,0.9011894828435224,0.8887996157152928,0.8876127928398615,0.9000362569159824,0.8951817857317262,0.8993981123095119,0.9130828021606147,0.8759586530060445,0.8089215554050325,0.7419141750756376,0.671058937593803,0.6025095495014915,0.5344617292549573,0.4632445151296951,0.39357700419188835,0.33219010210059696,0.26781312004132285,0.19675703299407496,0.12792342328140324,0.060240408471523205,0.0,0.013672267175485725,0.07750013210519793,0.14838474547437083,0.21973500173157143,0.29108369799740386,0.361685870505146,0.42848672997984927,0.4988067648195581,0.5664683385674415,0.6296142406839889,0.7002257284581686,0.7685610496462182,0.8366499751277384,0.890147809416569,0.8628168685726115,0.8139630785724025,0.7853691393961959,0.7570440998726501,0.7269292069404597,0.7237037231157448,0.7592804512939021,0.802397255929568,0.8385670738934373,0.854934889253672,0.8527237517031051,0.8523315769823464,0.8674344637691923,0.8874879056941666,0.884768033137867,0.8850550080632399,0.9101217221442374,0.9050812048885074,0.8473890416299835,0.7789256784323713,0.7082502792683306,0.6414016225310257,0.5712270863082382,0.5003093251794595,0.43329279654533315,0.36346167408657115,0.2925513977697102,0.2255375928064168,0.15576632221259076,0.08807371340639766,0.05601250472305641,0.10772625188905874,0.1788395885276797,0.2501291283274981,0.3165124333406978,0.3753882115699817,0.44536674626865613,0.5167141852464839,0.5880650123380222,0.6591457168320255,0.7264964603367956,0.7958309678259112,0.8645874273710156,0.8980914166884745,0.8658118903241062,0.8386450661688652,0.8162595875090665,0.786665428256398,0.7727591077389977,0.8026105609829431,0.8127555887177593,0.797839337722981,0.8219955396585364,0.8490867652720892,0.8760766635226137,0.9216427971196165,0.9772929564216192,0.9919690120214034,0.9350855821728675,0.864017194831454,0.7930791518116654,0.7260310771699016,0.6562439211855516,0.5849068212448517,0.5151394783049557,0.49198695437375906,0.5479769524533988,0.6181548597340458,0.6888503053639546,0.7556809962283512,0.8253320596318415,0.8916483547282831,0.9472034299670727,0.9459772519069961,0.920915221178585,0.9026886780546425,0.907546729646112,0.8964266438190717,0.8752578862413342,0.8672051778024296,0.8712834859597115,0.8664919397139944,0.8418322075889403,0.803518650238992,0.7593247106731331,0.7440329874885645,0.77181807345782,0.80066699716367,0.8293563713208724,0.8818437495327528,0.941203428784339,0.9890125987135411,0.9625930941584532,0.8978896340273052,0.8295192569875164,0.7621663538237375,0.6910809709815059,0.619730150673985,0.5484604574830472,0.49077259384991834,0.5193797087342462,0.5892893600038694,0.6564847596144822,0.7260222659596958,0.7953550028674228,0.862335256582211,0.9228271771476585,0.9502161262642129,0.9328263489215359,0.9133127777137003,0.9183713172471694,0.9175211754723834,0.9045146564535919,0.908387999610993,0.9226709530349836,0.927521333861194,0.9100330909996229,0.8688199972880136,0.8264317643377029,0.8195562124979884,0.8433958823905848,0.8647720649873799,0.900163777247751,0.9523249736072362,1.0000000000000002,0.9756246991137351,0.9103079514852089,0.8413516630253571,0.7739518800045889,0.7028535504848952,0.6316167020567172,0.5751025628648221,0.5972457178844031,0.6600740310443368,0.7289365191485269,0.7998468428217059,0.8667107258595922,0.93041588524427,0.9587407973030019,0.9376355334271401,0.9154916262928944,0.9179530588396027,0.9168775024131769,0.9011594012241518,0.9005038652025928,0.9151615843536264,0.9231293957333045,0.9108096566897333,0.8764913788222538,0.8320604327790179,0.7915484750543141,0.7850480975460032,0.8085955917722515,0.835114054206492,0.8716527891989286,0.9259512473925998,0.9812314342075338,MI
0.921114149890049,0.9107232650261632,0.9099976172474471,0.9092694565344837,0.8952724262454335,0.8843281512053194,0.8977339903806696,0.9233760649247591,0.9230182910702074,0.8506760557321305,0.760900142862186,0.6655523956517229,0.5727316638656395,0.47837372083441343,0.3774806672911559,0.27809978738760277,0.1884691228262747,0.09113417056614681,0.03592499132803173,0.08537219455010114,0.15335157372202635,0.22251445445380247,0.3086750591296832,0.40885569300559266,0.5061652339877569,0.5965344501126757,0.6963929274198488,0.7880183197131694,0.8783709469363914,0.944639347750738,0.9517563650991478,0.9318650044764332,0.9090341023779502,0.8771849044336442,0.8368189976491682,0.7928855578309251,0.7389536875997633,0.6887352563927616,0.6594120219540778,0.6731900611010544,0.7225995785062058,0.7838472767915108,0.8482011596918491,0.8925569009355221,0.9096905937242123,0.9162436402664493,0.9182060075415208,0.9193937861431292,0.9250326897762902,0.9254305478593388,0.9316701164773082,0.9327752261187081,0.9388401015320946,0.9279996783961,0.9251135810243882,0.9239279731252159,0.9134404136510228,0.9208681489259223,0.9244529171993734,0.9102093460798377,0.886343947650805,0.9036642990881387,0.922198382676422,0.9432607266803488,0.8923888274537304,0.8022910810901673,0.7128069966472497,0.6135970895998057,0.5176991952716095,0.4262203775030131,0.3256573424039966,0.22812924844358884,0.1379527256436377,0.04970143097315538,0.04987684230995226,0.13286054384664436,0.2322252810179486,0.32221958288765085,0.42014314168599887,0.5200863885254421,0.610039701124717,0.707349513870986,0.7964301514490915,0.8711456875678647,0.9339898444314283,0.932317038965917,0.9179972265330907,0.8962790282362638,0.8718096415374887,0.8382126967259693,0.7970699258571421,0.7451342577567344,0.6939360387333888,0.6587325363220624,0.6664052795066868,0.7160373946785223,0.776543488216122,0.8418324781415358,0.8941685901787664,0.9228810529890166,0.9251012274928878,0.925104154881693,0.925104154881693,0.925104154881693,0.925104154881693,0.925104154881693,0.9250665849138819,0.9204060243745733,0.9104994544362839,0.9101609046600307,0.9176130792905193,0.9249639003000354,0.924985008323103,0.9162729684650457,0.897973158762956,0.9100780872525496,0.9312417939698072,0.9220795541572464,0.8576222365419608,0.7686328647896037,0.6712621984841194,0.581349711710418,0.4814822817550364,0.3851004771304656,0.2940282896136135,0.19364236557750125,0.09930982743048467,0.013704024576270069,0.0,0.08548584381156799,0.17511879958848153,0.2746735258353936,0.37178113333552654,0.46230510859681617,0.5621792348906429,0.6536567327884475,0.7484044772198768,0.837751088216375,0.9156890893333869,0.9343293622506832,0.968071818928554,0.9673731999142525,0.9056638596832784,0.8200252099764658,0.721736769931892,0.6294304950525986,0.5486005940578509,0.46395218649704795,0.4980737123144472,0.5972429713266014,0.6944377573839766,0.7846871805669853,0.8757092299418727,0.9461778323655508,0.9737242363138905,0.971085620815225,0.9570634058520056,0.9520683922043283,0.9609533388422284,0.9613597910335887,0.9609747704311133,0.9517063793868838,0.9466580591073654,0.9558670216921241,0.9612998990349344,0.9613610455771857,0.9626632962470678,0.9737392016053357,0.9692603783468812,0.9639409331600097,0.9746903939641145,0.9670754311314278,0.9612018865160348,0.9471713377077062,0.9010539470052161,0.8438262018388221,0.7818935944933578,0.7272234179830757,0.7183253414741042,0.7585959928851178,0.8136600957648876,0.8615311199167928,0.8961511799289243,0.9265256000328237,0.9476049274099387,0.9632843380836467,0.9854937401000505,1.0,0.9476761553969828,0.8603537785525921,0.7711696825213203,0.6739698601870052,0.6281682867206531,0.7060328213584781,0.7995875258949505,0.870383396427147,0.9438065321526268,0.9870613377990485,0.981518126206637,0.9505518925237637,0.939923027935198,0.955456383472367,0.9613039169084407,0.9613598003732942,0.9613747550282428,0.9646438148349952,0.9683947639007062,0.9695052150188079,0.9763331577576837,0.9764655800136919,0.9754863600130506,0.9645154383208614,0.9613726050867362,0.961359526414229,0.9605120927704185,0.949807425859349,0.9449384101129796,0.9197331205938117,0.8699392697130666,0.8079264855781565,0.7478352762428031,0.7078792298774546,0.7306792667777908,0.7747205459673925,0.826576547759931,0.8752815540741028,0.9122313083060805,0.9447523377738176,0.9682294535455673,0.9881878336602994,0.9913674802026424,0.9786181866596357,0.9273287619802608,0.8437170564495506,0.7542798109817923,0.6564569444657229,0.566836538896633,0.46764789251527894,0.3901328065154388,0.44330079769536157,0.5436497409594305,0.6446558494260692,0.7449419180371084,0.8351454480578249,0.9212193068629393,0.9714656519017675,0.9712351753007016,0.9447504392922594,0.9273202998793866,0.9400097770076563,0.9583384853862094,0.9509671348270063,0.9502664501290932,0.9547966354276394,0.960726750477138,MI
