0,1,2,3,4,5,6,7,8,9,10,11,12,13,14,15,16,17,18,19,20,21,22,23,24,25,26,27,28,29,30,31,32,33,34,35,36,37,38,39,40,41,42,43,44,45,46,47,48,49,50,51,52,53,54,55,56,57,58,59,60,61,62,63,64,65,66,67,68,69,70,71,72,73,74,75,76,77,78,79,80,81,82,83,84,85,86,87,88,89,90,91,92,93,94,95,96,97,98,99,100,101,102,103,104,105,106,107,108,109,110,111,112,113,114,115,116,117,118,119,120,121,122,123,124,125,126,127,128,129,130,131,132,133,134,135,136,137,138,139,140,141,142,143,144,145,146,147,148,149,150,151,152,153,154,155,156,157,158,159,160,161,162,163,164,165,166,167,168,169,170,171,172,173,174,175,176,177,178,179,180,181,182,183,184,185,186,187,188,189,190,191,192,193,194,195,196,197,198,199,200,201,202,203,204,205,206,207,208,209,210,211,212,213,214,215,216,217,218,219,220,221,222,223,224,225,226,227,228,229,230,231,232,233,234,235,236,237,238,239,240,241,242,243,244,245,246,247,248,249,250,251,252,253,254,Target
0.8170739967854286,0.8561284527580244,0.8797180512654026,0.8871149475266051,0.8736336893186731,0.8102734307150374,0.7266872316411579,0.6501754055977771,0.6000820305203773,0.6240560641548369,0.6535852069506962,0.5751528606326501,0.4810711376397985,0.39387422922474347,0.2976466842352292,0.2007787873687088,0.11154070153234952,0.025514357947306054,0.0,0.07154375016932013,0.15809917447660604,0.25404408101636267,0.35117735175414944,0.4482822654331191,0.5414796827440673,0.6293262838931577,0.7242925954400135,0.8093801640038976,0.8843930578614674,0.9270173947571547,0.9349479200302482,0.9231251026952001,0.9078604522501523,0.884873476954624,0.8483188851798835,0.8062643265261489,0.7955838265246085,0.8037444202417086,0.8226300170211505,0.8597758967593592,0.8585108106998347,0.8429823343447405,0.8430508199864546,0.8521124479899842,0.8689003809008509,0.8615949154416014,0.8664247086075809,0.8613015843824052,0.8293315504465322,0.7909615008620166,0.7561764056576972,0.7434634811293206,0.764673282141056,0.7601734124711181,0.7511195867277256,0.7443462535596388,0.7159633417507396,0.7216581590430158,0.7626290433598752,0.8222087418899293,0.8693380923118768,0.9020825003098811,0.9471331352502297,0.9489505941162326,0.878843933206519,0.7919666404538215,0.6959342053898716,0.606984629774856,0.5151188178113792,0.42032615408680907,0.34341284592204424,0.26007236893159424,0.16809453354455228,0.07557155255407033,0.023601275433386748,0.06800964264681064,0.16081982181394894,0.24887365445111276,0.3417749365658822,0.4388752495995327,0.5360100269903749,0.6330405204973641,0.7240033685630136,0.8106815178891189,0.8894431098404212,0.9264083839391217,0.9198054782726102,0.910803155399313,0.8930842815564364,0.87118438154971,0.8520090329088843,0.8221873955739629,0.8017355716587313,0.805456174028707,0.8253520451755816,0.8653108023678184,0.900211005850112,0.908071050817401,0.9116896028440884,0.9219734463560139,0.9281469935579834,0.911591156943274,0.9061772212981158,0.8982001104323039,0.9021684873399245,0.8946958064444557,0.8951006292903485,0.9036793258597644,0.8935926095626332,0.8577300505509946,0.8310798404375537,0.8457327682165627,0.8783379446227197,0.9067550260691144,0.9163581883854883,0.9021392240402961,0.8676141893532541,0.7846321722777576,0.6924755266320388,0.5955603912543679,0.5054285567722381,0.4148267848764955,0.31783100786188445,0.22316246923237637,0.13627990356067365,0.04755055557650745,0.03365970526162676,0.10961584568210503,0.20478939226904802,0.29171033122588286,0.3863298367090333,0.4828548879494896,0.570567772941375,0.6632946392969941,0.7506345397357159,0.8350702592672699,0.9074356640826724,0.9456097353658142,0.9397396356530603,0.925494627680409,0.898276797066035,0.8752100872818098,0.8525704869199724,0.892291094128153,0.9221177971424046,0.9474423741021392,0.9693210335694453,0.9815624704064132,0.988146479743234,0.9654528555437545,0.9088205919148655,0.8308073965992873,0.7442035545254311,0.655554171336564,0.6281453222213051,0.7125645479304392,0.8061456207692257,0.8911804083243031,0.9560100237725933,0.9622602833595844,0.9576756001592335,0.9505724057529528,0.9268144947376187,0.8868425530537496,0.8855441864307916,0.9255642901849241,0.9477576523058819,0.944216933072497,0.931118892974129,0.9437589289647801,0.9427051012565761,0.9421487915034952,0.9491361781339331,0.9505849371598778,0.9658957610439156,0.9668800182157837,0.9542584355242592,0.9568680294796534,0.95408255922051,0.93534394544541,0.9036556077992479,0.8681306885247104,0.8516963205491352,0.8631568792456754,0.8895298571707007,0.9124567014322928,0.9283938072404649,0.9505353526454337,0.9603405938063552,0.9661400043096307,0.9545466804787965,0.892851971148994,0.8076561895579051,0.7214510852450635,0.6271646157945021,0.5455268652115697,0.5509674426370825,0.6429068084961536,0.7317265813995801,0.8230335883156297,0.9097148524740195,0.983121829817299,1.0,0.9865450469853574,0.944272721994742,0.9102736791926476,0.8663062792158418,0.80386874216402,0.7715642612448752,0.7859620923627935,0.7979816160055448,0.8028705099221987,0.8345641262852395,0.8095568377536013,0.7959701681210247,0.8137196525025945,0.8459346434823791,0.8853011320548645,0.9114069352247784,0.9218435057002434,0.9093530461677015,0.9243822103307942,0.9198535952850291,0.8923772411656641,0.9015084122476487,0.898416159574019,0.9063752935448015,0.9094952773846678,0.8839809957505573,0.8523073593804003,0.8370730266132527,0.8575939589642525,0.8981004068798226,0.9278799807330556,0.9472158970099356,0.9617254540877931,0.9750433660022342,0.9725078033112715,0.9487833683607811,0.8949594674464563,0.810680097635113,0.7218598720643197,0.6338856480333952,0.5417780128648164,0.4868333942449077,0.5496148024967773,0.645325884159472,0.7387575057746019,0.8256435716839685,0.9069731586356755,0.9340474379294834,0.9266492426665254,0.9161817847489266,0.9026015218291894,0.86009830334535,MI
0.7334368541846681,0.7277063473359489,0.713513981246654,0.7127452556173512,0.7076599264884651,0.6929772312201443,0.6920611898618012,0.691182894118179,0.6762480385447209,0.664990591011744,0.6385719480133161,0.604794347317096,0.6038239234292737,0.6328985887738261,0.6672737376511311,0.6912112417241985,0.7111004319639873,0.7127608851511633,0.7129005457104123,0.7227095998912256,0.7332684902389843,0.7333821072590712,0.717854982952193,0.6284254245875518,0.5195533994294292,0.4124321182383608,0.3193596881746812,0.21365817816028,0.11844681162958937,0.03569550438975577,0.0,0.0646000953363921,0.16376719331201928,0.2602921364142343,0.3591170235340697,0.44939355357369726,0.519547909279638,0.5623621321447203,0.5578852980404219,0.5293924473928087,0.507091444651735,0.47373742031002397,0.4370156735721902,0.4078375279528408,0.35258014832552576,0.30439087429617384,0.2629829221901563,0.2601496714663032,0.29530033613168216,0.34966926141467436,0.41555889587191386,0.4875040848273722,0.5444072893264491,0.6063562726402587,0.6627230849031958,0.7030174179961768,0.7126849946578346,0.7127622556357229,0.71276225563573,0.7127689224525007,0.7161227772760244,0.7388736024256555,0.7536717770273973,0.7520934534755721,0.7395727570530171,0.7526052367603384,0.7541633879512082,0.7541720747955303,0.7578325766737404,0.7733855972407371,0.7728891647291558,0.7479721501878265,0.7088968877109942,0.6946748057277117,0.716798431383276,0.7559302985716303,0.7926046211136635,0.8230374284225541,0.8455877290420255,0.8574318154020046,0.8618803799792043,0.8796585018866323,0.8947440483742879,0.8790268407860089,0.8267792050778899,0.7281064350549009,0.6322622407837653,0.5241807244922843,0.4283069532158077,0.32655565750445614,0.22932715261451309,0.13706871783263885,0.10957981332053723,0.17861862221631375,0.2861067791707592,0.3843821799916518,0.48126716097305566,0.5670640537032812,0.6282542269079912,0.6632045378890825,0.6538621174218866,0.6365052872461399,0.6014340764081183,0.5640434498247933,0.5210097026490348,0.47891673376760746,0.44124402308428845,0.39464056762472444,0.34767930985244844,0.2966882224894869,0.28786015041489055,0.330586861217836,0.3895142120824504,0.4536462308781073,0.5221209264828666,0.5835936972147424,0.645397129153995,0.6999203862088379,0.7302101894028179,0.7334581588323998,0.7334634122723154,0.733463412272322,0.7334634122723291,0.7334634122723362,0.7334571649907575,0.7302337963607242,0.7145022964613381,0.7127634684955098,0.7127622556360595,0.7127675773474063,0.7168212569433687,0.7614527084600575,0.7827462760591843,0.7831461459146865,0.7831461881995123,0.7831461881995048,0.7831461881994985,0.7831461881994914,0.7831461881994843,0.7831461881994772,0.7831461881994697,0.7833837314704883,0.7941804210048624,0.789875097338582,0.780913416564045,0.7527001939235975,0.6938484349134826,0.6378922436287975,0.5817927252033268,0.5172801677807874,0.44470016312771987,0.3854262022018853,0.36601612001106254,0.4047247978562858,0.45679530219919684,0.503572394718276,0.5414913422340568,0.5826714867760661,0.6245918628350338,0.6584163044545823,0.6924167359912139,0.7082797750005634,0.7204161015268244,0.7069180303638318,0.6626737910615175,0.5909700438092438,0.5018944671705357,0.47157293898615515,0.5530594560716229,0.6589147452232602,0.761990029800613,0.856747069947974,0.9512355545332731,1.0,0.9693553556705461,0.9490747086822915,0.9393118879859479,0.9264275584059494,0.9104304333207338,0.9069182878052953,0.8905762174220215,0.8602989390230484,0.8288861855561276,0.7867215756257546,0.7660207019059673,0.791934522964195,0.820643470790682,0.8245409955847687,0.8245484732819905,0.8242257940364603,0.8123267521574182,0.8039242111549791,0.8038473448355408,0.8038473448355341,0.8038462795957195,0.8023274506009868,0.7866802984724797,0.7831544231641381,0.7831460895345752,0.782510314276117,0.7718675805553432,0.7803308203217374,0.7599136903152393,0.7170416270081819,0.6665887553233856,0.6052897757756819,0.5437206643722914,0.4779828316227581,0.40963309666009406,0.3530523393393059,0.31490674258145157,0.3455687797996858,0.3937509482656183,0.4433895449978871,0.4848443406873151,0.5196552925949232,0.5556775612925415,0.5844792642191274,0.5930703149661327,0.6155758637627526,0.6278451666297244,0.6170370666912866,0.5575430152054612,0.49802423216734315,0.41747264365621684,0.3302580681164078,0.3544070184020014,0.4477106370499775,0.5491176899419457,0.6433341736103357,0.7439978310074942,0.8233559555818828,0.8234889974610908,0.7857540791413626,0.7831481350671159,0.7831154377592386,0.7772694160856961,0.7636005977999645,0.7715213252154451,0.7622467562713111,0.7425265654195163,0.7148190824902456,0.6811516556428514,0.6733398348788282,0.7060770072032008,0.721282365310842,0.7351572445190664,0.7417077361967146,0.7429649280113266,0.7582391532791872,0.7624317145373531,0.7624673972970557,0.7679838512355315,0.7823396603845021,0.7831459348671928,MI
0.9023470906683428,0.9124790134961742,0.9194274115348833,0.9183090362317623,0.8983065491758553,0.8729888431150732,0.8815339030931653,0.9062553966399065,0.9308554649510521,0.9005194649650479,0.8110078849841575,0.7119049789916936,0.6120757390156095,0.5086397120374628,0.39863196590169503,0.2982554574669418,0.1950642714258728,0.09258187634377535,0.04334034238736706,0.10480068044702318,0.20350790621579717,0.30982464626137096,0.40753129769044305,0.5166864317500135,0.6190099953783945,0.7189774587050044,0.8145637203883895,0.8960558218533716,0.9189990256580352,0.9064334701540377,0.8686326116780352,0.8341819764038902,0.7962983767548022,0.7430148300322053,0.6883987338193269,0.6397534858628493,0.5935275898075805,0.5810123755375898,0.6160889858947742,0.6774970299844068,0.7450376321642254,0.8189657744164043,0.8777557799683682,0.9140675769712332,0.9234635991380835,0.9321793869219968,0.9205424244268889,0.919513848602401,0.9195130990649916,0.9192594753381358,0.9106958159131318,0.915699081108496,0.9105728034174847,0.902353414134657,0.91097313465206,0.9181441651130715,0.9073137173370327,0.9172006657775,0.919501219974471,0.9162164159167983,0.8916997309879271,0.8967577817323011,0.9191207844194929,0.9486152014030402,0.9089117588122462,0.8360182636510465,0.7444839026517069,0.6378865424476392,0.5407162086613306,0.4326558722746898,0.3256321935291835,0.22811837037213545,0.12172559400381733,0.03778809692573848,0.05058152884512479,0.14374453749229943,0.24451215787760905,0.35198859748769085,0.4492135886279556,0.5568543160191162,0.6545386403090365,0.7562301327755061,0.8504578567319045,0.9066047022220101,0.8900778163418703,0.8633154667052532,0.8373802752411166,0.8032603358740804,0.7614029073012847,0.7131610356880378,0.6589050064748516,0.6131538226885382,0.5896079989969194,0.6088238442522802,0.6643560714177386,0.7276201492592098,0.7993463713859885,0.8690736501747782,0.9108554054913132,0.919430276167525,0.9195130990650902,0.9195127270236267,0.9186361387037065,0.9063252826698651,0.9038153921755505,0.9170222528815857,0.9195072401456321,0.9195130990651146,0.9195130990651186,0.9195130990651217,0.9195130990651252,0.9195130990651292,0.9194951883692113,0.9153042143584358,0.889160099453222,0.8806329045106902,0.901574321848678,0.9142900157444047,0.8923022549191115,0.8062867997038445,0.7028159581645848,0.604797106203975,0.4964328123740511,0.4100069294777602,0.3258165970212845,0.21855783745929358,0.12146779816521436,0.024374135107752437,0.0,0.07869452753719486,0.18376634066402175,0.28120587153964616,0.3888605323303227,0.48619465803519857,0.5914489241969942,0.6883063132265961,0.7858367698174664,0.8592640819339827,0.9007363331623526,0.920373484051193,0.886922335845433,0.8058374824090611,0.7087953490103742,0.6086162114519595,0.5115783759932415,0.535055289301885,0.6410390490677482,0.7440540260925657,0.8425112467489964,0.9294145766531257,0.9689039221435691,0.9606386675633698,0.9472052290753874,0.9448507284363452,0.9644143864547203,0.9690106153376923,0.9616040742770982,0.9614970692819611,0.9614970692819576,0.961497069281954,0.96149706928195,0.961497069281946,0.9614970692819425,0.9614288015960533,0.9569131482606883,0.9596352214352066,0.9614929965500072,0.9616717852401861,0.97025961412804,0.9786614693971232,0.967539970859514,0.928060152430541,0.8675877221746138,0.7988992158388695,0.7315543941291538,0.6680441228857856,0.6417684964513946,0.6758067112953294,0.7287426006382702,0.7812526172392946,0.827152374850896,0.8635598160109415,0.8925938352646101,0.918822436216749,0.9443015093753542,0.97197337889751,0.9554834373829126,0.8783367627031589,0.7832837237847969,0.6782986458906359,0.5805538125141476,0.48232252382566676,0.5080586438665784,0.614929363737196,0.7127352465889087,0.816372154920082,0.9099729633830207,0.9860967077998497,1.0,0.9874012931482086,0.9575995479085364,0.9533679391169945,0.9628589506959022,0.9682426461839464,0.9616259251875259,0.9614970692818523,0.9614970692818492,0.9614970692818452,0.9614970692818416,0.9614970692818376,0.9614970692818341,0.9617904694992565,0.9718605644692997,0.9788971843465628,0.9789903902055004,0.9789900736655137,0.9782750706539556,0.9663578432745923,0.9587447368536735,0.9239711882318224,0.8616367099398121,0.7912758738699579,0.729851112053685,0.6636077146531276,0.6415818331855792,0.6850272351012929,0.7317167546199665,0.7888304721633346,0.8393111878142498,0.8780941698830076,0.9133387338199213,0.9506425889169505,0.9613810717078093,0.9604325101332476,0.929165419397469,0.8632119180180831,0.781752886250684,0.6823698634710644,0.5833328199826497,0.4814537603197828,0.49039829795163525,0.5961996348384146,0.7065502589420349,0.8124508372324262,0.9043901012680791,0.9680694964169092,0.9779932197368661,0.9596321501277378,0.9331521042519668,0.9250924714615905,0.9519600780927227,0.9613768345185778,0.9614969978837453,0.9610643255911886,0.950299942065794,MI
0.0,0.06059510719866079,0.15483934834686464,0.21707964046307993,0.27992755967136906,0.3503162598673999,0.37685241418329474,0.3019100889764621,0.2111504940165272,0.12732134619937785,0.1062410590873264,0.15206859381444993,0.2644449325114375,0.38436943902786513,0.5001173820093783,0.6176480049446536,0.6391310001621555,0.5702478125270818,0.5219934349316966,0.4908359506519089,0.42426046864272005,0.33443281058722985,0.25118534549911686,0.21345910460167383,0.2657835710444565,0.35357120202814496,0.4425623863194983,0.5227815120593697,0.5337463989946234,0.502292427661521,0.5104718022469772,0.4775357261396369,0.4204892175492776,0.38786636825191323,0.3876037509794079,0.36630270934128806,0.3403684090175041,0.3611057381267897,0.40613617844937444,0.4506517654658513,0.4917360974252989,0.4446123299327982,0.3434213451040877,0.2406324542022289,0.16625380666859702,0.19744141896265255,0.3101736208500947,0.42574040395089696,0.5469715044305961,0.6416790323485944,0.6094431597712249,0.5375140341560418,0.4819880085149211,0.4308153386046487,0.41486429887048715,0.36870112943898503,0.3009485953327333,0.23544312918136168,0.19100010944924772,0.18888330198672065,0.21106245793051404,0.2671713546478216,0.3153167037896534,0.27460123016482285,0.18566899976256357,0.12381297866823582,0.14772033768483128,0.23254676092444138,0.31928017042373247,0.3999632320828792,0.42203784418999657,0.352152779496806,0.2758586712304183,0.24124831783437894,0.2728873265939513,0.294013745014444,0.2889059485456338,0.22186811724982825,0.12014846577763683,0.05128602082621603,0.12224696478286923,0.24392711066339468,0.36057788244547195,0.48194210396486703,0.598171563115077,0.6625094036364731,0.5956730204381353,0.5189732974568386,0.4367760751323959,0.38892106767049883,0.4176215005184867,0.4928036619046301,0.564275906491162,0.5462503073603044,0.4642766648868837,0.38425814124081326,0.30842361534539053,0.30546205662799375,0.3608068495540566,0.42002503147556824,0.4535282682481574,0.4750732775970561,0.500036378875337,0.48632686058169083,0.44429872678689764,0.39308636580202005,0.34231830690762566,0.29957834281172024,0.33133027223486033,0.4199353530290102,0.5088531596081145,0.5555811368853338,0.4829715738872431,0.3722690377810145,0.2851728907090285,0.32731638975500976,0.4407495308917313,0.5563182680613896,0.6742294463038152,0.7752125740212841,0.7417672501751942,0.6596362003339578,0.5854035620542204,0.5261381788114488,0.49347733898137136,0.4614462075285486,0.39695872141822175,0.33412591623360655,0.3474975142197336,0.4203402841183741,0.48400143683583297,0.5386257707341566,0.5579714556206299,0.6086961923937464,0.6821077719852022,0.756072380010584,0.8666570125348567,0.98101268305407,1.0,0.9048428301101854,0.7862364424148685,0.6703773083413607,0.5513436661487305,0.5089405149718562,0.5864660081705186,0.6463867892889246,0.6103143471036367,0.5321193073928825,0.44183008586665284,0.3653011583825885,0.37969943438165776,0.4314081374025309,0.4842033320367225,0.5290531284877935,0.5500787693922078,0.5388306851952396,0.5239088750054712,0.4943507753604077,0.4499559346638424,0.3867952267766155,0.3580178770145963,0.4223872927267829,0.5103207223086756,0.5894751774606664,0.6363143923313892,0.5976588245491135,0.5188128530374012,0.4513267281027349,0.48007708820820305,0.5560981660542117,0.6409833292471974,0.7447268938284397,0.85842896187226,0.9433360575433452,0.905201806146366,0.7865463354397959,0.6598372437321376,0.5416855833806022,0.4206962365224234,0.30647441295685374,0.2828158219293728,0.3443486135016549,0.3523348962612798,0.3384636429183545,0.306618327157826,0.32054220388813137,0.3987573147697807,0.47115270475273263,0.4743448152363867,0.40608776877275066,0.3232925598928551,0.22899768356301342,0.20057973178269206,0.2720898944930332,0.3458594629569709,0.36041502239925327,0.30828302478486336,0.2551416192689442,0.23683197138756595,0.2750881807182477,0.3419979270578999,0.4094796848408677,0.45945173261369465,0.48870164663565374,0.5343503712920206,0.5944323644746241,0.6795288731427669,0.7921673537528418,0.8947559526643643,0.9005400917500359,0.8017480058609099,0.6815353767647032,0.5650213388629077,0.4453118649995682,0.4042089038457548,0.49635139533557115,0.5584796377277956,0.540905904283298,0.5027601466800258,0.44758805860032913,0.40489073794971286,0.39946162041808275,0.4290812969055833,0.4374941889268329,0.47227969006470927,0.5285010640314058,0.5705601517569061,0.5551458846479913,0.577049182815367,0.6037156644545538,0.5497648082856381,0.46993927819304915,0.3808617679180015,0.2917270998494357,0.29586325455576423,0.3772070497242255,0.4629570617439458,0.5309752018909641,0.5637809918029726,0.5984899927434855,0.6650395093719634,0.7714659314519321,0.8842460038850253,0.9076809895272753,0.8129427459706058,0.6978897329014706,0.5744977806484926,0.4571672831365743,0.34842805883878114,0.3632928164452709,0.4382009800448836,0.4283652123240542,0.35824316405457823,0.3136296891767598,0.33511204633392255,MI
0.42024802225388846,0.44684378965407046,0.4825692335725953,0.4589913706646225,0.42688565243337195,0.4509696223236672,0.5068536593310273,0.5655651857706483,0.6279622399149978,0.6901702875306579,0.7411429976844206,0.7818080097568014,0.8040503300737274,0.8098051968360538,0.8135614898946191,0.8144402527878787,0.8067446699366001,0.7969895511858254,0.7977073641536241,0.7901583319771954,0.7762728345210308,0.7743411699331222,0.7573466224657155,0.7418302153540737,0.7398689436568981,0.7469288877423621,0.7400727557555473,0.7312855529338596,0.7496944331099444,0.7768323841451532,0.7969797572781034,0.7961687274136808,0.7633283988710149,0.6930926544385396,0.6170135718760241,0.5429429493038425,0.4632023135525005,0.3902482405806049,0.3110612722424544,0.2373168679556874,0.1635431804549794,0.13167296425951425,0.18323595908392343,0.2557663501359406,0.3344647378130172,0.4157102724172528,0.4927312594738531,0.5660407000305037,0.6371711038973591,0.6918809699917718,0.7172106887158338,0.7050142205414589,0.6934719131428182,0.671526995374518,0.6396488702249277,0.5970531290820464,0.5518516567835892,0.5026720171763885,0.454391030777348,0.41415882493738865,0.3944561457872895,0.4244176989766444,0.475169854701581,0.5354425991463936,0.5986915142628964,0.6615611385873177,0.7208121953742292,0.7726388019038775,0.8123168100730569,0.8341061232667295,0.8508367085573036,0.8724849503808438,0.8914976848088676,0.9078808030573509,0.9231787244332348,0.9436344061878037,0.9410362519300968,0.9365230512757905,0.9519857921119539,0.9274242265770125,0.867818530490442,0.8196559645913992,0.7853833313896947,0.7635838578330079,0.7368758380111216,0.7171803305199023,0.6963826554798584,0.6902774014841955,0.7245087864330335,0.7356243007809633,0.7005722267865924,0.6781945013105577,0.6364261923703538,0.5663689375124115,0.4902666139892553,0.4090520496263679,0.32773965083749745,0.24776085258555436,0.17483881128689172,0.09677676406720859,0.027202617949135144,0.0,0.051049737212431445,0.1278326514590553,0.20099626334278442,0.27971207331160586,0.35264096066126727,0.42821470401806083,0.5030872008080203,0.5721948648273136,0.6122381513691302,0.6323627734636263,0.6200540375103782,0.5967544414248369,0.5721723120952673,0.5358798173637054,0.49470066261723455,0.44927749398493066,0.39890273624925987,0.3541761402951511,0.3275500256321333,0.34650991893935346,0.3930215141290043,0.45084512121712783,0.5113455442242136,0.5763020347913492,0.6340704855708699,0.6886113515505368,0.7268264428967315,0.7466681418732286,0.7500940631730149,0.7567046036171716,0.7800047874749654,0.7891429560799892,0.7857770088137912,0.7794344456662887,0.7519584565338111,0.7186969470021825,0.6648992038701571,0.6009071670551887,0.541172179644545,0.4823726867438225,0.423323230075064,0.3773790308946223,0.38458898417692877,0.4252659875724101,0.4762040307668691,0.523383954146178,0.5642103997660877,0.5992040840067754,0.623643846247425,0.6502590243308599,0.6701834644974953,0.6691580992144286,0.6497801392630116,0.6106414265573585,0.5565561881576222,0.48393336997722725,0.410783693494285,0.3358963938120423,0.26277718272733996,0.251932262913638,0.31871992149783224,0.39858800829649743,0.4764663356725114,0.5385363967939545,0.6012492024016969,0.6733283026827552,0.7286484953460175,0.7208694031589338,0.7401514429547784,0.7796816984657453,0.782012749603257,0.7525737796654717,0.7342817400275292,0.7489402046501636,0.7715365101636067,0.796810076495716,0.820525990908231,0.8614765202462653,0.9195143793296081,0.9782782901699627,1.0,0.9822691262039989,0.9734144972853049,0.9849012803640913,0.9728506237598658,0.9542454569533638,0.9351549025790429,0.9171247788950176,0.8997404511190066,0.879309750309401,0.8644139314482602,0.8396869576938364,0.8007290658401993,0.7498660482545212,0.691749717383146,0.6230096446543354,0.559774148504995,0.5032781080813802,0.45417360007207974,0.44454209659747623,0.4840795719847173,0.5317996251691461,0.58065317585686,0.6264688984826663,0.6668165947744094,0.7004998946545411,0.7238410747369561,0.7405698603139172,0.7529188666291262,0.7527660148798718,0.7195351249521591,0.6626563703834245,0.5910007831984292,0.5181786762802394,0.44108563170768367,0.36983255847997953,0.348792806139274,0.41997428283244953,0.4944404621006431,0.5716408632515044,0.6479097249350236,0.7214373945392365,0.7920115557976384,0.8477852921261915,0.8447236710725043,0.8374156106787685,0.8253789679467036,0.7986574277752274,0.77086899841854,0.7727482867920172,0.7745919583987992,0.7746425896703217,0.7791883366044334,0.7959185669475508,0.8109322297677499,0.8126734043849841,0.825653400230403,0.8351352607283578,0.83929162858208,0.8448300378912661,0.850806935785271,0.8482847117879666,0.8484199169314037,0.841622110873812,0.8290173139658654,0.7984215983815437,0.7545093114537003,0.6947720313895991,0.635014726796608,0.6111004209032866,0.603050524616195,0.5449867473313017,0.49707689953659195,MI
0.382315322356074,0.4210091915987646,0.47009277382373615,0.49313595989231773,0.48069372217008,0.4312879050879239,0.3937587506770239,0.37822089170853945,0.39866792169134957,0.43577003152714977,0.4727743995574074,0.5173260260848853,0.5478049596648846,0.5827133565133491,0.5913008011083543,0.5795306112086409,0.5548279953698432,0.5463363792191585,0.5790611947196429,0.6058528178992642,0.6291477833321735,0.6663685842777398,0.7166073208086936,0.7200007645232955,0.6635098655195768,0.6034020578157067,0.5540305981271878,0.5132389267343302,0.4898772325126908,0.4700852830206408,0.4569516479040576,0.4643977128192711,0.49126777527175625,0.5310059554204682,0.572845543842142,0.5918560105472315,0.5869925675855279,0.5589397164443906,0.5327724827018798,0.5481885072102786,0.5665289682581065,0.5705901444506043,0.6091130972809187,0.6575410519577927,0.6807098706544716,0.6327871120898254,0.5758718318436264,0.5254633043207313,0.48765663868350284,0.4705113579215694,0.4661038749661275,0.4617628740771993,0.4719234259683127,0.5053203154569827,0.5467731496304085,0.577602709324974,0.5856334686154214,0.5892987418560389,0.5838441619033852,0.6113555074450596,0.6383170718300628,0.6408685263564191,0.6721877892054255,0.7188735378876743,0.7285657636904601,0.6789428731995131,0.6240866316351703,0.5979641101125497,0.6171742298564,0.6209478662454657,0.6108547509729603,0.6046989809915659,0.6210353501352537,0.6552111325223116,0.6802809954241353,0.6653634924737797,0.6308149847157212,0.5980324216926947,0.5667377454832352,0.5462509906830251,0.5709393957133064,0.6179714032235921,0.6682856744961208,0.7156618995630399,0.7554508097365566,0.7890568415093897,0.8378144235781138,0.8881696600648348,0.9211170428883224,0.8890742595273458,0.8289622525997002,0.7776823348977453,0.7490025375102003,0.7371053340171059,0.7060699688639007,0.6629102612630702,0.6156260932779845,0.5640124468963603,0.5175068726215672,0.4704495335970442,0.415690012196664,0.36523071260857587,0.35437213362465236,0.385860010972632,0.3861090742005986,0.3310053555796988,0.2700632242839196,0.21287104170947424,0.15811774705836046,0.1015996680898743,0.046644023521750344,0.0,0.018569453235735556,0.07358806282093466,0.11142405474194295,0.1562411151557589,0.20568404517274652,0.26180414079047254,0.32029738940263197,0.37424156459106794,0.42849846389739654,0.47687192939985845,0.5223772555094788,0.5629199505519855,0.6122534029442084,0.6448434047700753,0.615407592749238,0.575647083082441,0.6122337680475893,0.6744647316153811,0.740475776538279,0.7696297972185149,0.7283806559099062,0.6812560834550914,0.63181418530679,0.5854811830344353,0.5442865653583397,0.499203852508048,0.44802429735878735,0.3951410680882137,0.34345743714484067,0.2863990937869052,0.228788567599421,0.17769129519016869,0.13611761285285362,0.10470571158774633,0.11496689864935272,0.17507143746681741,0.23061169922753488,0.28884067698474003,0.349364959053601,0.4074263110186631,0.4384704018444927,0.4232454897451321,0.4107993843531499,0.4581174327765407,0.5117977957574047,0.5562397917667699,0.6012535652433781,0.6526815141846645,0.7010353107133491,0.7437286920263091,0.7761777797427603,0.790970505019617,0.828702066114251,0.8926785819222802,0.9527809010345032,1.0,0.9842461967832485,0.931749292734972,0.8840948763414143,0.8326283601843076,0.7970767090957824,0.7616907997284854,0.7155004203350479,0.6692257095824372,0.6198046450519881,0.6082095782428534,0.635132254743304,0.6691942056082651,0.7048976574019485,0.7256078533353532,0.7073470190218043,0.67367642390276,0.646419722406808,0.6489735621448665,0.662715740451927,0.6602620779865893,0.6513183818727573,0.6950015775874419,0.7539431648369246,0.8149989953897654,0.8656913796811794,0.8500430424576211,0.7935631072747433,0.7427430841230944,0.6998721269464587,0.6840677492096587,0.6608806703457344,0.6268741817875505,0.6252100000658511,0.6297132507664358,0.6254052475619327,0.6042014565283023,0.568745220535946,0.52850016584512,0.5077263871230928,0.5080640908650103,0.5166863428264001,0.5364948781678802,0.5818450238238919,0.6383938713041428,0.7013368406249405,0.7649867785081308,0.8093545390059544,0.7839293627106136,0.7247245348101623,0.6751474952022738,0.6313613072929476,0.611322594061279,0.6038605709807905,0.5757726791322872,0.5763100129664305,0.6066970967087186,0.6304645356068961,0.6369406907699802,0.6192437653109801,0.5818726108034669,0.53970501521222,0.5068884115549921,0.5032945521792085,0.5180215374539863,0.537161284736041,0.5670502194184668,0.6156226317219318,0.6755436408389577,0.7364556134147437,0.7972973180010419,0.8507306710906133,0.8470873075637881,0.7911574037779074,0.7436277182292503,0.6936728030376842,0.6575085832479988,0.637561856928279,0.6045034299725667,0.5977988705649762,0.6200895746617661,0.633675221965954,0.630361710259131,0.603315851519683,0.565409018966097,0.5426087282592109,0.5526889593175042,0.5728245816776651,MI
0.6334686113326642,0.5894444354785637,0.5347083935820676,0.4475707794263153,0.3248261011034006,0.22723727359854085,0.164038902996531,0.1484291307812029,0.12491447921049437,0.18766659185059176,0.292473297323236,0.40007911322376977,0.5106564119800492,0.6255676169598128,0.7248035478527663,0.7833253509259959,0.7964157016248956,0.7908913081586579,0.8144520418484653,0.8137048024821087,0.820146746717398,0.798374890881445,0.7454233346256149,0.7303123982444353,0.7848111294415911,0.8426623915950979,0.8805725494119421,0.8871697038070545,0.8490423850867193,0.7290470960320254,0.5872940751544631,0.4412535536686568,0.3050203782951546,0.16289392285909976,0.07624998238016367,0.14625307796459497,0.2810293561741486,0.4213870421597963,0.5577715650725139,0.7015637233752305,0.8319943349428445,0.8560558377942669,0.7655129257896318,0.694909611225401,0.635509722974497,0.5884123847067966,0.5175874923508252,0.4445168636066157,0.36694515645623804,0.27616756696465217,0.1907217868871003,0.1278620458730746,0.1560558395786944,0.24728407255369156,0.3514043624571128,0.4689178739731341,0.5904559376746681,0.6917571829279678,0.7554697912883714,0.7604762094123858,0.7588458280424604,0.7650493976950345,0.783275476604516,0.7897881344714555,0.741692735341728,0.6939583237857807,0.7139831177435192,0.780806717574793,0.8338757901158687,0.8574178205898888,0.8555031451472064,0.7562455021927681,0.6214093746462677,0.47294817021765523,0.3363649350668654,0.19175002435649935,0.059270736440014016,0.0,0.09425673982739458,0.2284100994149756,0.3759049721936458,0.5127821758731073,0.6535370782171555,0.7760705705777746,0.7760504834263737,0.7043936295782363,0.6512459277440299,0.6008749573821914,0.544264921389725,0.4744776912154669,0.3944759657100496,0.3046198852117157,0.21417399626407763,0.15389056807330803,0.16689386780590576,0.25473728946964247,0.3610972804328023,0.4721194358296086,0.5948197742363082,0.6978477857378356,0.7665666577428709,0.7736421794312873,0.7773048585515845,0.7856915721830013,0.7984146130470768,0.7971865904326645,0.7602086150336098,0.6988545114619988,0.6988647926243492,0.7533427616777968,0.8095662019247878,0.8392403125541765,0.8527404202716906,0.7745252525957271,0.6487748293362747,0.5192502061882398,0.3779877396427418,0.24220613960711068,0.09887630003411818,0.015387414038726899,0.09029548041617641,0.22890896893996793,0.3644078156074655,0.5125797846896418,0.662844548097322,0.7795034531037257,0.74955844420289,0.6869769835771127,0.6430241322411447,0.5905893677095473,0.5334387024139602,0.4686114041151388,0.47904376370139845,0.5626934188108881,0.6222793545189638,0.6729126526581473,0.717325169460945,0.7701321554049314,0.8629988944545612,0.962623726272827,0.9666653069686739,0.8764517636543929,0.7479043398681755,0.6118887751226252,0.47765925268244214,0.48917421024284335,0.6166214131897418,0.746904968054813,0.8711863552063521,0.9345203803036264,0.9098722055972401,0.8959808975670889,0.8611023412285173,0.805855247340455,0.7636333560276629,0.8074139530628552,0.8525795871457924,0.8668757910766325,0.8637047584843875,0.8529012112020147,0.8474247033088966,0.8462645582642501,0.8199232441630477,0.7495804184825055,0.6386445618774683,0.5272959375251705,0.41498938355979975,0.3072674861134259,0.22830737581459504,0.2655254492354433,0.3550838392767588,0.4436224508699449,0.5233163764781814,0.5926547336060315,0.6537815468911274,0.6989331942883377,0.7578207821573382,0.8312723948517653,0.9361051794547621,0.9859082344607311,0.8932175298381582,0.7576579007397348,0.6211617881347191,0.5117042776715501,0.5789886389007557,0.710139207224159,0.8373934483329144,0.9283927747812042,0.9236674725757728,0.9067965266590523,0.8749282346785869,0.8156345145226962,0.7830532896579174,0.8210907592882624,0.8465896799658297,0.8460797486482767,0.8320931270198519,0.835166638194234,0.8327395382574632,0.825142358032239,0.7761072429505065,0.6823624770368628,0.5729192082503527,0.459215581258793,0.3472702488650574,0.24802405566864705,0.21735686647867603,0.28599770485863996,0.3705431371794843,0.45990249728273813,0.5337216629196351,0.6055911439221067,0.6700519893939916,0.7201318903418072,0.7845585816410581,0.8697562306014643,0.9773344651136577,1.0,0.8970599628653386,0.7637098311964663,0.6206838967386976,0.5325047563144856,0.6221346455215744,0.7537031103583027,0.8795568395599775,0.966888253290946,0.9595785426170043,0.9506361565126413,0.9192130098054654,0.859351098682938,0.8093436125416753,0.8294747210688174,0.8746226563187003,0.8825555918165557,0.8856361681683698,0.8744893219700383,0.8675267957589541,0.8610095835254925,0.8274414287010687,0.7602835566836994,0.6665224109325933,0.5576167367015414,0.444719426273096,0.33354140093387885,0.22537790848485884,0.22616134145407685,0.3091127360113348,0.4204694466087302,0.43863312025854917,0.4340091209396326,0.5090583093292507,0.5447868828019597,0.6109857334159816,0.6632573341089651,0.7054654420907167,MI
0.0,0.06059510719866079,0.15483934834686464,0.21707964046307993,0.27992755967136906,0.3503162598673999,0.37685241418329474,0.3019100889764621,0.2111504940165272,0.12732134619937785,0.1062410590873264,0.15206859381444993,0.2644449325114375,0.38436943902786513,0.5001173820093783,0.6176480049446536,0.6391310001621555,0.5702478125270818,0.5219934349316966,0.4908359506519089,0.42426046864272005,0.33443281058722985,0.25118534549911686,0.21345910460167383,0.2657835710444565,0.35357120202814496,0.4425623863194983,0.5227815120593697,0.5337463989946234,0.502292427661521,0.5104718022469772,0.4775357261396369,0.4204892175492776,0.38786636825191323,0.3876037509794079,0.36630270934128806,0.3403684090175041,0.3611057381267897,0.40613617844937444,0.4506517654658513,0.4917360974252989,0.4446123299327982,0.3434213451040877,0.2406324542022289,0.16625380666859702,0.19744141896265255,0.3101736208500947,0.42574040395089696,0.5469715044305961,0.6416790323485944,0.6094431597712249,0.5375140341560418,0.4819880085149211,0.4308153386046487,0.41486429887048715,0.36870112943898503,0.3009485953327333,0.23544312918136168,0.19100010944924772,0.18888330198672065,0.21106245793051404,0.2671713546478216,0.3153167037896534,0.27460123016482285,0.18566899976256357,0.12381297866823582,0.14772033768483128,0.23254676092444138,0.31928017042373247,0.3999632320828792,0.42203784418999657,0.352152779496806,0.2758586712304183,0.24124831783437894,0.2728873265939513,0.294013745014444,0.2889059485456338,0.22186811724982825,0.12014846577763683,0.05128602082621603,0.12224696478286923,0.24392711066339468,0.36057788244547195,0.48194210396486703,0.598171563115077,0.6625094036364731,0.5956730204381353,0.5189732974568386,0.4367760751323959,0.38892106767049883,0.4176215005184867,0.4928036619046301,0.564275906491162,0.5462503073603044,0.4642766648868837,0.38425814124081326,0.30842361534539053,0.30546205662799375,0.3608068495540566,0.42002503147556824,0.4535282682481574,0.4750732775970561,0.500036378875337,0.48632686058169083,0.44429872678689764,0.39308636580202005,0.34231830690762566,0.29957834281172024,0.33133027223486033,0.4199353530290102,0.5088531596081145,0.5555811368853338,0.4829715738872431,0.3722690377810145,0.2851728907090285,0.32731638975500976,0.4407495308917313,0.5563182680613896,0.6742294463038152,0.7752125740212841,0.7417672501751942,0.6596362003339578,0.5854035620542204,0.5261381788114488,0.49347733898137136,0.4614462075285486,0.39695872141822175,0.33412591623360655,0.3474975142197336,0.4203402841183741,0.48400143683583297,0.5386257707341566,0.5579714556206299,0.6086961923937464,0.6821077719852022,0.756072380010584,0.8666570125348567,0.98101268305407,1.0,0.9048428301101854,0.7862364424148685,0.6703773083413607,0.5513436661487305,0.5089405149718562,0.5864660081705186,0.6463867892889246,0.6103143471036367,0.5321193073928825,0.44183008586665284,0.3653011583825885,0.37969943438165776,0.4314081374025309,0.4842033320367225,0.5290531284877935,0.5500787693922078,0.5388306851952396,0.5239088750054712,0.4943507753604077,0.4499559346638424,0.3867952267766155,0.3580178770145963,0.4223872927267829,0.5103207223086756,0.5894751774606664,0.6363143923313892,0.5976588245491135,0.5188128530374012,0.4513267281027349,0.48007708820820305,0.5560981660542117,0.6409833292471974,0.7447268938284397,0.85842896187226,0.9433360575433452,0.905201806146366,0.7865463354397959,0.6598372437321376,0.5416855833806022,0.4206962365224234,0.30647441295685374,0.2828158219293728,0.3443486135016549,0.3523348962612798,0.3384636429183545,0.306618327157826,0.32054220388813137,0.3987573147697807,0.47115270475273263,0.4743448152363867,0.40608776877275066,0.3232925598928551,0.22899768356301342,0.20057973178269206,0.2720898944930332,0.3458594629569709,0.36041502239925327,0.30828302478486336,0.2551416192689442,0.23683197138756595,0.2750881807182477,0.3419979270578999,0.4094796848408677,0.45945173261369465,0.48870164663565374,0.5343503712920206,0.5944323644746241,0.6795288731427669,0.7921673537528418,0.8947559526643643,0.9005400917500359,0.8017480058609099,0.6815353767647032,0.5650213388629077,0.4453118649995682,0.4042089038457548,0.49635139533557115,0.5584796377277956,0.540905904283298,0.5027601466800258,0.44758805860032913,0.40489073794971286,0.39946162041808275,0.4290812969055833,0.4374941889268329,0.47227969006470927,0.5285010640314058,0.5705601517569061,0.5551458846479913,0.577049182815367,0.6037156644545538,0.5497648082856381,0.46993927819304915,0.3808617679180015,0.2917270998494357,0.29586325455576423,0.3772070497242255,0.4629570617439458,0.5309752018909641,0.5637809918029726,0.5984899927434855,0.6650395093719634,0.7714659314519321,0.8842460038850253,0.9076809895272753,0.8129427459706058,0.6978897329014706,0.5744977806484926,0.4571672831365743,0.34842805883878114,0.3632928164452709,0.4382009800448836,0.4283652123240542,0.35824316405457823,0.3136296891767598,0.33511204633392255,MI
0.538872015513062,0.603033147010233,0.6691992766264622,0.719498993734339,0.7676562572679777,0.8070017753207892,0.8233895554968005,0.7871116824190008,0.7911127967051828,0.8516603685517294,0.9135099708605163,0.9603886978720497,0.9620745712932806,0.9543077091048024,0.9354535830469868,0.9050112335678981,0.8797355038932702,0.8803130785847646,0.899519926310824,0.9127096493838556,0.9079956685644759,0.9093288871830325,0.91987766910316,0.9123748617702596,0.9080434699926494,0.9310686051899197,0.9320483453130033,0.8795701359781782,0.8121541915657666,0.7468081148336638,0.6790453931836866,0.6098296635541762,0.5448096408692612,0.47781262163540494,0.41914567601658437,0.3566412560079788,0.28740472547731155,0.21885041828626858,0.1539466821486031,0.08815690469156803,0.06934676270272741,0.1242053492672828,0.18916615000312512,0.2584582171747605,0.3282081994121614,0.3979588344851436,0.4677094401980403,0.5372673260404288,0.6030696459721561,0.6702604103498844,0.7376413015732991,0.8031173584028299,0.8683965310155455,0.9278429275111695,0.9699111027159153,0.9764476405294829,0.9739002526012126,0.958204790453965,0.928243883930274,0.8984516846755577,0.8960999922370572,0.9144153735741378,0.9222219994698369,0.9178111301987881,0.9179291670339214,0.9150594441520339,0.8960749032809314,0.9011138696590675,0.9153827670324146,0.8777504308968682,0.8138149068602101,0.7468704800119621,0.6812737902052429,0.6120551239825174,0.5466284936711128,0.47894634124024815,0.40937848262271626,0.34689049136630534,0.2932082811562978,0.23740047153689472,0.17674634133543113,0.11083280936033943,0.044780376983880404,0.0,0.037784910780544995,0.10215024097540051,0.17144750019194252,0.24109116327810695,0.30741791000431395,0.3705679499714234,0.43098300632031306,0.4936461638037958,0.5553620961884523,0.6200750898407295,0.688943279563717,0.7544421875126301,0.8194514660998944,0.8803411927298355,0.914884039988551,0.9069579361523734,0.8949789174192317,0.8731765501138529,0.8442931018250881,0.818220522806036,0.8186416709118529,0.8416407072595573,0.8617955160564528,0.8737483038384224,0.8827440396640007,0.9005480905558272,0.9121912870177276,0.8995227717457639,0.9010313933899741,0.9272528267712534,0.9245348614250826,0.8685502707278288,0.8038351619649955,0.7363451411468416,0.6675130898434927,0.602650319469566,0.533829320589873,0.46502869461681284,0.4001699572455487,0.3313002993207578,0.2633505244778883,0.19811915853595916,0.1289444738373983,0.06876268709629216,0.0732617047559074,0.13682106057985247,0.19549064652123413,0.2519868371661045,0.31459035611376474,0.3835688282811789,0.45331035501368244,0.5217882761234116,0.5867310966897429,0.65546126597674,0.7206344770774562,0.787538980690959,0.8519607490730645,0.9137732603952609,0.9591978823006673,0.9667610299179765,0.9603908616045898,0.9434704075949867,0.9359969627415647,0.9625632738520018,0.9814039773180665,0.9874519018458523,0.9879863518216276,0.9604030727514599,0.907285423018481,0.845219634745332,0.7788494554452092,0.7091924302145379,0.6395166837145639,0.5728090667505199,0.5065336487301292,0.4378907079841273,0.4086380140563609,0.46386278594054675,0.5286438990166402,0.5974714455300825,0.6659096449199422,0.7308606449064807,0.7991238740296158,0.8638616786726756,0.928556391998439,0.9731523013499288,0.9605348300381227,0.9340844664901213,0.9191460913130431,0.9302210499309529,0.9243208964366714,0.9075391234308614,0.8952014211099744,0.8874592260860994,0.8688662355160754,0.8455731872300549,0.8365524648566185,0.8602797503591357,0.8897599641388831,0.9106884391448533,0.923236083262037,0.9381839414024582,0.9304959135784316,0.8837907604347544,0.821844628302685,0.7565221370800397,0.6900000171271948,0.6236164162801466,0.5571025805660313,0.487562185663852,0.43438605642548067,0.46851615369008603,0.5374059579467584,0.6033844547305339,0.670395820704954,0.7384260252505843,0.8035306929837456,0.870287402024712,0.9314558568652784,0.9540969912277846,0.9383472635030148,0.918027952387751,0.9222201961488183,0.937296986974667,0.9359773044300088,0.937627752044097,0.9435480478305915,0.9387446519359026,0.9224543158743186,0.9197813160487629,0.949064816750609,0.9798728907735175,0.9960491265293436,1.0,0.9972310435100133,0.9653008802767922,0.9093823952192119,0.8426875424054512,0.7773011664663088,0.709714404134856,0.6433108199612089,0.5767608048884011,0.5071453533048539,0.44722553239658713,0.45896963191466067,0.5100024004437445,0.5570090760358944,0.6098270040773497,0.673812169209203,0.7431963770007218,0.8103700068450337,0.875508285276978,0.9389388489465365,0.9793603553593242,0.9644140854363692,0.9381091521729241,0.9280126636473665,0.9418289042539207,0.9364453331208387,0.9275725985381031,0.930739757950132,0.9254285253471775,0.9095308635975006,0.8998871271164426,0.9224754958123802,0.951742631158556,0.9717997326461194,0.9788198927295226,0.987001955940523,0.9727639209102523,0.9302409710248576,MI
0.3764862769557449,0.45286259229638204,0.5248285778290589,0.5761868916190875,0.635562412701931,0.6746391557927878,0.6799175661562178,0.6301172485158202,0.651082218258149,0.7255380579071806,0.8053313027038744,0.8805646264219591,0.9240160291745478,0.8827469931173095,0.8423604359345429,0.8072980435811217,0.7655351077988906,0.7162229234366493,0.6904006271399039,0.7109272600918985,0.7488157918820766,0.786862212688505,0.8221050193273305,0.8425364690146078,0.8431978721775601,0.8500928453836072,0.8535146006680212,0.8395525222401738,0.8143879381042662,0.8082404765171058,0.8317135855784945,0.8357472688381244,0.8185437174996286,0.7728397419154718,0.7065446972785625,0.6281357615810867,0.5494925202282901,0.46704528780002685,0.3898636967652387,0.30844739611922756,0.22519777183750245,0.14478437671212618,0.11621815902943256,0.17564024126097866,0.2565918781562405,0.3352565690638628,0.4147500127133581,0.4977716957701839,0.5764253689947183,0.6556102778956485,0.7332907608804726,0.8105611145274771,0.8850012591185417,0.9128112004010502,0.8627076816031454,0.8210213881005104,0.7856371925262025,0.7407188096047883,0.6955852175024604,0.6686233168470888,0.6809411781804515,0.7149158259419102,0.7435464696118732,0.7699415436364778,0.7666233760811745,0.7583045881494141,0.7688268898239414,0.7694605301099993,0.7440967496898117,0.7367870667037026,0.7615712579338414,0.771517626654207,0.7544214258668718,0.6953408524239768,0.6192213395228499,0.538646804994583,0.47007832258197046,0.4041141872612495,0.3331970882777856,0.2554059930246395,0.17284381223794443,0.09535977515742244,0.018585558348029885,0.0,0.06528737902837733,0.1355916904356148,0.20596572988987216,0.277035625079574,0.35866049045500037,0.4388750507898005,0.5168948519738765,0.5984631116739092,0.675431502769333,0.7549154109504785,0.8296516670586289,0.8748489311160195,0.8343065887217158,0.7893803680413971,0.7615711878962368,0.7204135448582529,0.6755036083245709,0.6474905456966311,0.6679890457564768,0.6989811179100844,0.7334724455642014,0.7599443811314108,0.7621374891451325,0.7697123148274398,0.7811915803093874,0.7734269132755176,0.7850900824235159,0.8203473989396715,0.828446599470557,0.8075984679691699,0.742212056456085,0.6648728059198363,0.5870474137065564,0.5070442832428257,0.427069688674961,0.3488791181372235,0.2658992411265382,0.18635661421290217,0.11841823494690984,0.060094699760779635,0.06857727034443062,0.13881914840850085,0.21881599769742333,0.29646318630582447,0.3771105888635644,0.46016402093389286,0.5357311795973807,0.609905642522309,0.688962193755279,0.7675546641032458,0.8455404117278023,0.9143963624153366,0.9155227256684744,0.8671452424034851,0.8385473696697407,0.8009589210551202,0.7568466430502856,0.7163240749248467,0.7135749276180541,0.7430445401499395,0.7405215343762399,0.7671412567886133,0.8104443958322785,0.8523656551662329,0.8818261097781226,0.9250712237004364,0.9780256096335413,1.0,0.9459492712464677,0.8674012668799127,0.7903020730272936,0.7134112529952921,0.6322903789737562,0.5536237177122845,0.4794510119385127,0.47805367575959545,0.5550857810526117,0.6335442482035665,0.7126521262683334,0.7888038302084257,0.845263971806864,0.8502583845881344,0.854531940457083,0.8321498316083893,0.8034192372213036,0.806560993368201,0.8082914704187318,0.7942642684556456,0.7895422770264389,0.7759207885771919,0.7438424001891275,0.7104176200734533,0.683269626988531,0.6981027020162573,0.74343577391192,0.783612926703708,0.8129969784955688,0.8569883657590889,0.9231297337228426,0.9496315717367678,0.8981820391405655,0.8341722837867918,0.7656086900639232,0.6834937471859344,0.6002483164748988,0.5192496597412835,0.4418196245133217,0.36175815768773645,0.343632823088037,0.41271899245731225,0.495283702540128,0.5730995311446947,0.652629278986049,0.7280809818218028,0.7850359039168571,0.7963764780465703,0.7989731271832139,0.7809918341838313,0.7678361899618302,0.7918631677574086,0.8007983599141217,0.7937762766824423,0.7881749975985322,0.7995306692989717,0.7896340553545234,0.7645018273451458,0.7336828846419903,0.7042967879528053,0.7123926497845818,0.7537072081264535,0.8004891159839731,0.8360406140984,0.8774275863939613,0.9384443787282424,0.9843189406701571,0.9514168115747674,0.8790833246292564,0.8029153636180111,0.7256755062558171,0.6462364915178487,0.5692669492862723,0.49776405701421456,0.5145319667860855,0.5934609029053857,0.6722940806144457,0.75150743415119,0.8280223222672398,0.8632063848179907,0.8601202009509774,0.8667207098248804,0.8546599439200251,0.8350113035935083,0.8519582912195427,0.873776934098623,0.8816737805743164,0.877847590669889,0.8713941096973699,0.8705884776754444,0.8520807508719783,0.8182515202940848,0.779877392589569,0.7434187774202552,0.7240128443446436,0.7591990176243912,0.8058705191041515,0.8443735695600583,0.8797097170376702,0.9345503428218038,0.9888116280246935,0.9707279669356221,0.9085006995684266,MI
0.9023470906683428,0.9124790134961742,0.9194274115348833,0.9183090362317623,0.8983065491758553,0.8729888431150732,0.8815339030931653,0.9062553966399065,0.9308554649510521,0.9005194649650479,0.8110078849841575,0.7119049789916936,0.6120757390156095,0.5086397120374628,0.39863196590169503,0.2982554574669418,0.1950642714258728,0.09258187634377535,0.04334034238736706,0.10480068044702318,0.20350790621579717,0.30982464626137096,0.40753129769044305,0.5166864317500135,0.6190099953783945,0.7189774587050044,0.8145637203883895,0.8960558218533716,0.9189990256580352,0.9064334701540377,0.8686326116780352,0.8341819764038902,0.7962983767548022,0.7430148300322053,0.6883987338193269,0.6397534858628493,0.5935275898075805,0.5810123755375898,0.6160889858947742,0.6774970299844068,0.7450376321642254,0.8189657744164043,0.8777557799683682,0.9140675769712332,0.9234635991380835,0.9321793869219968,0.9205424244268889,0.919513848602401,0.9195130990649916,0.9192594753381358,0.9106958159131318,0.915699081108496,0.9105728034174847,0.902353414134657,0.91097313465206,0.9181441651130715,0.9073137173370327,0.9172006657775,0.919501219974471,0.9162164159167983,0.8916997309879271,0.8967577817323011,0.9191207844194929,0.9486152014030402,0.9089117588122462,0.8360182636510465,0.7444839026517069,0.6378865424476392,0.5407162086613306,0.4326558722746898,0.3256321935291835,0.22811837037213545,0.12172559400381733,0.03778809692573848,0.05058152884512479,0.14374453749229943,0.24451215787760905,0.35198859748769085,0.4492135886279556,0.5568543160191162,0.6545386403090365,0.7562301327755061,0.8504578567319045,0.9066047022220101,0.8900778163418703,0.8633154667052532,0.8373802752411166,0.8032603358740804,0.7614029073012847,0.7131610356880378,0.6589050064748516,0.6131538226885382,0.5896079989969194,0.6088238442522802,0.6643560714177386,0.7276201492592098,0.7993463713859885,0.8690736501747782,0.9108554054913132,0.919430276167525,0.9195130990650902,0.9195127270236267,0.9186361387037065,0.9063252826698651,0.9038153921755505,0.9170222528815857,0.9195072401456321,0.9195130990651146,0.9195130990651186,0.9195130990651217,0.9195130990651252,0.9195130990651292,0.9194951883692113,0.9153042143584358,0.889160099453222,0.8806329045106902,0.901574321848678,0.9142900157444047,0.8923022549191115,0.8062867997038445,0.7028159581645848,0.604797106203975,0.4964328123740511,0.4100069294777602,0.3258165970212845,0.21855783745929358,0.12146779816521436,0.024374135107752437,0.0,0.07869452753719486,0.18376634066402175,0.28120587153964616,0.3888605323303227,0.48619465803519857,0.5914489241969942,0.6883063132265961,0.7858367698174664,0.8592640819339827,0.9007363331623526,0.920373484051193,0.886922335845433,0.8058374824090611,0.7087953490103742,0.6086162114519595,0.5115783759932415,0.535055289301885,0.6410390490677482,0.7440540260925657,0.8425112467489964,0.9294145766531257,0.9689039221435691,0.9606386675633698,0.9472052290753874,0.9448507284363452,0.9644143864547203,0.9690106153376923,0.9616040742770982,0.9614970692819611,0.9614970692819576,0.961497069281954,0.96149706928195,0.961497069281946,0.9614970692819425,0.9614288015960533,0.9569131482606883,0.9596352214352066,0.9614929965500072,0.9616717852401861,0.97025961412804,0.9786614693971232,0.967539970859514,0.928060152430541,0.8675877221746138,0.7988992158388695,0.7315543941291538,0.6680441228857856,0.6417684964513946,0.6758067112953294,0.7287426006382702,0.7812526172392946,0.827152374850896,0.8635598160109415,0.8925938352646101,0.918822436216749,0.9443015093753542,0.97197337889751,0.9554834373829126,0.8783367627031589,0.7832837237847969,0.6782986458906359,0.5805538125141476,0.48232252382566676,0.5080586438665784,0.614929363737196,0.7127352465889087,0.816372154920082,0.9099729633830207,0.9860967077998497,1.0,0.9874012931482086,0.9575995479085364,0.9533679391169945,0.9628589506959022,0.9682426461839464,0.9616259251875259,0.9614970692818523,0.9614970692818492,0.9614970692818452,0.9614970692818416,0.9614970692818376,0.9614970692818341,0.9617904694992565,0.9718605644692997,0.9788971843465628,0.9789903902055004,0.9789900736655137,0.9782750706539556,0.9663578432745923,0.9587447368536735,0.9239711882318224,0.8616367099398121,0.7912758738699579,0.729851112053685,0.6636077146531276,0.6415818331855792,0.6850272351012929,0.7317167546199665,0.7888304721633346,0.8393111878142498,0.8780941698830076,0.9133387338199213,0.9506425889169505,0.9613810717078093,0.9604325101332476,0.929165419397469,0.8632119180180831,0.781752886250684,0.6823698634710644,0.5833328199826497,0.4814537603197828,0.49039829795163525,0.5961996348384146,0.7065502589420349,0.8124508372324262,0.9043901012680791,0.9680694964169092,0.9779932197368661,0.9596321501277378,0.9331521042519668,0.9250924714615905,0.9519600780927227,0.9613768345185778,0.9614969978837453,0.9610643255911886,0.950299942065794,MI
0.9257791880473141,0.9297393687355799,0.9116169206127611,0.8844851767035617,0.8515307886983079,0.8214475992808823,0.7969215139853993,0.793149914361857,0.7929108313536832,0.7820483698855925,0.7624776554570385,0.758166301576197,0.7464649828738992,0.7419716714022879,0.7532672463920997,0.7586655245932064,0.7571262580916907,0.7438350699104959,0.7414854587977753,0.7414815188930359,0.7414815188930377,0.7414815188930395,0.7405552259494552,0.7279448714948078,0.7242752153384235,0.7242624683935834,0.7242624683935852,0.7242624683935874,0.7242624683935892,0.7245863027502537,0.7314423068158695,0.7304817655255316,0.7315453760025998,0.6982172835694924,0.6738085690410007,0.6727772544019377,0.6824030725496026,0.7090464219092989,0.7239929396197229,0.7280731424509788,0.7004658608204686,0.6140330820213729,0.5272976933833897,0.4500762455565188,0.3610076694083424,0.2709287604400705,0.18084949233699188,0.09100410240278256,0.014718578301514018,0.0,0.061668358314484806,0.14108031282687872,0.2307324573983207,0.31212707340514045,0.3939549019328945,0.48380431815877545,0.5661171936673348,0.6455561879483689,0.7222805001360837,0.8028405131354632,0.8768796861621819,0.8864858180956254,0.8657219798313482,0.8623266692632456,0.8726117415068222,0.8847883706724593,0.908017604413307,0.9240356964930725,0.9437336613412652,0.9380003312159206,0.9179867815625546,0.8871127900301601,0.8546350356682084,0.8384223249540823,0.8206321876785463,0.8013711678075515,0.7690796128393855,0.7377543035649419,0.7124611156916565,0.6906609950432849,0.6758679181274165,0.672613820147697,0.6730466971489397,0.6842943913884021,0.6897887790919675,0.6898286063480303,0.6922615253387523,0.7011976477480952,0.6905574267603312,0.6899134650579457,0.6972790938506628,0.7068390193634535,0.7070434178942002,0.7070434178942024,0.7070434178942047,0.7070402807317091,0.7046540359296003,0.6913233689286229,0.6809074676714895,0.6706653841399675,0.6460387443411459,0.6139684882220782,0.5884648132562496,0.5995096038159207,0.6223076397206149,0.6493339655318322,0.6805280351090901,0.6786592612309277,0.6981143556460436,0.6835664624814388,0.597915182463781,0.5192920158999339,0.43444946989452493,0.34619112181090017,0.2848655760094241,0.21532105661480294,0.1349481383994715,0.12358593650355276,0.19219666617714637,0.2740901080313529,0.36369668324098114,0.44300605693634854,0.5270298592972082,0.6152258309256395,0.6911377864840529,0.766259625978694,0.843207048518178,0.8777214146192156,0.8502411560953669,0.8301125462415704,0.8280937115951912,0.8397839557090285,0.854488647149585,0.8619382309916026,0.8661844163439381,0.8995016774000333,0.9151908177803114,0.9042443035648047,0.9022244247013202,0.8892631771002701,0.8866116298471574,0.9018987558910161,0.9501486676962645,0.9991543300425363,0.9796099524978836,0.9091820290787838,0.8323459253574246,0.7543613506009552,0.6817345187028345,0.6203853575340723,0.6732586208089857,0.7562076523890049,0.8197711096179336,0.8409283386468926,0.7936169046930233,0.7404187557395359,0.7281327547223948,0.7025513841944555,0.6708083924636106,0.6550737977512191,0.6564390678969403,0.6915385637332663,0.7127820851133722,0.7259804836426702,0.7330065532984795,0.7467199114964758,0.7592517843803175,0.7555059397167461,0.7501871657847472,0.7634649737767254,0.7653505999627774,0.7557902095478002,0.7480885541328619,0.7371838383431837,0.7358866932806793,0.7477220443706556,0.7482689317506401,0.7405156038859895,0.7313323860747425,0.7308935760396249,0.7210903563591682,0.7140572544864461,0.7211542234892447,0.7388894554863339,0.7582487858241538,0.7869846537644714,0.8197654529277414,0.8459997598983278,0.8669141844070127,0.8849599886460986,0.9057021971428365,0.9378497179352037,0.9682690577858435,0.9895219808946591,0.999567828062399,0.9894421997265113,0.9712894257106126,0.9514222332847186,0.9375530458975363,0.9211519192033419,0.9072457796196378,0.9262983744595523,0.9714935268359559,1.0,0.9570086606186212,0.8768693461999959,0.7995498175233506,0.7179904804342541,0.6405763227335264,0.5971716771252606,0.6544038552346603,0.7402673599741614,0.8162978988572034,0.8635343022972841,0.8285294428427004,0.7728472636198864,0.7651226459133134,0.7480629429832519,0.7222323064565326,0.7157700049143951,0.740917672154473,0.776525613958102,0.7827872627670929,0.78280724009177,0.7826979720229912,0.7746171663552581,0.7657590768785094,0.7685656416003428,0.780663283808301,0.7757875908503902,0.7825236331018188,0.7828072400917563,0.7828072400917536,0.7828219489636226,0.7871773800269382,0.7993000749195156,0.8000261475375132,0.8000262905912083,0.800026290591207,0.8000116870309384,0.796204474755486,0.789713236945289,0.7996951781896526,0.806834550771879,0.8255546250253176,0.833245523449285,0.8382212335749206,0.8494177983880453,0.8434855052986601,0.8715586624406937,0.9019673377647215,0.9342698441673285,0.9649853848982906,0.9721588264197476,0.9722167955858216,MI
0.6483408970721372,0.6848515064328011,0.7483634319688046,0.7651711477714449,0.71346853073277,0.5864174967850793,0.44921588839652893,0.32278497418777263,0.18229805917643516,0.08614709797015951,0.015350840023769408,0.0,0.052572750288188086,0.1377602957103301,0.19337531301376787,0.2798865615137709,0.3817500617348917,0.46229350629654276,0.4556711749691078,0.4003706042993387,0.33502916087711876,0.2571975475928525,0.2240854972602806,0.2494641405110838,0.2818021224161531,0.3737594725300384,0.4732924947739936,0.5796999479160445,0.6804859027645365,0.754701850138964,0.7961320184815519,0.8219577370533693,0.8110836856193457,0.7966785850423359,0.8126509993698758,0.8278287939996036,0.8492734216312754,0.8021260561740031,0.7598751259986805,0.6985854960586217,0.7039996802780544,0.7893293813452034,0.8579908409985753,0.8815011977802238,0.8037413900802846,0.6758451268200854,0.5398472483997758,0.4026611714073316,0.361300575323813,0.4428120058105782,0.49921017325596884,0.5492731825222203,0.5019370230707607,0.451189032127727,0.39729679345616686,0.34866915088158246,0.3278036402305129,0.37236776272456273,0.4613170907688642,0.5584683374705484,0.6614867380595677,0.7665722531766055,0.8543026498948385,0.8988448522830068,0.9124535828968381,0.8938108996263332,0.8920516666049845,0.9033183270066796,0.9104317766669365,0.8696026130543113,0.8075254499857452,0.7503759604425029,0.7417086762553065,0.8036189131542142,0.8371493871211357,0.7972501953439557,0.6826126020253462,0.5525083089135321,0.41159193497128177,0.3124021654953455,0.345854770594602,0.3963894515827069,0.421926323002356,0.40872359389739055,0.3652869178432918,0.3109218253776955,0.2474702576504213,0.2586752920261475,0.316153053000122,0.39916693319579144,0.4949407218823372,0.5884349647538323,0.6994372525240107,0.7873781288059791,0.8451447326358275,0.8677190806511415,0.8480284957843272,0.825800364063308,0.822684843944931,0.8270901220746967,0.8347997068352062,0.7946131510907217,0.7446885376773644,0.6810816585038544,0.6984888116543213,0.7821179382972967,0.8356394056815923,0.8441620388231645,0.7818531132598072,0.6493849757885628,0.4996003852075943,0.34977612663276814,0.2371603663452908,0.24496495710135147,0.3537988203872202,0.42964832854670787,0.46391138117757924,0.4086678961397143,0.3691644982463278,0.3087827162067711,0.2721020918416843,0.28431303298048594,0.34324031598131155,0.4458091617921309,0.5537755170855552,0.6570379540179041,0.7498577687446253,0.8352715711945433,0.8964490032211647,0.883566872336647,0.8469149244946128,0.8570238388866742,0.9147203272701989,0.92286668479028,0.9633910566148312,0.9786193656469693,0.934822779624565,0.851878162894748,0.7700545899631837,0.6768636887080404,0.5669485756972672,0.4495625167858983,0.3808475922839052,0.3714925248400269,0.41481733545691357,0.4594833520850439,0.5195878712566384,0.5795299238789089,0.560290876673688,0.5309358901302246,0.46763609387628824,0.5725621546786264,0.7037443900639313,0.8381306806995537,0.9407222600439318,0.9359150576318362,0.9125183435812318,0.8675269641356018,0.7987321446645477,0.8332550169688937,0.8975208330420874,0.9351871709254014,0.9218545645907414,0.909672995664343,0.911286332585854,0.9234666433599181,0.9529193107926308,0.9514411696920688,0.9044838654812488,0.8415818917457378,0.7484880016065678,0.6465456318164393,0.5526276506335877,0.4581292149169518,0.3726179255839166,0.33839449744621364,0.39718346644866154,0.45385151399087986,0.4971563702504418,0.5448882701789244,0.5358249133911941,0.5642734571814008,0.54556924067515,0.6012223264147383,0.7119272982678537,0.8292557150791695,0.8971433318625448,0.9392234736156531,0.9174609104375606,0.8599893490802981,0.841926762193729,0.894521230722884,0.9540546578842108,0.9842739861710066,0.9887044533096714,0.9923070801940956,0.9927292016533902,0.9932551228745106,0.9981091045088619,1.0000000000000004,0.9899285544006768,0.9515015298138265,0.8826416206869889,0.7766020627190717,0.6715107478115603,0.5798467580005879,0.483172109837144,0.4188561494631231,0.44424430771911405,0.4821874559995991,0.5327639329838294,0.5872800459375411,0.6462974124500795,0.637888432209436,0.5935071987359168,0.5563459028421298,0.6639457592056224,0.796356563796619,0.9105779996532788,0.9747400538013458,0.9895176784893125,0.9429638396686024,0.8688536692048712,0.7941766024325321,0.8203433260850281,0.8755616036435634,0.9205925614811563,0.9191245199688738,0.9114858570755824,0.8995593619380862,0.8961383210022258,0.9243272991126115,0.9063690278880938,0.8954202933559503,0.8566644482378067,0.7836275632062208,0.6904265981852702,0.590932610728164,0.4973821805047929,0.40093272761104837,0.3452831511661496,0.3511869131961487,0.42745486045324066,0.48946567726414836,0.5396421244194181,0.600703693723299,0.5661526877487888,0.5156470343416877,0.5473614246617173,0.6788626687772452,0.7997789773655026,0.8611915554475362,0.8487960066262912,0.8163452630338734,0.7739651314231044,MI
0.24248861373516384,0.24248861373516917,0.24260231279755295,0.2541251238773006,0.27768676747546284,0.34434910058532076,0.3894432319248464,0.2830533453275903,0.1748984136143772,0.1153263495066561,0.13797764599184248,0.16674617286883286,0.19821260451206069,0.2150916343382816,0.21543195374557111,0.2067205157335632,0.18914880041684068,0.18171001857954927,0.1252635436762617,0.07669757883534967,0.054528658765918614,0.0718773496718148,0.12219854315335521,0.18007785763292006,0.2556282763919757,0.32492382293622235,0.36432196051104704,0.3594741736822318,0.34885927828638774,0.3285819542538695,0.32354221565252494,0.32873585863607957,0.3489295578928786,0.3598298371466271,0.37693690632220545,0.37753039576383696,0.3775303957638432,0.37749964293214155,0.370382738973305,0.3515417960674121,0.35052225579428686,0.35051741002046644,0.34662797420116576,0.3023213216169305,0.24690447594675913,0.20015090238769417,0.190490724241986,0.21279860153282826,0.24597615047007348,0.27296311294159903,0.2944056705023472,0.2937000039207822,0.2853666817624205,0.2962839414951848,0.2965053759797742,0.29707189369699893,0.3141820350082476,0.3279530577494416,0.3896094405264403,0.4527810818691771,0.364465599695011,0.24938139427138228,0.17175428496514655,0.1902533940397131,0.22641994472651916,0.24904413950963633,0.25889805364444474,0.24293333477466916,0.2329196795273365,0.20651122361087193,0.17714539822502573,0.11912091474970232,0.06265743751046937,0.013955572628274737,0.0,0.02323437428260977,0.0871937660557176,0.15449965640740881,0.22141792263469284,0.2651906821192149,0.2507481386113426,0.2379859120718466,0.21745341419947462,0.21548171870361976,0.21528795618014662,0.20215510260190328,0.18866484730355637,0.1802904071388456,0.16222891370277637,0.15342236963120204,0.13529004348192775,0.13445771986985466,0.13696511699993152,0.16298562069077693,0.18686030308644064,0.1936794065994869,0.2136505867841505,0.19918084916762613,0.14823565982204379,0.11028324948048684,0.11321624112622697,0.15253708187825143,0.18948876131527914,0.22866400188474767,0.2423032683804296,0.2424887313059081,0.2432400822259453,0.2610526364421304,0.2694522019382033,0.2702049324339928,0.28806679993773265,0.3165999163072284,0.4029138221983741,0.45578850666830295,0.35030458526498975,0.22241389895599006,0.133829420589878,0.12535886224128134,0.19913899036745786,0.26174533203064154,0.35943309196948814,0.49319239086850875,0.6126147546185168,0.7358449087142471,0.8677148419157632,0.9613862546753884,0.9476889758798546,0.8416297251278548,0.724535359334709,0.5998046159720429,0.4726136181308993,0.39368766029036895,0.3638799706768987,0.3499068993991745,0.33464185955779513,0.33431702551506604,0.3343167329254868,0.3330906143668537,0.3130671973590289,0.28994223973626365,0.25340265703554987,0.22132115818635967,0.2026194573337765,0.23272596741542717,0.27522869071813805,0.2802901927899377,0.27920442014842184,0.26005353052849856,0.24749110909789174,0.22193922041960867,0.20075111960264191,0.2074397276446378,0.22548117489238972,0.23045322416758918,0.25105482598367956,0.2550308831851229,0.27526002401702154,0.28028665272143805,0.280336025530441,0.2879095827404905,0.3102276800617654,0.3318542838949812,0.3342463181994866,0.32266466072458133,0.26514104792245163,0.19725234877248887,0.12213735256961389,0.07954565016694204,0.09064495443367537,0.14519080093282266,0.20733162956147222,0.2569116568737737,0.2824848178765844,0.30448502600413363,0.3138575477896506,0.33316494965990007,0.33007280183782317,0.3075718649241326,0.2814597314884679,0.2930976472988931,0.4145206361298017,0.5491128952825362,0.6837283694577208,0.8155731765589422,0.9276904805223563,1.0,0.9419342670756388,0.8256642401699468,0.7091905461514232,0.5963567451489808,0.4823997909280102,0.40178042910063017,0.38586422093658435,0.3768369173715431,0.3622554879080413,0.36156506614519035,0.3727684758498162,0.3638818303191407,0.36132750711976414,0.36005168557066725,0.3334767274683159,0.29214032419499514,0.2813857070204797,0.3143054560909375,0.3641066987454771,0.41042840395764024,0.41533312334679273,0.41534209473185335,0.4160528156202643,0.43396362985674664,0.4422978659885697,0.44235045113753024,0.442350451137524,0.4423504511375187,0.4423333954948516,0.4367199454760735,0.4142229153552899,0.39197657686386567,0.39245078298918123,0.4130706384419165,0.4193588444134768,0.43993491600276524,0.4325649904106781,0.393565737421139,0.319629868990984,0.25275234902319355,0.19623740732975747,0.14248400092907687,0.14776553073634613,0.18731856380576684,0.24389475486986978,0.27755141103743153,0.28029763134076013,0.28030031270320865,0.28030031270320244,0.28008205644974815,0.2661710077983548,0.23443317932670382,0.21953747257903,0.30254147410198673,0.4172446524454907,0.5506808670604331,0.6790657425823445,0.7940358884354248,0.9116760224432854,0.9223476851263204,0.8238092361472376,0.704177317768715,0.5870055443136222,0.47447401939236844,0.3829415206255735,0.33830563531014235,0.3125807282702384,0.3073191709710521,0.30730866910884913,MI
0.2556619388294956,0.31087851203708117,0.40309365621857896,0.46731602489000434,0.5265165332273829,0.5402153472353419,0.4619335350800695,0.35929971849303644,0.27052623757616856,0.16468450832169235,0.075668451455702,0.08530272455643861,0.18616903828324927,0.29662857349940697,0.41037797116554686,0.5228764152466086,0.6359890017235894,0.7133902954056992,0.6767097145292633,0.6046520747758242,0.5674048451936449,0.6165002113773264,0.6829252319854884,0.7534321246022284,0.8030467339228002,0.786396559843624,0.7661682439858464,0.7983550723333763,0.8642715784238055,0.915956590037734,0.9067841848662817,0.8623529768279947,0.8147266961898028,0.7791571404728408,0.7487784964126722,0.7266072273326307,0.721260812028089,0.7017667305093485,0.6706872366438834,0.645421696491016,0.6937735974842816,0.743939548035706,0.7379542811782664,0.7042176766907604,0.5980609191615998,0.4861013451412146,0.376229937568471,0.2672404490490139,0.1639416119786976,0.12465251612262063,0.21000283033800904,0.32367326040500166,0.4319619509987527,0.5266371610069427,0.6396447982098505,0.7491779179265954,0.813750150859401,0.7677897714271025,0.6911469810238244,0.6463026741799622,0.6161195359542455,0.5807808943531227,0.536558014216163,0.5034554528910358,0.5185976498017466,0.5835683830866081,0.6651032006544846,0.734636881665468,0.784938377185983,0.8139994932327361,0.8261312279712978,0.8171133452417292,0.7900221599160189,0.7626443340566722,0.7279874163496685,0.6773885979756094,0.6231198236330895,0.5718241913580584,0.5729082717943685,0.6097971997145926,0.614814266714417,0.5815360784843808,0.4668322314094364,0.3536112428067122,0.2429043415531542,0.13268146540066383,0.029761440985551335,0.0,0.07815679389850061,0.1699615293725032,0.27695535703866114,0.3979132268596477,0.5198763210243682,0.6104217495783184,0.5807544972120333,0.49405821601900235,0.40094723318998793,0.331366622927334,0.3009675278263282,0.2859319569441239,0.2587197058465518,0.24580752103692372,0.2858726350135383,0.3553182837425981,0.4342009313789672,0.5079024261789844,0.5626461107383725,0.6013891351195275,0.6471708366915705,0.7103220499553815,0.7781708210794671,0.8454718195643574,0.9001453945785884,0.9308991627546532,0.9324999816021602,0.8985199274227946,0.8556646757502764,0.8304178975121286,0.862119442888172,0.8576922265545017,0.8357511722797943,0.7443104542771308,0.6251690660393077,0.5054905286260667,0.39609521089878874,0.2909044733457742,0.2418105155478958,0.31339984256945486,0.42770737980060525,0.5385881974220876,0.6559539540611763,0.7673602485959556,0.8879797722640068,0.9924066467441504,0.9999999999999998,0.9018542327035928,0.7891944321205882,0.6785507100150283,0.5621248073548994,0.4563220797009999,0.44921866736951555,0.5530043980262194,0.6652823925294433,0.7755209139100219,0.8804110431766372,0.9304476722150776,0.9281583358186152,0.9282946791383939,0.8927587496056175,0.9179376815063771,0.9602089018764548,0.9891807533360992,0.9878716310113969,0.9628581697973029,0.9173535870397156,0.8517267730351417,0.7832094495755217,0.7165510612228012,0.663819979662976,0.6260526898743402,0.5771195561027425,0.507929443030114,0.4320883128260713,0.360072060352586,0.30714785571746384,0.3249540006288434,0.3497841395892556,0.36647109735213035,0.40142624928504334,0.4800785070216633,0.5744361116196488,0.6536300311606993,0.7159698659421967,0.7328114203808591,0.6435204211309775,0.5314409579438382,0.41882861210066236,0.30634923460030783,0.29700722717037586,0.401117722097746,0.5129034892109823,0.6180219205694242,0.6767306259623538,0.682507953920146,0.6744646949497828,0.6292234042130833,0.6475865990139134,0.705009766562491,0.7600508648653606,0.8007042967079314,0.8318261578475619,0.8614842196565105,0.8806199459228898,0.8805109215798359,0.8618086990329716,0.8267273729696083,0.7736745361518069,0.6952911866337173,0.61829094204025,0.5716100183243247,0.5936998184767621,0.6335268221745036,0.6710140823000736,0.7103986677420784,0.7508075427163463,0.8259302206153072,0.8867534620630446,0.9265011336378726,0.8977274632916441,0.7969810416649097,0.6766155466283974,0.5569935481253558,0.446046013204082,0.3415525838465767,0.37123124799424434,0.4794634483032951,0.5947912067151935,0.7052462159039627,0.7964324145725199,0.8107843997519477,0.7969153666320052,0.7456227999243483,0.7287574152199052,0.7557336285433431,0.778005527562329,0.7821321186509429,0.7891274166553888,0.8207518034880426,0.8506498543639418,0.8892706126619025,0.9390004638081708,0.9824282102403077,0.9716629122296558,0.914893340325462,0.8496278578245182,0.8352236119537542,0.8677132377653962,0.8648521019380786,0.8070140420976879,0.7358069066522142,0.6662359106472076,0.6516841538275882,0.7205013590736862,0.774494221758095,0.7876201405989633,0.7081014504090903,0.5970943893182878,0.4882695954923386,0.4397464792778536,0.5235101811665872,0.6167085877282059,0.6301171269465853,0.610534563310585,0.578763850437573,0.5133762099711741,MI
0.8144070718585037,0.8056283998288167,0.8062473860048027,0.7998570027744973,0.7951882983648852,0.7918878482135585,0.7907800969955034,0.7963968175432914,0.810562082384267,0.8090197111650701,0.8218437449358063,0.8144525090960641,0.8023980583022121,0.7968694753451979,0.8136254869467558,0.8573247152458294,0.8791350473881012,0.8285348964036343,0.7467960522422223,0.6570516349410327,0.5720907210758459,0.4846236852658259,0.3992977584818984,0.32824830736230104,0.2481007061662477,0.16534729256764957,0.08634478852164951,0.07116402754298234,0.13840688080628505,0.22976956998156983,0.3223826721365046,0.4132022335625851,0.4953140894167387,0.5430478753749828,0.48965152294116754,0.451102856139072,0.43761314699945175,0.4206607495226824,0.38636083912445596,0.3618406596933563,0.3431490589709376,0.34020393563923434,0.3761274525658589,0.42635886324417904,0.48802625780746633,0.5575055689519282,0.6257279293400746,0.6912936245202688,0.748171374615294,0.8005267237017111,0.8097357268584071,0.7994570642234766,0.7871361371278631,0.7848527858108669,0.790817415934383,0.7967222983768378,0.7909925368712782,0.7938015985514051,0.792428737422163,0.7856675558381698,0.7795952763005158,0.7851989959671202,0.7931710295512744,0.7764666750685421,0.757523526634682,0.7602429075651251,0.7709639377905506,0.8079937072433889,0.8082239610321666,0.7359873086382644,0.6512684653182856,0.5604237330895838,0.4775745419375115,0.3884179606984206,0.3055343337840082,0.21642606743561377,0.1334889489626414,0.04425986832778883,0.0,0.05343758713624602,0.1428484216118493,0.22584652476870204,0.31605925199197626,0.40197940382892083,0.4734581259616346,0.45022436023985657,0.40818591460235343,0.3921977472862179,0.36603045091385966,0.33630017611348806,0.30612698544674277,0.28825695523441475,0.2980216281762995,0.327942701298912,0.3859105949870667,0.4422495805950386,0.5077803789051445,0.5725586597911554,0.6448688027800924,0.7117955865426189,0.755337875703463,0.7698197726586309,0.7753294890461833,0.7761585396935553,0.7711344405824501,0.7762741011099634,0.8016728511430253,0.8261576558410426,0.8347960796618774,0.8495111246426705,0.8603833364426521,0.8723355278823228,0.8832711558281696,0.8719221281852736,0.8511895240904592,0.8579301562551942,0.8881278418263432,0.9355884478667038,0.9384964233345019,0.8691051213963403,0.7867858018719263,0.6988432873074912,0.6149061457381655,0.5261516175480823,0.4382543675366879,0.35357712588758705,0.26488040400514534,0.18277977623744968,0.14370095093213475,0.20182093616166408,0.29037988235431067,0.37631529104527384,0.4628537813701834,0.5511358351593336,0.6088254380132176,0.5658642818989761,0.5186869940013792,0.5663202555641065,0.6432602550254036,0.6980052125511027,0.6885645583653948,0.6187885375494702,0.5355259803856005,0.5060150784584758,0.5861414243381247,0.6710734871151027,0.7443661376110406,0.8208573503333638,0.9029975220069746,0.9757992272116938,1.0,0.9752659037721116,0.9310815033657813,0.9143581845608058,0.9264165929676853,0.9304853507708963,0.923354029160409,0.9185622713301154,0.9022753324653308,0.885593998719957,0.8613458814220993,0.8419257880234134,0.8233000689739094,0.8264911094679448,0.8315246635532887,0.8210935493643952,0.7981039870800646,0.7520515396069132,0.6881293662727836,0.6212337967261754,0.5538597528631026,0.48797400923573053,0.42394290164781356,0.367424685574157,0.3386573958482084,0.3417510763078624,0.3658141151387244,0.3985272237669564,0.421225318822692,0.44786801151672484,0.47618096276842437,0.5509278850984543,0.5920662477235172,0.5507813578226735,0.46872132260768384,0.38971045996362164,0.3814465126368991,0.46113073910237534,0.5389968635377196,0.6209233116485553,0.7129617972881435,0.7967443155105642,0.8610692122113921,0.8701180730502269,0.8429168562343072,0.8116122365374947,0.8134600823368974,0.8356622965047156,0.8411343510380029,0.8338114884243568,0.8303402543978384,0.8411200361046243,0.8393273407023698,0.8416955396665573,0.8451999768459411,0.844252150717494,0.8399461610057171,0.8321432914906497,0.838057637474924,0.8487977623259053,0.8575351346968039,0.8534820278671185,0.8246950834457794,0.7730768258528147,0.7165214949714693,0.6468327846217021,0.5741665732606354,0.5124737211859716,0.45112702788992554,0.4046261056750138,0.38650368013085057,0.4017283324670926,0.42647575327136344,0.4604835019084823,0.48308320135541205,0.5107616849627907,0.5606295118053484,0.625378085233931,0.6314409767539066,0.5611397490300454,0.48167880496728066,0.464917999701858,0.5478184203142065,0.6346753507831164,0.720315313836954,0.8095028000578868,0.8863903974872502,0.9318634737296594,0.9251996790669765,0.8888236467704327,0.847123414824487,0.8449465823672506,0.85793810506624,0.867942173196405,0.8643810665432801,0.8558655850529697,0.8428863612123219,0.8402936033982926,0.858625305660023,0.8470697444141608,0.8499701500808126,0.8479760634002531,0.8527477617921675,0.8553694375441152,0.8717662298299285,MI
0.3053270324695099,0.36282740630760646,0.4136333971488062,0.4243207240233633,0.424815937261116,0.42232713916000186,0.40208873259633604,0.41014758210826674,0.4185538046635422,0.41616019446309727,0.4312344240331343,0.4445179357478555,0.4538133019978998,0.45391998325488414,0.4532939694084659,0.4307872027866795,0.3934542039844455,0.37310288110465484,0.37575671522128173,0.432210499375544,0.47987100227091917,0.5050605347613417,0.5021602999912287,0.514255466708109,0.5082881827678576,0.5297604392580157,0.4847338274955568,0.392403104433912,0.30533374107500055,0.3042068143037566,0.3934746537221918,0.49659991464976416,0.602395222940987,0.714576747669097,0.8077783693436973,0.7862839101145682,0.6838188869759083,0.5825712940547025,0.47899763173172927,0.3849665226631851,0.32355385320637353,0.2943584326242923,0.2587194418178398,0.2303539236472938,0.1987676269887726,0.1725877991132143,0.13147520881617814,0.07944162561633439,0.026518345204983973,0.0,0.01330787782308418,0.0646995898943401,0.13721439955841808,0.21656829382899723,0.2971475482216408,0.37236978443022917,0.4402576258576887,0.48634772728340536,0.4949832691510774,0.47822852275329364,0.47579518607243276,0.4651879729056878,0.4541166825154894,0.45361264894484954,0.4412812967301196,0.4320014292513674,0.43214867404551427,0.4440006315216247,0.44161028096256416,0.3890438981135511,0.3447574688743922,0.3272471334627185,0.36578446548404653,0.41851607893647813,0.4546667180651309,0.46406236445074756,0.4668703966416685,0.4596152914524274,0.47104170111112964,0.45806109606325984,0.3687348565984858,0.27171100891025635,0.2437763977914087,0.31397357875773046,0.417099182250916,0.5288997710595602,0.6302448924463242,0.7195213643626786,0.6760577709355142,0.57042537215955,0.4719106402539128,0.3849678849750666,0.3111591161880116,0.265811943064453,0.2470201973678905,0.2291865777182247,0.19581376970075626,0.16434149042561774,0.11980657529694616,0.06796327469682684,0.026200110074977356,0.015899871853997993,0.03700428110529286,0.0830946886839401,0.15311218306071117,0.2297856004422023,0.3059951390854443,0.3669360759172182,0.4189844709080419,0.4472659015413769,0.45344966185171387,0.4398069325059093,0.43194135028627034,0.4318813738472578,0.4318813738472582,0.43189022706097857,0.43535915529422686,0.4521017380889436,0.4539104599224584,0.4479334365154104,0.39753576798893686,0.3624443938856654,0.33322007008914856,0.3654493074298091,0.4240302777909464,0.44847235280013953,0.4747230140492986,0.4824169842142729,0.5319854980360681,0.5506681535516176,0.5440360075138573,0.5141439492122837,0.4927907572180441,0.4415902666855387,0.44222742241140045,0.48258468881575034,0.5244520976347262,0.5207526783630119,0.517572214697327,0.5070892339551296,0.5066001311738955,0.49515736227695584,0.48743746358286666,0.5042443859511625,0.5068416166026299,0.5132371145853996,0.5185864212220044,0.5160001673627064,0.5013324041699021,0.46075615335847475,0.4105869807132252,0.35004884069093967,0.2749796796007731,0.1945102307848776,0.13137165471949475,0.08842979726835809,0.08451731948298802,0.129805222846199,0.17637299935413608,0.22300121760731528,0.2508594274821543,0.28270788726438223,0.30591888570409687,0.32941209044544806,0.3747829124817188,0.45824616039467836,0.5504845716004203,0.6489408801275984,0.7569976638602971,0.8572304766448489,0.9156505369120818,0.8672861681246755,0.7708094330041084,0.6680953328997195,0.5618573935040634,0.46046023071670295,0.4725651396176498,0.5373538696133404,0.5341026225010501,0.5288738229397603,0.5288510218413398,0.5278285163390826,0.5106541939953457,0.48160390846912593,0.42670670552109913,0.41540511196458496,0.45156306935407464,0.5054906727681825,0.5114337243751859,0.5067155067331668,0.4974424377048736,0.4913362480241874,0.5060491945378254,0.5084719998378664,0.5250653490198198,0.5304949607002762,0.5470920166513382,0.5508796749038671,0.5508350383567167,0.5429539928550171,0.5066098700206121,0.43964513664502114,0.356311566448289,0.2760953958453731,0.2063264738183208,0.13164250713312198,0.07464476066993075,0.09872866681189141,0.14161622133646334,0.19271643095800872,0.23332898935983915,0.2648616209947319,0.2924237440621771,0.3194162969997052,0.36084934644951083,0.38801862289863065,0.4333994208272869,0.52263692008344,0.6157239164287058,0.7202988237264085,0.8288959932956534,0.9349145022881404,0.9999999999999996,0.9659182198152165,0.8810998127954579,0.780102062614088,0.6700958391564518,0.5622775898276378,0.49875946151783346,0.5695860443981711,0.6089392368869024,0.5916285856932748,0.5743380824395485,0.5693117071421914,0.5673139442584727,0.5646595965086085,0.5280392281586099,0.47876042238901384,0.4527914281183789,0.4581359234116129,0.49750228993223455,0.512687657066913,0.5274467275496044,0.5142530997984833,0.5068674217965254,0.5067855935481731,0.5012378766419823,0.4857101218939528,0.4847750782975946,0.4862747592258767,0.5021778467632916,0.4922558795804157,0.4842812456105827,0.46512729312499035,0.4181427231575068,MI
0.5629745990024146,0.6245231572167211,0.6929325142343672,0.7500746472200996,0.7868249199682189,0.8006233783792707,0.7674197512542673,0.7193793629994636,0.7061189336927576,0.7645714596785516,0.8324203513143107,0.8811856102018012,0.8748433108127174,0.7966739292677787,0.7179177135336656,0.6204630158214759,0.5159953948888496,0.40713425913983214,0.32534704997260566,0.35265755309699576,0.447350491884827,0.5520104942047077,0.6487854394548178,0.7394333708465999,0.812848202860019,0.7957097273615659,0.7338863090659002,0.6715109022729504,0.6112158256153293,0.5698681919779338,0.5817662118381619,0.6354776852150359,0.6956130005737873,0.7642245118674194,0.834559329401453,0.8719489438966888,0.8848577197650662,0.8557007336797489,0.8027063559250427,0.7623323172106902,0.7894422123092004,0.8432814757895197,0.8802538589777889,0.8861939985372336,0.8150480212531475,0.7071196958591008,0.6010288443301313,0.49449277662558155,0.386970355125942,0.2924519411441737,0.2927277496244731,0.38338486354185153,0.4864997456950053,0.5882471764782562,0.6754160084578615,0.7401027021998299,0.730583888044279,0.6674753542458063,0.5937581548829314,0.5268959845935732,0.46500112653683323,0.4074260115275232,0.39407073831639194,0.4323874310716691,0.487159424625468,0.5431974361123462,0.5867837042768238,0.6057644847516703,0.5629019080278141,0.5064102526819931,0.44760973209509136,0.4440169684030859,0.49631001578223555,0.5386386956957707,0.5622676162736517,0.488362716239507,0.3799729657916491,0.2705721390046938,0.16422425013160846,0.057650701652735004,0.0,0.06442786659354982,0.16220538936710693,0.2643946633235028,0.35796754818706833,0.43527421894939855,0.5152061454880956,0.5599599468183556,0.5222867779639169,0.4741672585853751,0.43692409209771577,0.43245959048168436,0.4800495105918914,0.5420627395895952,0.6071922246602692,0.6793355623799731,0.7417535600048819,0.7885009238722713,0.7906030120486076,0.7455955784189119,0.7060653885112365,0.7205001958140909,0.7774572589276645,0.836419060439672,0.855981908410685,0.7985391520753666,0.6926519735960317,0.5828453797869579,0.4671354820164668,0.3609748630083762,0.28072659949204604,0.30296258633494655,0.39433338496962445,0.4996817653301433,0.6108932693416416,0.7005038906554837,0.7742834738688782,0.800499317377809,0.7458023956698165,0.6867705510995241,0.629615755947815,0.5934455552442313,0.5918436711585036,0.6412275021582381,0.7020977583877397,0.7610680382479551,0.8014692322444368,0.8430602166901509,0.885080677570832,0.8915358833393896,0.8534093761002814,0.8145205610070427,0.7591763284642654,0.6967571371520049,0.6443348152777564,0.640683543962721,0.6822815748036757,0.741544258716549,0.802653318224001,0.8597681371761834,0.8735322926226041,0.8064973226520815,0.7259007471796839,0.6331876189860897,0.5320385299619959,0.43122037800251367,0.4249865151591512,0.5254657842436596,0.6300453269738859,0.7245900601288267,0.8197375098931141,0.9263885954881219,0.9616120327721498,0.9081144417702915,0.8783702262157476,0.825110674568647,0.7728868736683718,0.7878459343066921,0.8329184895954358,0.8482865651716109,0.8223317839404125,0.7744513829701549,0.7065008967848685,0.6353619347316222,0.5700237297557502,0.5048385823804391,0.47482332143883776,0.5030552018957077,0.5484379742511003,0.5987162565618924,0.6348806656107453,0.5849606117564854,0.5041944678574317,0.42353677463643247,0.3261475042839648,0.22466729996145118,0.20103342330208718,0.30346839299386086,0.4101012762653633,0.5195821051686889,0.6256467728839767,0.6784414607736668,0.6282448953472597,0.5799544312333753,0.5374317655829357,0.4977129109075007,0.5285720268180973,0.5903212192944676,0.6445763756583005,0.6497887752402891,0.6174798073516865,0.5708113276740023,0.5147424285864426,0.4607020320731181,0.45020777255047206,0.5054810774027161,0.5673704632656029,0.6324505045891897,0.7097340815814348,0.7747849167326939,0.8189122744101363,0.7758696797746445,0.7055189273681444,0.619417331855028,0.5142586845784922,0.42492787940866994,0.472361711279629,0.5788913581498025,0.6852387435459357,0.7944599977645452,0.9021652903709343,0.9884158235375315,0.9696535866122502,0.9311112089983953,0.88985187649672,0.8389841117188059,0.8461430639159022,0.8963070916712785,0.9226976107562723,0.92178195652319,0.896708910704674,0.8435149222584182,0.7706049802539361,0.708139700505811,0.6467537707345372,0.6116400120692067,0.6528332475738259,0.7170114038905082,0.7750911616073795,0.8411657979560136,0.8929998025927197,0.8655146449719096,0.7883713902541063,0.7042735901292272,0.607933139299494,0.5062016586760494,0.44148321448363936,0.5202417169343432,0.6265240673385535,0.7326899177149901,0.8413551567876849,0.9460969866495066,0.9999999999999998,0.9527018338829987,0.9149287913040578,0.8590198679929213,0.7931318006384223,0.7768916801072068,0.8172429969890123,0.8480455249253656,0.8412888032458932,0.8144390987245227,0.766319336896603,0.7015204751882831,0.6354258596784581,MI
0.7682708049444522,0.7679004390566804,0.7569078555184436,0.6717613781399732,0.5294845429273067,0.39970775786641255,0.27891179323250226,0.14020406779406525,0.04959961567685234,0.019209111884400443,0.0759693409912332,0.17088183702009063,0.26509097304317786,0.35199261789136926,0.27187769094156966,0.1791238386574152,0.19112573148012313,0.32092127918052604,0.48767781728127435,0.6424519811601344,0.7957038199307469,0.8858132478423899,0.8773777295577072,0.8944563411847812,0.8010086944097567,0.6839416245761183,0.6128772760664076,0.5478634763387098,0.46034332077569307,0.3754207445498765,0.33766202130442924,0.40631713789205914,0.5033167709285129,0.5634350418544676,0.6172310128539862,0.7116365605503736,0.7855745284009714,0.7475547508883853,0.684796666885295,0.6317874465493447,0.5227029572718651,0.41969193065334753,0.2939673791334134,0.1524095011675577,0.028307785990029366,0.0,0.11311920794511465,0.24860186276808305,0.40302550052065245,0.5670778564581225,0.6258182842868205,0.6410064040671606,0.6297777704016085,0.5228466150300974,0.44393063565102686,0.3816421448684584,0.28732248654638015,0.17197667750072032,0.10585419842278121,0.13343043653044795,0.22344970141747877,0.30651285175021314,0.3486049203354282,0.4100672485085757,0.4949736224498782,0.541531844171681,0.577395677603473,0.5907561343847956,0.5472533462953915,0.4282201725614736,0.2723566662744843,0.1469045427969884,0.1405866462364611,0.27719437797119584,0.43556228837558386,0.5887528928851364,0.7144736421517686,0.7261872643999601,0.7358775695840425,0.645530657316856,0.5462897290904469,0.47406348485391137,0.3999253840179877,0.3111134077781288,0.21135444477973087,0.16160299618024299,0.22122510127362638,0.32283850568612715,0.3937552319388735,0.42067156934645666,0.4884803809062639,0.5722752154158224,0.621988325634439,0.6460624397373342,0.6477206432992317,0.5793148607134233,0.4404304651973727,0.29001534952628694,0.17287577870151027,0.21804144671449777,0.36546898263382355,0.5278577631033832,0.6829523663475263,0.8108629136462873,0.8251817319320578,0.8646288687875558,0.814563830898924,0.7127602829271695,0.6580117376562713,0.5799909800975795,0.48016802827305494,0.37367371891695456,0.30707065936858857,0.3557270396934604,0.45385726309085284,0.49574251932988034,0.5406346343921054,0.6625042630558884,0.7350090513701519,0.7208217041902336,0.7222647155991897,0.7758469225416316,0.7476942466148948,0.6461988436357773,0.5070605571607856,0.3659611046790112,0.261026267953548,0.3223488098418841,0.4773512160614648,0.6335372859232584,0.7713776291703933,0.7535191560882244,0.7248005887755529,0.7387538722803084,0.6377246856669561,0.5444348369780982,0.4930681800830836,0.5360538745502197,0.6040350786672342,0.6973355472205727,0.8060642293217928,0.8229728216123644,0.8583955733993145,0.93331556783304,0.8812057519274625,0.7668513531147871,0.6250208461986144,0.6390380812211696,0.7554026294055181,0.8269331961739068,0.8492999133961843,0.7999690466667562,0.7940901503899616,0.8039001624024413,0.7543762625829391,0.6580844805276023,0.5780590666168082,0.5431158799048506,0.46229101279124185,0.3977612067727496,0.46576686736258655,0.578208974047806,0.673476802324473,0.7323862463233382,0.8100790920217023,0.9131927610093764,0.9382058899362735,0.9076993155061222,0.9059086163879404,0.7984311652491809,0.6462373519513336,0.4941769066511683,0.4948927563013874,0.6326958654713857,0.7182481815859183,0.7262730677484646,0.704624405538758,0.6780074209805949,0.6198925671821374,0.5354812403212943,0.4850486996032166,0.4791727428979704,0.42132964494783653,0.32094746096056914,0.261740476551076,0.33326188333842977,0.4357257665745333,0.5107519820631485,0.579984366165065,0.6760361246030713,0.7845632734466874,0.81092520427219,0.8251176601547128,0.8117844316099947,0.6909274390357218,0.5387094863305721,0.39969691076631175,0.41779069790861545,0.5316138683320135,0.6247261767321368,0.6592086771703922,0.6550961176969312,0.6177883481577902,0.5824389345543071,0.5243033415908909,0.4388607105076696,0.3984349879361826,0.33940662770757957,0.24848970013045601,0.17589694413685297,0.2267091679655291,0.33864707903354496,0.43816458755896415,0.49750366998695883,0.5843164681165796,0.6904260346550952,0.7237877998114075,0.7364221851663113,0.732694873799296,0.6123475074509188,0.4614434474654958,0.309894393948142,0.2553637492537377,0.3724569918262093,0.4829675112063776,0.5965757681605184,0.7006386401045512,0.7452297102383989,0.8176313214228701,0.8845627148744213,0.8590975267900443,0.777742142276844,0.6780242108463632,0.6187380228691128,0.5626384438739751,0.47203168727605727,0.4269743895677478,0.4991008738367375,0.5872999504783385,0.6583455314053417,0.7211524752777887,0.8301134857220518,0.9443713736868982,0.9694134188643901,0.9942290039451476,0.9999999999999996,0.8862446971608469,0.7328553916162219,0.5897361839475654,0.6316375043006852,0.7377543765639833,0.8203687252438217,0.8491362877357411,0.8465278718012295,0.8324352517354185,MI
0.8170739967854286,0.8561284527580244,0.8797180512654026,0.8871149475266051,0.8736336893186731,0.8102734307150374,0.7266872316411579,0.6501754055977771,0.6000820305203773,0.6240560641548369,0.6535852069506962,0.5751528606326501,0.4810711376397985,0.39387422922474347,0.2976466842352292,0.2007787873687088,0.11154070153234952,0.025514357947306054,0.0,0.07154375016932013,0.15809917447660604,0.25404408101636267,0.35117735175414944,0.4482822654331191,0.5414796827440673,0.6293262838931577,0.7242925954400135,0.8093801640038976,0.8843930578614674,0.9270173947571547,0.9349479200302482,0.9231251026952001,0.9078604522501523,0.884873476954624,0.8483188851798835,0.8062643265261489,0.7955838265246085,0.8037444202417086,0.8226300170211505,0.8597758967593592,0.8585108106998347,0.8429823343447405,0.8430508199864546,0.8521124479899842,0.8689003809008509,0.8615949154416014,0.8664247086075809,0.8613015843824052,0.8293315504465322,0.7909615008620166,0.7561764056576972,0.7434634811293206,0.764673282141056,0.7601734124711181,0.7511195867277256,0.7443462535596388,0.7159633417507396,0.7216581590430158,0.7626290433598752,0.8222087418899293,0.8693380923118768,0.9020825003098811,0.9471331352502297,0.9489505941162326,0.878843933206519,0.7919666404538215,0.6959342053898716,0.606984629774856,0.5151188178113792,0.42032615408680907,0.34341284592204424,0.26007236893159424,0.16809453354455228,0.07557155255407033,0.023601275433386748,0.06800964264681064,0.16081982181394894,0.24887365445111276,0.3417749365658822,0.4388752495995327,0.5360100269903749,0.6330405204973641,0.7240033685630136,0.8106815178891189,0.8894431098404212,0.9264083839391217,0.9198054782726102,0.910803155399313,0.8930842815564364,0.87118438154971,0.8520090329088843,0.8221873955739629,0.8017355716587313,0.805456174028707,0.8253520451755816,0.8653108023678184,0.900211005850112,0.908071050817401,0.9116896028440884,0.9219734463560139,0.9281469935579834,0.911591156943274,0.9061772212981158,0.8982001104323039,0.9021684873399245,0.8946958064444557,0.8951006292903485,0.9036793258597644,0.8935926095626332,0.8577300505509946,0.8310798404375537,0.8457327682165627,0.8783379446227197,0.9067550260691144,0.9163581883854883,0.9021392240402961,0.8676141893532541,0.7846321722777576,0.6924755266320388,0.5955603912543679,0.5054285567722381,0.4148267848764955,0.31783100786188445,0.22316246923237637,0.13627990356067365,0.04755055557650745,0.03365970526162676,0.10961584568210503,0.20478939226904802,0.29171033122588286,0.3863298367090333,0.4828548879494896,0.570567772941375,0.6632946392969941,0.7506345397357159,0.8350702592672699,0.9074356640826724,0.9456097353658142,0.9397396356530603,0.925494627680409,0.898276797066035,0.8752100872818098,0.8525704869199724,0.892291094128153,0.9221177971424046,0.9474423741021392,0.9693210335694453,0.9815624704064132,0.988146479743234,0.9654528555437545,0.9088205919148655,0.8308073965992873,0.7442035545254311,0.655554171336564,0.6281453222213051,0.7125645479304392,0.8061456207692257,0.8911804083243031,0.9560100237725933,0.9622602833595844,0.9576756001592335,0.9505724057529528,0.9268144947376187,0.8868425530537496,0.8855441864307916,0.9255642901849241,0.9477576523058819,0.944216933072497,0.931118892974129,0.9437589289647801,0.9427051012565761,0.9421487915034952,0.9491361781339331,0.9505849371598778,0.9658957610439156,0.9668800182157837,0.9542584355242592,0.9568680294796534,0.95408255922051,0.93534394544541,0.9036556077992479,0.8681306885247104,0.8516963205491352,0.8631568792456754,0.8895298571707007,0.9124567014322928,0.9283938072404649,0.9505353526454337,0.9603405938063552,0.9661400043096307,0.9545466804787965,0.892851971148994,0.8076561895579051,0.7214510852450635,0.6271646157945021,0.5455268652115697,0.5509674426370825,0.6429068084961536,0.7317265813995801,0.8230335883156297,0.9097148524740195,0.983121829817299,1.0,0.9865450469853574,0.944272721994742,0.9102736791926476,0.8663062792158418,0.80386874216402,0.7715642612448752,0.7859620923627935,0.7979816160055448,0.8028705099221987,0.8345641262852395,0.8095568377536013,0.7959701681210247,0.8137196525025945,0.8459346434823791,0.8853011320548645,0.9114069352247784,0.9218435057002434,0.9093530461677015,0.9243822103307942,0.9198535952850291,0.8923772411656641,0.9015084122476487,0.898416159574019,0.9063752935448015,0.9094952773846678,0.8839809957505573,0.8523073593804003,0.8370730266132527,0.8575939589642525,0.8981004068798226,0.9278799807330556,0.9472158970099356,0.9617254540877931,0.9750433660022342,0.9725078033112715,0.9487833683607811,0.8949594674464563,0.810680097635113,0.7218598720643197,0.6338856480333952,0.5417780128648164,0.4868333942449077,0.5496148024967773,0.645325884159472,0.7387575057746019,0.8256435716839685,0.9069731586356755,0.9340474379294834,0.9266492426665254,0.9161817847489266,0.9026015218291894,0.86009830334535,MI
0.7091023994862011,0.6713714198419711,0.5736766142439964,0.5177715610744733,0.59223697689337,0.707059459874948,0.8111943325914117,0.8124199051379608,0.7153680280147641,0.6285121573105807,0.5670313352788412,0.5051463046024551,0.42724396766923567,0.3445905521927557,0.2597601345704903,0.17304740343893021,0.08789398841896023,0.042238692951627854,0.07969268780804528,0.16797050173890415,0.2673258853606919,0.3661736183426658,0.47117978914891534,0.5646937698381906,0.6309106980837198,0.6573827449532303,0.6336434073700565,0.5752535814620727,0.5594331485525359,0.6009963306716766,0.6572330796078347,0.686292123568756,0.6788500250633525,0.6010624602906898,0.5119196366010277,0.5088259897368648,0.6104530638976744,0.7219651015969868,0.8028572341236031,0.7453559670005099,0.648222828057329,0.5828484611747302,0.527526518400633,0.45048835057819403,0.3704380262148139,0.28908859067072434,0.19599454749384604,0.11173625602857706,0.04281737369506411,0.03686079412169363,0.10976734605084593,0.19866191250740473,0.2823735675544574,0.38803701546743996,0.48287593397232564,0.5607387153668908,0.6149562156844417,0.6234646629823168,0.5792764699144941,0.5212752898019053,0.5355502540133656,0.5910993928980086,0.6371199160520331,0.6522887484766273,0.6445671035055778,0.5594425524811566,0.465526709536042,0.47761364701991305,0.5795069315627686,0.6909889063110985,0.7633545199772227,0.6939461056327061,0.604893458098267,0.5443104808504153,0.48371687408391084,0.4201493692065541,0.341557647473957,0.2526352923852424,0.16961773094645505,0.08871218109922063,0.0413136547048909,0.07989517325361062,0.16956693664725142,0.27758252007820694,0.37624451327900355,0.47328560387529084,0.5601622554721959,0.6213333568222104,0.6479059902975024,0.6431286111420786,0.5993559754109774,0.5761434802939682,0.6238270121052363,0.6756334569548645,0.6985025146999759,0.6958239054227588,0.6716256497522939,0.5791922925596209,0.49421898450395485,0.521265666616288,0.6315910051690299,0.7401402369018619,0.7811332800369568,0.6987185561620293,0.6146923609080455,0.5516682029527944,0.4902384500595627,0.4084596703049739,0.32094330440446983,0.2369263083429778,0.1487738853044851,0.058617224144101865,0.0,0.026856818116352876,0.10453534919734864,0.18668301676010435,0.28644479347693874,0.38887957855571553,0.4893924571502679,0.581898623556476,0.6442009506460389,0.6568426320414975,0.6191451989379626,0.5739278542820356,0.6032773328943137,0.6661683456356604,0.7268389564600382,0.7754890360831399,0.7590632406567517,0.694852377089135,0.6416510315844448,0.6589655931672751,0.6957597230639081,0.6963438475969386,0.6647284173960735,0.5850440255449287,0.4924598654564849,0.39404097658662796,0.29116588408234234,0.19079018451760943,0.09202490408982866,0.07147840896529445,0.1461306995353837,0.23838504203736566,0.32718390419914245,0.4119730627992131,0.4921248262574811,0.5644178668262856,0.6234366217250127,0.7001961309158227,0.7993432184543607,0.8896566061666049,0.9403721309900019,0.8765090466750807,0.7609651926616632,0.6553059596159172,0.6648749779414529,0.7498537654988429,0.7578034856388212,0.74576413133759,0.7318930391850786,0.6923728629248744,0.6452183138381722,0.6529012036552713,0.6923348950365109,0.6941638688963798,0.6640826194103764,0.6099591519914598,0.5269646700804911,0.4299132504010936,0.32306522456566755,0.22284046111805544,0.12995232902093568,0.10322300022197428,0.17523854266683925,0.2581415341288227,0.34154033401287665,0.42578696558120255,0.49635092467033504,0.5594667831689293,0.6144752057587475,0.6956094208608294,0.8002467273897413,0.8915788492133099,0.8716234419974067,0.7747247171357601,0.6688869328335691,0.6229501732330225,0.7007833219251127,0.7212373319801104,0.6993432427046864,0.6918664447929985,0.6501448472820237,0.5977635493947688,0.6096393856758331,0.6629540096947211,0.679689158572808,0.6593057541894476,0.608365742629513,0.5323368459602418,0.4336951944669023,0.3349659195357959,0.23455104744223254,0.141126625351236,0.09602464409057099,0.159056143686922,0.2416867355256005,0.3311619913915944,0.418529701511396,0.4966381395650501,0.5666336081770265,0.6220109983128368,0.6902019775010864,0.7911102124361729,0.9063387380748198,0.9845651827797437,0.9389627645241778,0.8355690912314633,0.7257070839804451,0.6584986989075032,0.7269015483040202,0.7604805506551511,0.7414224470795432,0.7253210917534809,0.6871086567694702,0.6336299180758647,0.6241482850671374,0.6752771437850051,0.7015253452882075,0.7002217594240867,0.6625278255225973,0.5879735745257446,0.4944860989793769,0.3968386889119051,0.2981744047607511,0.1994976257985237,0.10874188467561474,0.11710180276998328,0.19569783695505283,0.28423164190699435,0.37205397443880983,0.45333924955208715,0.5274829614737362,0.5949752015920047,0.650957737027428,0.742563228371766,0.8488852016475956,0.9564273320202905,1.0,0.9242833965337498,0.8101135850952459,0.7027369587330368,0.7075549324279247,0.7746442136763063,0.7569049165679367,MI
0.42024802225388846,0.44684378965407046,0.4825692335725953,0.4589913706646225,0.42688565243337195,0.4509696223236672,0.5068536593310273,0.5655651857706483,0.6279622399149978,0.6901702875306579,0.7411429976844206,0.7818080097568014,0.8040503300737274,0.8098051968360538,0.8135614898946191,0.8144402527878787,0.8067446699366001,0.7969895511858254,0.7977073641536241,0.7901583319771954,0.7762728345210308,0.7743411699331222,0.7573466224657155,0.7418302153540737,0.7398689436568981,0.7469288877423621,0.7400727557555473,0.7312855529338596,0.7496944331099444,0.7768323841451532,0.7969797572781034,0.7961687274136808,0.7633283988710149,0.6930926544385396,0.6170135718760241,0.5429429493038425,0.4632023135525005,0.3902482405806049,0.3110612722424544,0.2373168679556874,0.1635431804549794,0.13167296425951425,0.18323595908392343,0.2557663501359406,0.3344647378130172,0.4157102724172528,0.4927312594738531,0.5660407000305037,0.6371711038973591,0.6918809699917718,0.7172106887158338,0.7050142205414589,0.6934719131428182,0.671526995374518,0.6396488702249277,0.5970531290820464,0.5518516567835892,0.5026720171763885,0.454391030777348,0.41415882493738865,0.3944561457872895,0.4244176989766444,0.475169854701581,0.5354425991463936,0.5986915142628964,0.6615611385873177,0.7208121953742292,0.7726388019038775,0.8123168100730569,0.8341061232667295,0.8508367085573036,0.8724849503808438,0.8914976848088676,0.9078808030573509,0.9231787244332348,0.9436344061878037,0.9410362519300968,0.9365230512757905,0.9519857921119539,0.9274242265770125,0.867818530490442,0.8196559645913992,0.7853833313896947,0.7635838578330079,0.7368758380111216,0.7171803305199023,0.6963826554798584,0.6902774014841955,0.7245087864330335,0.7356243007809633,0.7005722267865924,0.6781945013105577,0.6364261923703538,0.5663689375124115,0.4902666139892553,0.4090520496263679,0.32773965083749745,0.24776085258555436,0.17483881128689172,0.09677676406720859,0.027202617949135144,0.0,0.051049737212431445,0.1278326514590553,0.20099626334278442,0.27971207331160586,0.35264096066126727,0.42821470401806083,0.5030872008080203,0.5721948648273136,0.6122381513691302,0.6323627734636263,0.6200540375103782,0.5967544414248369,0.5721723120952673,0.5358798173637054,0.49470066261723455,0.44927749398493066,0.39890273624925987,0.3541761402951511,0.3275500256321333,0.34650991893935346,0.3930215141290043,0.45084512121712783,0.5113455442242136,0.5763020347913492,0.6340704855708699,0.6886113515505368,0.7268264428967315,0.7466681418732286,0.7500940631730149,0.7567046036171716,0.7800047874749654,0.7891429560799892,0.7857770088137912,0.7794344456662887,0.7519584565338111,0.7186969470021825,0.6648992038701571,0.6009071670551887,0.541172179644545,0.4823726867438225,0.423323230075064,0.3773790308946223,0.38458898417692877,0.4252659875724101,0.4762040307668691,0.523383954146178,0.5642103997660877,0.5992040840067754,0.623643846247425,0.6502590243308599,0.6701834644974953,0.6691580992144286,0.6497801392630116,0.6106414265573585,0.5565561881576222,0.48393336997722725,0.410783693494285,0.3358963938120423,0.26277718272733996,0.251932262913638,0.31871992149783224,0.39858800829649743,0.4764663356725114,0.5385363967939545,0.6012492024016969,0.6733283026827552,0.7286484953460175,0.7208694031589338,0.7401514429547784,0.7796816984657453,0.782012749603257,0.7525737796654717,0.7342817400275292,0.7489402046501636,0.7715365101636067,0.796810076495716,0.820525990908231,0.8614765202462653,0.9195143793296081,0.9782782901699627,1.0,0.9822691262039989,0.9734144972853049,0.9849012803640913,0.9728506237598658,0.9542454569533638,0.9351549025790429,0.9171247788950176,0.8997404511190066,0.879309750309401,0.8644139314482602,0.8396869576938364,0.8007290658401993,0.7498660482545212,0.691749717383146,0.6230096446543354,0.559774148504995,0.5032781080813802,0.45417360007207974,0.44454209659747623,0.4840795719847173,0.5317996251691461,0.58065317585686,0.6264688984826663,0.6668165947744094,0.7004998946545411,0.7238410747369561,0.7405698603139172,0.7529188666291262,0.7527660148798718,0.7195351249521591,0.6626563703834245,0.5910007831984292,0.5181786762802394,0.44108563170768367,0.36983255847997953,0.348792806139274,0.41997428283244953,0.4944404621006431,0.5716408632515044,0.6479097249350236,0.7214373945392365,0.7920115557976384,0.8477852921261915,0.8447236710725043,0.8374156106787685,0.8253789679467036,0.7986574277752274,0.77086899841854,0.7727482867920172,0.7745919583987992,0.7746425896703217,0.7791883366044334,0.7959185669475508,0.8109322297677499,0.8126734043849841,0.825653400230403,0.8351352607283578,0.83929162858208,0.8448300378912661,0.850806935785271,0.8482847117879666,0.8484199169314037,0.841622110873812,0.8290173139658654,0.7984215983815437,0.7545093114537003,0.6947720313895991,0.635014726796608,0.6111004209032866,0.603050524616195,0.5449867473313017,0.49707689953659195,MI
0.538872015513062,0.603033147010233,0.6691992766264622,0.719498993734339,0.7676562572679777,0.8070017753207892,0.8233895554968005,0.7871116824190008,0.7911127967051828,0.8516603685517294,0.9135099708605163,0.9603886978720497,0.9620745712932806,0.9543077091048024,0.9354535830469868,0.9050112335678981,0.8797355038932702,0.8803130785847646,0.899519926310824,0.9127096493838556,0.9079956685644759,0.9093288871830325,0.91987766910316,0.9123748617702596,0.9080434699926494,0.9310686051899197,0.9320483453130033,0.8795701359781782,0.8121541915657666,0.7468081148336638,0.6790453931836866,0.6098296635541762,0.5448096408692612,0.47781262163540494,0.41914567601658437,0.3566412560079788,0.28740472547731155,0.21885041828626858,0.1539466821486031,0.08815690469156803,0.06934676270272741,0.1242053492672828,0.18916615000312512,0.2584582171747605,0.3282081994121614,0.3979588344851436,0.4677094401980403,0.5372673260404288,0.6030696459721561,0.6702604103498844,0.7376413015732991,0.8031173584028299,0.8683965310155455,0.9278429275111695,0.9699111027159153,0.9764476405294829,0.9739002526012126,0.958204790453965,0.928243883930274,0.8984516846755577,0.8960999922370572,0.9144153735741378,0.9222219994698369,0.9178111301987881,0.9179291670339214,0.9150594441520339,0.8960749032809314,0.9011138696590675,0.9153827670324146,0.8777504308968682,0.8138149068602101,0.7468704800119621,0.6812737902052429,0.6120551239825174,0.5466284936711128,0.47894634124024815,0.40937848262271626,0.34689049136630534,0.2932082811562978,0.23740047153689472,0.17674634133543113,0.11083280936033943,0.044780376983880404,0.0,0.037784910780544995,0.10215024097540051,0.17144750019194252,0.24109116327810695,0.30741791000431395,0.3705679499714234,0.43098300632031306,0.4936461638037958,0.5553620961884523,0.6200750898407295,0.688943279563717,0.7544421875126301,0.8194514660998944,0.8803411927298355,0.914884039988551,0.9069579361523734,0.8949789174192317,0.8731765501138529,0.8442931018250881,0.818220522806036,0.8186416709118529,0.8416407072595573,0.8617955160564528,0.8737483038384224,0.8827440396640007,0.9005480905558272,0.9121912870177276,0.8995227717457639,0.9010313933899741,0.9272528267712534,0.9245348614250826,0.8685502707278288,0.8038351619649955,0.7363451411468416,0.6675130898434927,0.602650319469566,0.533829320589873,0.46502869461681284,0.4001699572455487,0.3313002993207578,0.2633505244778883,0.19811915853595916,0.1289444738373983,0.06876268709629216,0.0732617047559074,0.13682106057985247,0.19549064652123413,0.2519868371661045,0.31459035611376474,0.3835688282811789,0.45331035501368244,0.5217882761234116,0.5867310966897429,0.65546126597674,0.7206344770774562,0.787538980690959,0.8519607490730645,0.9137732603952609,0.9591978823006673,0.9667610299179765,0.9603908616045898,0.9434704075949867,0.9359969627415647,0.9625632738520018,0.9814039773180665,0.9874519018458523,0.9879863518216276,0.9604030727514599,0.907285423018481,0.845219634745332,0.7788494554452092,0.7091924302145379,0.6395166837145639,0.5728090667505199,0.5065336487301292,0.4378907079841273,0.4086380140563609,0.46386278594054675,0.5286438990166402,0.5974714455300825,0.6659096449199422,0.7308606449064807,0.7991238740296158,0.8638616786726756,0.928556391998439,0.9731523013499288,0.9605348300381227,0.9340844664901213,0.9191460913130431,0.9302210499309529,0.9243208964366714,0.9075391234308614,0.8952014211099744,0.8874592260860994,0.8688662355160754,0.8455731872300549,0.8365524648566185,0.8602797503591357,0.8897599641388831,0.9106884391448533,0.923236083262037,0.9381839414024582,0.9304959135784316,0.8837907604347544,0.821844628302685,0.7565221370800397,0.6900000171271948,0.6236164162801466,0.5571025805660313,0.487562185663852,0.43438605642548067,0.46851615369008603,0.5374059579467584,0.6033844547305339,0.670395820704954,0.7384260252505843,0.8035306929837456,0.870287402024712,0.9314558568652784,0.9540969912277846,0.9383472635030148,0.918027952387751,0.9222201961488183,0.937296986974667,0.9359773044300088,0.937627752044097,0.9435480478305915,0.9387446519359026,0.9224543158743186,0.9197813160487629,0.949064816750609,0.9798728907735175,0.9960491265293436,1.0,0.9972310435100133,0.9653008802767922,0.9093823952192119,0.8426875424054512,0.7773011664663088,0.709714404134856,0.6433108199612089,0.5767608048884011,0.5071453533048539,0.44722553239658713,0.45896963191466067,0.5100024004437445,0.5570090760358944,0.6098270040773497,0.673812169209203,0.7431963770007218,0.8103700068450337,0.875508285276978,0.9389388489465365,0.9793603553593242,0.9644140854363692,0.9381091521729241,0.9280126636473665,0.9418289042539207,0.9364453331208387,0.9275725985381031,0.930739757950132,0.9254285253471775,0.9095308635975006,0.8998871271164426,0.9224754958123802,0.951742631158556,0.9717997326461194,0.9788198927295226,0.987001955940523,0.9727639209102523,0.9302409710248576,MI
0.9023470906683428,0.9124790134961742,0.9194274115348833,0.9183090362317623,0.8983065491758553,0.8729888431150732,0.8815339030931653,0.9062553966399065,0.9308554649510521,0.9005194649650479,0.8110078849841575,0.7119049789916936,0.6120757390156095,0.5086397120374628,0.39863196590169503,0.2982554574669418,0.1950642714258728,0.09258187634377535,0.04334034238736706,0.10480068044702318,0.20350790621579717,0.30982464626137096,0.40753129769044305,0.5166864317500135,0.6190099953783945,0.7189774587050044,0.8145637203883895,0.8960558218533716,0.9189990256580352,0.9064334701540377,0.8686326116780352,0.8341819764038902,0.7962983767548022,0.7430148300322053,0.6883987338193269,0.6397534858628493,0.5935275898075805,0.5810123755375898,0.6160889858947742,0.6774970299844068,0.7450376321642254,0.8189657744164043,0.8777557799683682,0.9140675769712332,0.9234635991380835,0.9321793869219968,0.9205424244268889,0.919513848602401,0.9195130990649916,0.9192594753381358,0.9106958159131318,0.915699081108496,0.9105728034174847,0.902353414134657,0.91097313465206,0.9181441651130715,0.9073137173370327,0.9172006657775,0.919501219974471,0.9162164159167983,0.8916997309879271,0.8967577817323011,0.9191207844194929,0.9486152014030402,0.9089117588122462,0.8360182636510465,0.7444839026517069,0.6378865424476392,0.5407162086613306,0.4326558722746898,0.3256321935291835,0.22811837037213545,0.12172559400381733,0.03778809692573848,0.05058152884512479,0.14374453749229943,0.24451215787760905,0.35198859748769085,0.4492135886279556,0.5568543160191162,0.6545386403090365,0.7562301327755061,0.8504578567319045,0.9066047022220101,0.8900778163418703,0.8633154667052532,0.8373802752411166,0.8032603358740804,0.7614029073012847,0.7131610356880378,0.6589050064748516,0.6131538226885382,0.5896079989969194,0.6088238442522802,0.6643560714177386,0.7276201492592098,0.7993463713859885,0.8690736501747782,0.9108554054913132,0.919430276167525,0.9195130990650902,0.9195127270236267,0.9186361387037065,0.9063252826698651,0.9038153921755505,0.9170222528815857,0.9195072401456321,0.9195130990651146,0.9195130990651186,0.9195130990651217,0.9195130990651252,0.9195130990651292,0.9194951883692113,0.9153042143584358,0.889160099453222,0.8806329045106902,0.901574321848678,0.9142900157444047,0.8923022549191115,0.8062867997038445,0.7028159581645848,0.604797106203975,0.4964328123740511,0.4100069294777602,0.3258165970212845,0.21855783745929358,0.12146779816521436,0.024374135107752437,0.0,0.07869452753719486,0.18376634066402175,0.28120587153964616,0.3888605323303227,0.48619465803519857,0.5914489241969942,0.6883063132265961,0.7858367698174664,0.8592640819339827,0.9007363331623526,0.920373484051193,0.886922335845433,0.8058374824090611,0.7087953490103742,0.6086162114519595,0.5115783759932415,0.535055289301885,0.6410390490677482,0.7440540260925657,0.8425112467489964,0.9294145766531257,0.9689039221435691,0.9606386675633698,0.9472052290753874,0.9448507284363452,0.9644143864547203,0.9690106153376923,0.9616040742770982,0.9614970692819611,0.9614970692819576,0.961497069281954,0.96149706928195,0.961497069281946,0.9614970692819425,0.9614288015960533,0.9569131482606883,0.9596352214352066,0.9614929965500072,0.9616717852401861,0.97025961412804,0.9786614693971232,0.967539970859514,0.928060152430541,0.8675877221746138,0.7988992158388695,0.7315543941291538,0.6680441228857856,0.6417684964513946,0.6758067112953294,0.7287426006382702,0.7812526172392946,0.827152374850896,0.8635598160109415,0.8925938352646101,0.918822436216749,0.9443015093753542,0.97197337889751,0.9554834373829126,0.8783367627031589,0.7832837237847969,0.6782986458906359,0.5805538125141476,0.48232252382566676,0.5080586438665784,0.614929363737196,0.7127352465889087,0.816372154920082,0.9099729633830207,0.9860967077998497,1.0,0.9874012931482086,0.9575995479085364,0.9533679391169945,0.9628589506959022,0.9682426461839464,0.9616259251875259,0.9614970692818523,0.9614970692818492,0.9614970692818452,0.9614970692818416,0.9614970692818376,0.9614970692818341,0.9617904694992565,0.9718605644692997,0.9788971843465628,0.9789903902055004,0.9789900736655137,0.9782750706539556,0.9663578432745923,0.9587447368536735,0.9239711882318224,0.8616367099398121,0.7912758738699579,0.729851112053685,0.6636077146531276,0.6415818331855792,0.6850272351012929,0.7317167546199665,0.7888304721633346,0.8393111878142498,0.8780941698830076,0.9133387338199213,0.9506425889169505,0.9613810717078093,0.9604325101332476,0.929165419397469,0.8632119180180831,0.781752886250684,0.6823698634710644,0.5833328199826497,0.4814537603197828,0.49039829795163525,0.5961996348384146,0.7065502589420349,0.8124508372324262,0.9043901012680791,0.9680694964169092,0.9779932197368661,0.9596321501277378,0.9331521042519668,0.9250924714615905,0.9519600780927227,0.9613768345185778,0.9614969978837453,0.9610643255911886,0.950299942065794,MI
