0,1,2,3,4,5,6,7,8,9,10,11,12,13,14,15,16,17,18,19,20,21,22,23,24,25,26,27,28,29,30,31,32,33,34,35,36,37,38,39,40,41,42,43,44,45,46,47,48,49,50,51,52,53,54,55,56,57,58,59,60,61,62,63,64,65,66,67,68,69,70,71,72,73,74,75,76,77,78,79,80,81,82,83,84,85,86,87,88,89,90,91,92,93,94,95,96,97,98,99,100,101,102,103,104,105,106,107,108,109,110,111,112,113,114,115,116,117,118,119,120,121,122,123,124,125,126,127,128,129,130,131,132,133,134,135,136,137,138,139,140,141,142,143,144,145,146,147,148,149,150,151,152,153,154,155,156,157,158,159,160,161,162,163,164,165,166,167,168,169,170,171,172,173,174,175,176,177,178,179,180,181,182,183,184,185,186,187,188,189,190,191,192,193,194,195,196,197,198,199,200,201,202,203,204,205,206,207,208,209,210,211,212,213,214,215,216,217,218,219,220,221,222,223,224,225,226,227,228,229,230,231,232,233,234,235,236,237,238,239,240,241,242,243,244,245,246,247,248,249,250,251,252,253,254,Target
0.9751290412337525,0.9577664251538003,0.9546995093197415,0.9488105622383667,0.9427667349634381,0.8991617647140064,0.8578509460725658,0.8518125469304021,0.9016005179118125,0.9569218514490963,0.9735229367472711,0.988302306651548,0.9999999999999998,0.992427133883991,0.9778769462443708,0.9603712244988467,0.9526649715604447,0.9411217081029972,0.9308300748409366,0.9172438408934818,0.8902767078971314,0.8588452435170837,0.8528400709287882,0.8495120203640525,0.8289529415348578,0.7866269762198237,0.7366120992992111,0.6911354253671917,0.6476308362041492,0.6317998924811252,0.6615262567105327,0.7045354881883188,0.7336244828252116,0.7627144166258266,0.7905945245791972,0.8132244819822252,0.8235997182154922,0.8077885764362049,0.7600565606322147,0.6993136981187982,0.6345875042515243,0.5627453373907683,0.487723791785603,0.41446861810630997,0.3567399261468238,0.3991279836422703,0.47615593647896204,0.5582713093545155,0.6398487004725555,0.7135943097948794,0.7926584128144856,0.863650178114377,0.8709642899339254,0.8504109860040996,0.8427678523492459,0.835902440909519,0.8092895637952766,0.7643258887840443,0.7491408502490557,0.7939337156947348,0.8370495923978329,0.8491753474857553,0.8495179831203028,0.8493196220692141,0.8425520523709893,0.8340220331594081,0.825820816797675,0.820861409678594,0.8079033437896264,0.801398285097507,0.79995831471639,0.7953321367027748,0.7894616972969417,0.7918482903959316,0.7883554632303247,0.7750895262362012,0.7500460971236005,0.7134200497970244,0.6706999757414662,0.6233473038064579,0.5779104636672419,0.5749403545265566,0.6159162823696178,0.6656425866622613,0.7161278126158688,0.7734906730813489,0.8396624042926386,0.9014746966314438,0.9177752383208293,0.9175517051220121,0.9096622963795313,0.8929568368513585,0.8500436553034441,0.7957670601640963,0.7335736806749686,0.6653032463501003,0.5951294790373016,0.5240200765348011,0.4928657288820406,0.5608515538035646,0.6394997170300654,0.7135858468580265,0.79475287235017,0.867347953770649,0.9129640398035239,0.8903392893624968,0.8876296794416765,0.8941254428866412,0.8736259101802297,0.8479896856578977,0.8062180243270871,0.7858961758704495,0.8154309242039044,0.8586795313205731,0.863745774751399,0.853487904608236,0.8380881156338038,0.8211335501191073,0.7882331882022691,0.7929646096447305,0.8065696628149155,0.8183415479115059,0.8071835183201852,0.76218862800423,0.7326363349502458,0.7464780781375977,0.779983686737906,0.8207197765794758,0.8473464670295103,0.8536314788457224,0.8422389286197727,0.8014251546045186,0.7256982785779929,0.6467943805996796,0.5729018093019125,0.49127895573249636,0.40912710193704926,0.33048012149210737,0.25635562925420463,0.17466789832884877,0.09671754163865498,0.033563209513676195,0.04798055662521783,0.12057243332547696,0.19398202965324152,0.27411665132163554,0.34727184845473413,0.4274553805032162,0.5026261153567839,0.5785822305545207,0.6493215365536789,0.7161369974687113,0.7798463082290068,0.8381096782708106,0.8668536642948006,0.8736665710571543,0.8761690475457391,0.8473977499576064,0.7786662096184795,0.7175001158981118,0.6640272082773859,0.6168354001961482,0.5712939045825951,0.5340359216658952,0.5293655819713512,0.5639808649881259,0.6076814987575394,0.6543227065748045,0.6976249300796487,0.7306844116013007,0.7458607417571514,0.7481694185049785,0.7483126481048281,0.7542717760827546,0.760217045372471,0.7657217757895025,0.7725054164801015,0.780422982828556,0.7889264109768779,0.7977907388736081,0.8033409378247414,0.8078480245074964,0.80849781083167,0.8072424242015535,0.778915541879539,0.7252115394111622,0.6962185615960435,0.7131071261378654,0.7458074623410735,0.7866955391532229,0.8021362790304665,0.8083065104026772,0.79993495386554,0.7428401041939927,0.6618942172709665,0.5876584450419471,0.5091358306033551,0.4270275747366328,0.3491454577029749,0.27437351336866156,0.1925103760686544,0.11033760293102501,0.031346070775134516,0.0,0.04063826765247214,0.10743627915339249,0.1851419134695962,0.26343382840662555,0.33779089061146905,0.41623751303447665,0.4891192362598331,0.56157261865571,0.6344221514660997,0.7022917196190888,0.7620805314056451,0.7809605804456905,0.7659027305990171,0.7402389927751198,0.7158228682721892,0.6836206236314373,0.6475973349625244,0.6074185788783204,0.5847284344669845,0.6018286403440534,0.6407182610254223,0.6837895087730943,0.7338592940155675,0.7827436301010142,0.8068883503672593,0.8093291732265591,0.8243469334139149,0.8541481398847812,0.8785265114713725,0.8943274356531881,0.8994374037343522,0.9130192888607886,0.9192386394410132,0.9359609906438202,0.9519735576965329,0.9520812361548063,0.9419520561411996,0.9258206388617467,0.8803805797780078,0.8213405343462419,0.7915027871312235,0.8115471794113212,0.8511798422475723,0.8914742298023401,0.9138758962218512,0.9208451801250337,0.9133422784884242,0.86665020042708,0.7928596762075362,0.7110043752767916,0.6353812948130755,MI
0.6096882235569936,0.6150259729102601,0.6145631303510513,0.5819292909510905,0.5176265114703602,0.5475400581821681,0.660761637010971,0.7848298732679844,0.9094765248806951,0.9958821509945119,0.9635556417276021,0.9346973348740004,0.9300970188214421,0.9154445419870818,0.9295262203953509,0.9039572329385193,0.8748047889845392,0.8258447819986614,0.7668552463730318,0.6860231020092282,0.6356565677543973,0.6844468863530819,0.7695321960001325,0.8263602721176122,0.8306608291365531,0.8306683966947048,0.8335323903762406,0.843702271757202,0.831174306573776,0.8286276763221911,0.814222850690836,0.8289935799303674,0.8341507673441839,0.8539190850509852,0.8565175059137076,0.8539747324343185,0.837347439297508,0.8535029564636059,0.8470730669866651,0.8049174632860376,0.7338191244725776,0.6496834922912385,0.5569942467287312,0.4552103898177755,0.3406856883208764,0.2361064823566581,0.14106416552250645,0.09893777937294068,0.16583257003216545,0.24998655943148762,0.3224337542131628,0.3701362236271142,0.4238189471775451,0.4586649030227772,0.5072798114089316,0.5407804271005912,0.5568835877729015,0.5427535385945568,0.5015055553435213,0.47473473970796487,0.5811585673100845,0.6962391789963913,0.8188675829227652,0.9377173543164723,1.0,0.9412611591275031,0.8843298701894273,0.8711276106533825,0.8566362718926861,0.8434294343487698,0.8231538077213711,0.8011225437811298,0.7604006473279199,0.7118118979228214,0.6431362415063164,0.615227298696257,0.6800982728809313,0.7445924759634179,0.7983412379188639,0.8163731722985341,0.8181501492943761,0.8050725907352501,0.8048059903715163,0.8056611038644332,0.8230405266353431,0.8306241823144562,0.8350702399641223,0.8501379344553586,0.8461461068146816,0.8652560808163452,0.8610208274008384,0.8707498295026479,0.8666524827514328,0.8583203491260196,0.8300459893660772,0.7669095545391746,0.677915045386273,0.5807608344112696,0.4870559137537134,0.3899749857359218,0.29264058257468095,0.18750841198655532,0.09921947203985804,0.11101307901240576,0.1988527152574493,0.28707280320016215,0.36606196106513833,0.4177413465047559,0.4677050247875689,0.5157849627089899,0.5404484981965556,0.5600192105312818,0.5618201385958246,0.5490347200000238,0.4708585961260807,0.44487246042583806,0.5465553640598912,0.6726344342208765,0.774875190078979,0.8758194413434968,0.946255933338926,0.8981440504376099,0.8815131702671515,0.8541753391283837,0.82217713110047,0.8183220517287788,0.766582689496647,0.6435934908403134,0.5187570375272692,0.45917074872767305,0.3675614016096378,0.2219689256586861,0.0778256865153284,0.0,0.0011194725756524804,0.08315491268180475,0.22576665550774822,0.27904250901068606,0.19728656704586323,0.22432629112496683,0.3235040863029375,0.40521758250522444,0.4763090410627946,0.482738637457663,0.4627218875825898,0.42585398507767813,0.3739628420964132,0.3227315796215775,0.25516370576438474,0.17726200630043953,0.07485762059200995,0.010285640133420149,0.0013809457464630803,0.06572092792896411,0.1547154124925374,0.2568760970089583,0.35282217518233594,0.4542644693966791,0.55907841422649,0.6469575416351541,0.7276966945559753,0.7844036709390547,0.7935471556049407,0.7837204880129898,0.7935104675770077,0.7824895916629817,0.7688894161376396,0.7655017396440433,0.7457318815521585,0.7427487394154388,0.7426826096342687,0.7345832310486538,0.7351083046966309,0.7364107651704446,0.7332813475544544,0.7388036239670157,0.6851344137288198,0.609750221862793,0.542710651628771,0.5179663423660985,0.5616776991369212,0.6318271026445199,0.6886621024173092,0.7324203422426931,0.7468824922585311,0.76656915581178,0.7776822167742781,0.7949044095399582,0.8141539242320945,0.8216715550212932,0.7319237687776381,0.6140069260936629,0.4932263675837092,0.3595742881648336,0.2754171096811002,0.320801331746964,0.3861322878496134,0.4502818933547106,0.4745016179069852,0.45818827260383,0.41630331784359376,0.3751104318632392,0.3286779204981083,0.27597838398986596,0.2140313034769883,0.13323337680978264,0.057854236739240505,1.2876665650640717e-05,0.029459641847192852,0.10644975575985427,0.21245944211689594,0.3241127979719165,0.42438916803094173,0.5226638337942955,0.6151872838342447,0.7002102948390228,0.7619112624079225,0.7685926053832954,0.7686035385697014,0.7686035385697094,0.7686035385697156,0.7686035385697227,0.768023205334619,0.7517640556138305,0.7482521976629828,0.7671313505233615,0.7686029971148072,0.7686035385697609,0.768603538569768,0.7683996098625192,0.7496918533489731,0.6809083187972567,0.5900566434091186,0.541852263880716,0.5589405223332848,0.6365155980565529,0.7098729145796918,0.7675269974133458,0.8142019305072168,0.835612345759027,0.8296864989846293,0.8379653237781142,0.8541833080046368,0.870542981625074,0.8342106818902204,0.7147262457774772,0.5777783196006459,0.4583545167359322,0.3352992053446089,0.29368014456437974,0.36547320445435316,0.4487008380750295,0.5148353130061665,0.5337343411634956,0.5155345733825989,MI
0.889345802725108,0.9184571514603912,0.9383374920657215,0.9315493094838672,0.8740665582669866,0.7813083971484207,0.6809891811936131,0.5803451049912633,0.47826305430650184,0.4246934281872774,0.5108492712312731,0.6201745020498481,0.7260820542007733,0.8242808184728012,0.9226206212715045,0.9974227936529181,1.0000000000000002,0.974352252130813,0.945019816554759,0.9230702786380711,0.946565639250261,0.956928633501031,0.9570406850513897,0.9565027886389179,0.9465103671718509,0.9416944614643599,0.9416541072451554,0.9416309593456187,0.9377607293820327,0.9270623366297495,0.9258214275598691,0.9199298489452301,0.9254903756068138,0.9262698687136506,0.9279602533076405,0.93867791302645,0.9160606245735987,0.8572614919030956,0.7917740223478333,0.7164463752489205,0.6409873888838209,0.5762041666367852,0.5899071800235196,0.6452775550121908,0.7055145257886217,0.7606315671961761,0.8122213133904392,0.8527109554989682,0.8774897843149365,0.8949997872447246,0.9096350524393315,0.8934567900441739,0.8133427497800938,0.7175454832588579,0.6166159039309107,0.5554898730563813,0.6227606806100636,0.7290796637387109,0.8270855396433177,0.931602572474638,0.993142702863379,0.9733254775524396,0.9464890059426299,0.9198727131316551,0.9128273415809842,0.9375325803418695,0.9334326004077729,0.9264016075950241,0.9262972045833917,0.9304538588833904,0.9341116238157074,0.9349571696952819,0.9360255134867199,0.9336798288674475,0.9414272274113962,0.941654531558769,0.9424708481182684,0.9512408748336296,0.9434702915395625,0.9409056283182335,0.9194528731589238,0.8640933885645474,0.7962256389741771,0.719375442517358,0.6419407185140786,0.5731426072633805,0.5557619750667036,0.6038528995512442,0.6665345045579658,0.7157664268375312,0.7650822176405925,0.8001157808652997,0.8359748664827913,0.8515517858831239,0.8570093974523478,0.8147005373020437,0.732097092336913,0.6347346960092886,0.535153417615694,0.4349233389703875,0.3957637310619331,0.4854156137050871,0.5947176721825891,0.6983064823266487,0.7899659328435515,0.8587524996544647,0.8861234065180732,0.86120219841495,0.8252272924049937,0.7925635632453856,0.7865911612283443,0.791255450593235,0.750414064110094,0.6760441712002894,0.569153473029681,0.4787079142677657,0.46555349390780454,0.530554438003408,0.6378064639424201,0.7184592458859831,0.6870296735083843,0.5874790924820428,0.4899334203202843,0.46139011919014483,0.5017733036226903,0.6042464101175142,0.7061399863203903,0.7634967910846486,0.8015023792414728,0.8181077549600009,0.7538149600686739,0.6570507291041634,0.5530433140533375,0.4520439536690535,0.34921850736461946,0.2411589448609841,0.1430254067605421,0.041823984020011196,0.0,0.07441228110220233,0.17186050297922972,0.2776746973900066,0.3765808437241607,0.4815031725351526,0.5814607106748195,0.6824865226177559,0.7704333856465946,0.80889009808223,0.7947969808539048,0.7614894548420648,0.726559955694847,0.6768942812397734,0.6276572589943703,0.5664665409478753,0.5130294352548315,0.49482868896694865,0.535845000427966,0.600075028503287,0.6757961241970156,0.7523409111497801,0.8266500592170389,0.8840439689849331,0.9039188009993107,0.9047257840869525,0.904726077842535,0.9047254832358254,0.903791769765643,0.8927701500006406,0.8916243520616145,0.894286111234299,0.8801439477548778,0.8886196756808318,0.8893391221985072,0.8893393989247802,0.8893290516556622,0.8859628664271593,0.8603824141859879,0.8558436847171416,0.8877338635605343,0.9162315956665876,0.9129226208675292,0.8337881299734147,0.7347341647810113,0.63270711384974,0.5238885583007298,0.4243327834096522,0.31983565136769454,0.21043110211047233,0.10455067974162979,0.05751128317986898,0.12188182033444095,0.22420004566601137,0.32250060893371457,0.43059590495569533,0.5310641024378577,0.6337248174183026,0.7322191979000034,0.8237834679906573,0.8566242044597219,0.8412671521824173,0.8166452546825773,0.7765890492715182,0.7252069497348088,0.6704339983667207,0.6110005462159858,0.5530936496336192,0.5236255610388951,0.5511299004004766,0.6169979160181362,0.691810245555281,0.7666852157969102,0.8368058839724555,0.8884229301050282,0.8910340667717789,0.8893432935653733,0.8886103283617308,0.8781163883484375,0.8787023743477678,0.88790579313983,0.8815801651085351,0.8992316215628768,0.8974518498140418,0.9022728725094653,0.9047212507562887,0.9064619650497987,0.917770790268327,0.9124056608971063,0.9114883147624331,0.9052041965463051,0.8656429308249096,0.8647632656913047,0.9039651319702073,0.9327296335597326,0.9360462426446541,0.860621287546304,0.7576427503511975,0.6578491218062543,0.5537181908688267,0.44740958799272046,0.3491368603543463,0.2429364794133213,0.14595947114015928,0.07851925695828132,0.1283208544403689,0.2095840919287677,0.30329082340454017,0.4014989329890659,0.5076474962316289,0.6055560215974476,0.7076435320625347,0.8048785477135778,0.883080072558623,0.8902392273907098,0.861690128543928,0.8313902573248482,MI
0.40464981599119243,0.40272959502814754,0.3804067334369914,0.33903547794883204,0.3079512988573607,0.33016701826600636,0.3879755246259431,0.4483407925124929,0.4966648713174613,0.5289536722138029,0.5335867943677783,0.5616503089270184,0.5828989144571586,0.6644873494887205,0.7629215902946065,0.8651984009300255,0.9605206453545705,1.0,0.9277466635799065,0.8270750385654755,0.7257247647683092,0.6201112713377865,0.5205503626232328,0.4124279235202044,0.3200452474433577,0.3455242414970483,0.39004699195250936,0.3743222478467998,0.31438254020035794,0.26656122849815045,0.30282034460721663,0.35442397349194277,0.39506548164456223,0.40989568820070366,0.39899742187165677,0.40504948443790134,0.40692641271516283,0.3939426755694373,0.36149813284152055,0.3229802017425083,0.3178658944346231,0.3639442828166626,0.43293975169327625,0.4937609720578062,0.5302027688336874,0.5509834920577941,0.5428731756554961,0.5504754752482102,0.6018707235952352,0.6862445143531501,0.783841381448088,0.8836388282540271,0.9680356591397583,0.9424458022293387,0.8443423011075994,0.7445704410539182,0.6363952348697985,0.5345155610757026,0.44655387183691975,0.36254419111190517,0.29732006335966377,0.322582551641013,0.38545648599187743,0.3880357041930518,0.33169920901604755,0.2666274226205818,0.26657694487805106,0.3223673065032009,0.3728742073553404,0.41007729192541076,0.43483865743037997,0.4142479880771939,0.3997492500358111,0.3995937287535454,0.37153931502316695,0.3337408114941325,0.2977302919891365,0.3229830963656952,0.3803970357790827,0.441080039648738,0.488175973911408,0.5339070354597948,0.5442217766850224,0.5394858587484106,0.5665755824429066,0.6253622971944184,0.7143184844349921,0.8125674761912527,0.9148264082164861,0.9772089337614274,0.917420327801294,0.816740781887487,0.7102675384214776,0.6111330136874895,0.5034957829147388,0.4009600234502937,0.3062498501669393,0.3082308441046915,0.38156096053907396,0.4162081439805396,0.38229055112653,0.31545788303029276,0.2616497337562498,0.2909306085690919,0.356433676224468,0.3939470393101798,0.40044720883282503,0.40460451919702045,0.3931423387840898,0.38061675530972217,0.36608155930910113,0.3368627209732358,0.2938637460115041,0.30268299231210616,0.36118062524760175,0.4188483829531826,0.4783001531561837,0.5180427873027149,0.5208680216862462,0.5286340091260726,0.5172105704709606,0.5580537525699576,0.6290983753358712,0.7263072222895421,0.8247678381003873,0.9180155014154532,0.9379588051541741,0.8502693167333213,0.7658686634475802,0.6938632014211028,0.5921161237071852,0.5137074029194739,0.46559970329020084,0.45985760217640825,0.46272584232787395,0.46341187521716476,0.4352922004971975,0.3757488025804818,0.31343901327443824,0.25482027454220857,0.22647761909623432,0.2412072203936937,0.2878873004407905,0.31668845398701384,0.33447764002764924,0.3315098732144577,0.3156542763762955,0.35056822655090425,0.3419016993092203,0.3050958954898948,0.2423686087692749,0.19195660741320975,0.2200121315634469,0.2871251521275804,0.3445961016755943,0.3335336492373169,0.24665741144045716,0.14968042924248492,0.0582289479589031,0.028880570671692807,0.10441948692703029,0.20870030076870538,0.31523424918359755,0.41443154855562003,0.5221210517377002,0.6242242586930842,0.695282662752609,0.6391131103741969,0.5591964850539983,0.5120018545031901,0.4887594551623571,0.4854179982090021,0.4561007031060744,0.408335251911788,0.34889990818232475,0.2849617921667593,0.24529896024815656,0.2565525452955142,0.3012236154206511,0.3385503922130968,0.35204014077002554,0.35860532655441846,0.3843414829559566,0.37575172845326277,0.3374847378703709,0.29316461506273894,0.23690875046305626,0.2006134028463462,0.23338889458281287,0.3018825472745945,0.34276293064691066,0.2956406058900938,0.1970662835562158,0.1001426269797403,0.02792731269107529,0.061688191946317694,0.16182866799917917,0.2615289169934316,0.36699717485932304,0.47007275428190454,0.5718948884036239,0.6743739827234054,0.6782581985539129,0.5909552179636219,0.5263608949199825,0.4877685151263851,0.491881569912219,0.49020094194462427,0.46206131852920684,0.42011967839130904,0.35026030370304495,0.2920894686401505,0.2512452890651131,0.2538391308614787,0.29730388648606176,0.3366260178124518,0.3360502237962746,0.33126764315483603,0.34187801668161555,0.3493068158344834,0.3217676904076159,0.2723704397309912,0.2038147682796203,0.19380921320732192,0.23282832104315654,0.2987087114958338,0.3285096224689714,0.2665773393612141,0.17042735545866838,0.07363939389428853,0.0,0.03913845419088191,0.14199576336592212,0.24115861181324227,0.3402616460669643,0.43212291701274674,0.5331436763011537,0.6357066687789725,0.7108227909302589,0.6535611492516855,0.5661237166213464,0.5072173323654354,0.5030899743942454,0.483100787621042,0.47413863842180204,0.44809942511506096,0.40487373198485876,0.3463919518001797,0.28467025634396226,0.24197243445723693,0.24886306374773026,0.2848522127004607,0.3320493637194688,0.3452382735273569,0.35513888469909993,MI
0.7960765263863876,0.7232324567075437,0.6220530271586626,0.5291082953649129,0.4419606016211377,0.4014521524263399,0.4651383211375544,0.5442556409500812,0.6312103375147036,0.721765660437959,0.7950521602309397,0.860264933655349,0.9226095843729087,0.9714213347328977,0.9907963008959335,0.9947438114611034,0.9991684447048703,0.9790692085830428,0.9197731190809217,0.8333747371664892,0.7212849443318876,0.613799931713765,0.487817944839108,0.3671919734454612,0.37036101426511037,0.5016756013676069,0.6325737641889164,0.7642153882164391,0.8793253504920706,0.9834450004048128,1.0,0.9733381986689702,0.969215665552158,0.9509916717614577,0.9296752685283272,0.8300055280488134,0.8039476155273371,0.8620830997306994,0.911196387224531,0.918750645441782,0.9198844413043172,0.9339351973618624,0.9324637820243096,0.9292935685839296,0.9458811698707272,0.9458141664278568,0.9075043425596925,0.9127396497930427,0.9165933320374591,0.8992039803188643,0.8939985108370774,0.8820242988995148,0.8826976377245064,0.847073005791338,0.7713328697029791,0.6779200904613858,0.5891220671627937,0.49261691526287565,0.4053634231737875,0.39304577673929675,0.46431901328892033,0.5401332354939061,0.637571568397679,0.7325082823354387,0.801324665864799,0.8655418581484691,0.922728207195834,0.9526713053882854,0.970872097437987,0.9840352358639222,0.9670109309719002,0.9334917087319501,0.8415553610082909,0.7342442871875847,0.6396511153407292,0.5307707976737852,0.41567724020279595,0.45684474081959836,0.591149414973116,0.7184105687734141,0.8410158644692243,0.9505556276970557,0.9812275203279435,0.9687985466488116,0.9575639845004993,0.9267136807501268,0.860056513348562,0.8250642784727367,0.8696853051901035,0.912146700705442,0.918763160078861,0.9227948909272787,0.9331923006356004,0.9504678491222118,0.9449256167638005,0.9289752096614241,0.9081248472546686,0.9162828796539975,0.9033231142709051,0.9146783676130643,0.9016377547381151,0.8956786546994047,0.8956283512748313,0.8905853065057241,0.8476960290645694,0.7825250934521661,0.6963419246606373,0.6089527151877094,0.5034171402685308,0.4109996907360922,0.3842262580617133,0.4495695618749229,0.5408654245164413,0.6239889742911235,0.7141387258002845,0.7882231471098096,0.8604296001986684,0.8981588911515539,0.9416487602744423,0.980278439755708,0.9880876407369903,0.9818254663359962,0.9525449811250066,0.8884828284876667,0.8322499447262346,0.8558536015445766,0.8705950806337297,0.870850576521526,0.8446584894299902,0.8085229298956622,0.7581349794879197,0.6905675169045753,0.6011550853158356,0.5141500831127024,0.43044198884451745,0.3475312933043768,0.27419005758178816,0.2601245149375506,0.31350280885507464,0.4228950248108658,0.5151623374197132,0.6100757427163908,0.6936925298943675,0.7611474308666031,0.7907633995102219,0.7803549060073287,0.7910724202449781,0.7938655276926956,0.7976281357027295,0.8040590966505672,0.8109181226931184,0.8113014430359327,0.8259247407729551,0.8292646592735697,0.8362387965776894,0.8315740974315684,0.8199515277091183,0.8090786118624544,0.8210927640221843,0.8089138836144047,0.7545966248603619,0.7078812712394411,0.7471897784570714,0.8231638642150965,0.849029616424477,0.857787488366069,0.8489890281938823,0.7982129697470448,0.6734152263191637,0.5283500320523435,0.38418987274469973,0.25547833801758424,0.11873276733393379,0.014866093529708024,0.024540988983611012,0.1409507327725983,0.2699010052152073,0.40804601998659207,0.5318888578153618,0.6374064733669562,0.7529318757517416,0.8281162406688463,0.8623193796701867,0.8610192018422125,0.8420642041085702,0.8286716464330537,0.782988149745127,0.7212009015697958,0.658699679222003,0.5735648900403802,0.47009594179491554,0.39191109371285116,0.31306787486712206,0.2589970083267188,0.2779282319533345,0.3620449239278103,0.4610020846427898,0.5560577011397703,0.6505994414380942,0.7297896657866261,0.7692346886160419,0.7829571354142764,0.782324402089777,0.7931212778855046,0.8072524012806834,0.8102227921499052,0.8171894237973523,0.8287730394578796,0.819029226170914,0.8296145985406302,0.820126436986294,0.8090975400718476,0.815425021106813,0.8143883037004134,0.8023949917596971,0.7598393269389057,0.7004628894554763,0.7027540850625522,0.775813146420905,0.8323673517302073,0.8622485535770936,0.8766012828474303,0.8466016773793394,0.7198587767361713,0.5906544048446492,0.45581132348384124,0.3225929655692741,0.18559049199081334,0.05932119906307154,0.0,0.08175403747157839,0.21540508568725603,0.34327722348992706,0.4711761186076697,0.6014973416436926,0.6956873445951852,0.8039273810857885,0.8611224206906445,0.8783895984896373,0.8719291734038528,0.8607421527257406,0.8456431547491858,0.7986852353962672,0.7316110719745121,0.6615442218815586,0.576595040323872,0.4865940430356481,0.4072234915237809,0.32657090860578863,0.270444321455769,0.29892312688439526,0.3850947510649645,0.4744348954397979,0.5812502089237577,0.6732400677934813,MI
0.3934692249222782,0.3615172975830756,0.3835903351022938,0.40482336541541564,0.4183360069700912,0.43993952103037737,0.46658207750158587,0.5247902773089801,0.6307411344901412,0.7438636994280903,0.825397376749812,0.7937812685861596,0.6900578029147937,0.6264082818169823,0.5865559144468051,0.5708118255856025,0.5123651267344971,0.4231423960508347,0.4039110056651758,0.4771918865913207,0.5380728050563741,0.5570628867604794,0.5581980328364002,0.5540188606626675,0.5061661489152867,0.43615285691996064,0.3871440303168008,0.4105003569390582,0.4522009998737464,0.48891897359434466,0.5088264857663933,0.5434570268901493,0.591657825649333,0.680720560184144,0.7824263637021729,0.9027560380836124,1.0,0.9730490673693142,0.8526528039881702,0.7498530970500497,0.6848536781475518,0.6851338154312576,0.6668123946090128,0.6063165932929722,0.5120392437566452,0.45876194471861,0.5101513578825418,0.5804503831459136,0.5973976889834187,0.5711555025117789,0.531684616048727,0.47339924423678115,0.41630880429402284,0.39839528018467396,0.41230423277212536,0.44140915109239653,0.46891701663363294,0.4973915803233506,0.528584974721444,0.5873364983274776,0.6831480447237697,0.7983722772148885,0.8431809419094396,0.749720794765572,0.6551769451322671,0.6473137620746461,0.6371774815550295,0.6303999971396346,0.5819354850960772,0.5022597488447729,0.4360449257080865,0.4884435206305269,0.5563020948386503,0.605109705288815,0.6268124177140937,0.6010647643120408,0.5521815878938288,0.4916136619577798,0.4391415008952997,0.44318506099206,0.4782893763629219,0.495679621306909,0.5326422932896002,0.570751564424365,0.615441916143789,0.7099048988889884,0.7953830107083508,0.8242631449606694,0.7513152870877646,0.6814719143739412,0.6558852875143404,0.6371472160594465,0.5786885230190308,0.496556131617234,0.5122882156257944,0.5761918629838698,0.6284862744125923,0.629345869950642,0.6263378039287737,0.608976689175845,0.5564951701210443,0.491592380212154,0.45353082414204593,0.46933539027791804,0.5131269933138358,0.5259831310225609,0.543655822778093,0.5618281355245212,0.6068135675467987,0.6951830663306935,0.8080562135867053,0.9078823090725008,0.8895384427490232,0.7807845096337127,0.6837488280006307,0.6459017137286271,0.6353865027318357,0.6074421396246739,0.5209167883898282,0.44000152430350514,0.42484395411255393,0.49680041158258037,0.557169085932367,0.5775074834208209,0.5512993565314264,0.45616408313263346,0.3908742993196883,0.38472238975068196,0.32766340222309953,0.2273651605641982,0.09932248651336817,0.0001392655659340214,0.0,0.09630778706902676,0.1962959388553709,0.2702813514303264,0.3732524235127195,0.4303066492319316,0.45620234884953437,0.47603070549065984,0.4717371533762429,0.45441785445891236,0.5369234210547118,0.5156560719447483,0.421747878687603,0.37143421167038326,0.35448717284541686,0.32713483157494583,0.2982274536122618,0.2634856100777401,0.2519606452699219,0.28287950797651895,0.353188535977667,0.41107644754342454,0.44673460382357444,0.4415631877943671,0.42583392978005374,0.36910214360397564,0.2889995814962312,0.24669515779555473,0.32263591794757884,0.40340324275689543,0.45932960043412363,0.4799054975426582,0.45064491193055956,0.4536309489531769,0.5572236795508987,0.6521884405089677,0.5937260725627032,0.4895837176709783,0.4165444152943718,0.35535846394226933,0.3215973650200987,0.29128616400684537,0.2831499032738414,0.2528947738717431,0.24102526575052696,0.24985646494405822,0.2981453334740607,0.364529941175161,0.4064719101880132,0.41994629336638134,0.4298052832115049,0.38649845454155907,0.31932361908924367,0.2578945249515203,0.2923636079293246,0.37544378561102354,0.4371941731869846,0.4457618995472479,0.44946763671784007,0.5062208624705034,0.5720701779324271,0.5275388597198396,0.4429245665958761,0.3650450256260047,0.32722181160604347,0.29442519296593694,0.2778719068026465,0.2504432122557514,0.22031690850882502,0.20997502217751673,0.22703157849767974,0.2988129345627417,0.3539456754617394,0.39158860522150585,0.40327929616223157,0.3964261351337255,0.32764847473346714,0.2790957039768829,0.3137861065717602,0.4097434277492229,0.47932401068318287,0.5028863830699364,0.5083682595456613,0.511208550219354,0.5177434155540896,0.6081120930902246,0.5731592936976178,0.46422268335460126,0.38469279009033785,0.33691120619378934,0.3214828436513675,0.28648972226384783,0.2437172873035185,0.21431385442651196,0.18541308936880085,0.22271905111560875,0.2888684749623227,0.3509989750510467,0.3776985179192782,0.3738741995355279,0.3488355392993623,0.27967571314498674,0.20751827228644038,0.2339892509769621,0.3147303923875677,0.38582214729394426,0.4074946541285578,0.4298499993406,0.44391873502379786,0.5234230053327198,0.6391316620198593,0.7007057346950529,0.6106576832455661,0.4907490771183456,0.38801092820165417,0.30780693404968584,0.2563691211904655,0.2309922370020563,0.2125151144451447,0.19495986961598666,0.17932240253203835,0.17247105460499323,0.21909115442399596,MI
0.6995477730089719,0.7114275983858804,0.7633360950179773,0.7981881832259581,0.815687273014098,0.8324929785181867,0.8605256661130092,0.8553915104471685,0.8750557526319542,0.9096330795925591,0.9610407193142563,1.0,0.9947118714707108,0.9179354296281823,0.8184495069943885,0.7147107105391535,0.5976835642836353,0.4877633669042041,0.3776895441013455,0.26231659305891863,0.16284540926349544,0.09249492886549726,0.10355377514687936,0.15960957030961653,0.21990671092175829,0.27737795239141905,0.32921358879847107,0.37763961913102584,0.40231412138468414,0.43619506416427134,0.48068353598143876,0.5313275268160509,0.5727592695290404,0.526610932023782,0.4577686941117789,0.5270441574324614,0.6188692723699241,0.6642259247556419,0.647270858393449,0.6510088322044396,0.6517735493187025,0.6113969025118635,0.5614939213876928,0.535684080940297,0.5728181973540116,0.6322223894772172,0.6701366102424826,0.6765344311605723,0.6765677843150271,0.6729404328251483,0.6641035000954791,0.6543867773867396,0.6228734723548719,0.5850606179216982,0.5242975763227715,0.44949741377287955,0.36755049798789674,0.2911371675877623,0.2370494213710641,0.2760684180287427,0.337593511942861,0.4082754415808072,0.47658178698123965,0.537795990622763,0.5937457729553981,0.6484555858920062,0.6921062855079727,0.7457540194273875,0.7885039725315397,0.8273523216995402,0.8870681468367332,0.8580263091081153,0.7795715275876747,0.7335041411713861,0.8141091374122857,0.9091064229431383,0.9501391034593794,0.9166946328601928,0.8963877127327948,0.8753132169281925,0.8444016629080604,0.7919011299203325,0.7426976291625169,0.7567146453097005,0.8040951082154115,0.839408030750318,0.8364487141511683,0.8196547322521663,0.7756945402857021,0.7531161256030909,0.741072185318624,0.7150919584931579,0.6957190993269946,0.6575514211530278,0.5929533583798801,0.510604379515438,0.4250702495552945,0.34848903461359226,0.2750529696642583,0.27422631747951165,0.32810147093966613,0.3855833448288868,0.448867489463431,0.5000528229289274,0.5517787658795728,0.5728708630741166,0.5888350110245972,0.6231954521427046,0.6710785874044229,0.6993456818458679,0.6353195680115311,0.5776743408819196,0.6411729812668483,0.7410592262157216,0.8193175123010485,0.823048977278023,0.8080004106148211,0.7932505698353043,0.7571969915592591,0.7037311303010694,0.6584240313316969,0.6496045384340436,0.6963552880662438,0.7368259696712238,0.7376740657993648,0.7185236957304766,0.6752946265695736,0.6568084195152339,0.6140992177006166,0.5798601160554768,0.5860193456856684,0.6253936648508431,0.674830403256542,0.7194788749254961,0.7264132243189354,0.7443032238185334,0.6972619088590681,0.5966844518674521,0.4945624122250072,0.40286406425634214,0.3900729461244272,0.47168007549330015,0.5696210682442384,0.5822592625162648,0.5440192877869223,0.5099855661439454,0.4884018313950049,0.4669144102928082,0.42327475630414124,0.3676314316481828,0.30400990321115273,0.2441271573154249,0.19499325294063663,0.17665925717726072,0.22736627412015853,0.3023892531213517,0.38323938232241295,0.47645849304556487,0.550284744199343,0.5995785330676693,0.6298055934293578,0.6495418989846762,0.6634072454513436,0.6819132273230366,0.7310831819243053,0.7534199532480645,0.7566797725070664,0.7311631702184909,0.682269180640307,0.6539506340651053,0.6775405234152942,0.725227497172821,0.7780250934705193,0.815417559048917,0.8369203691983933,0.8606982815453592,0.8125285369543223,0.7141255348464455,0.6032832131009722,0.5666720456681515,0.6378813231528411,0.7374868728235966,0.7725051319867506,0.7244783343764309,0.69431881758684,0.6487831746318684,0.5987626961495818,0.5529051329922203,0.49001132311582163,0.4263777170565959,0.3609696952104766,0.29657844000348943,0.23026782890007036,0.172914815289968,0.1536830617500038,0.20478475056936318,0.277383619914644,0.35194459542229817,0.43591968151999705,0.5039044000930324,0.5263112038146978,0.5585583957554237,0.5681866115432421,0.5772796539956735,0.5917073917622084,0.5936235079612495,0.5841110330343038,0.5452501445505016,0.487890500049037,0.45223945743488114,0.45578469333154015,0.5043025318600565,0.5548890617821689,0.5797575630364173,0.5660263601691278,0.5703496638552186,0.5612201103830019,0.4668101899756616,0.3632796256229276,0.2772014428441101,0.29047122630500155,0.38317412227970227,0.4673197875351751,0.45688286177290305,0.41231425946686384,0.36323839287968385,0.3309576019717868,0.300783710572444,0.2567589777927033,0.20834672349242567,0.14630237335083818,0.08151755752053846,0.028625762114570463,0.0,0.029950393939450315,0.10429488254839159,0.19649875765925673,0.3088872809129999,0.42806271182757527,0.5472010639395442,0.658859976107367,0.7667476797868158,0.8647089096273475,0.9007765222490818,0.8604319243013201,0.8219773996882531,0.7870712854172366,0.7673994552616028,0.7614079928375421,0.7444402316505321,0.7299230981673555,0.7256811627378124,0.6807271664427339,0.633591665159265,0.6158419480535153,MI
0.40464981599119243,0.40272959502814754,0.3804067334369914,0.33903547794883204,0.3079512988573607,0.33016701826600636,0.3879755246259431,0.4483407925124929,0.4966648713174613,0.5289536722138029,0.5335867943677783,0.5616503089270184,0.5828989144571586,0.6644873494887205,0.7629215902946065,0.8651984009300255,0.9605206453545705,1.0,0.9277466635799065,0.8270750385654755,0.7257247647683092,0.6201112713377865,0.5205503626232328,0.4124279235202044,0.3200452474433577,0.3455242414970483,0.39004699195250936,0.3743222478467998,0.31438254020035794,0.26656122849815045,0.30282034460721663,0.35442397349194277,0.39506548164456223,0.40989568820070366,0.39899742187165677,0.40504948443790134,0.40692641271516283,0.3939426755694373,0.36149813284152055,0.3229802017425083,0.3178658944346231,0.3639442828166626,0.43293975169327625,0.4937609720578062,0.5302027688336874,0.5509834920577941,0.5428731756554961,0.5504754752482102,0.6018707235952352,0.6862445143531501,0.783841381448088,0.8836388282540271,0.9680356591397583,0.9424458022293387,0.8443423011075994,0.7445704410539182,0.6363952348697985,0.5345155610757026,0.44655387183691975,0.36254419111190517,0.29732006335966377,0.322582551641013,0.38545648599187743,0.3880357041930518,0.33169920901604755,0.2666274226205818,0.26657694487805106,0.3223673065032009,0.3728742073553404,0.41007729192541076,0.43483865743037997,0.4142479880771939,0.3997492500358111,0.3995937287535454,0.37153931502316695,0.3337408114941325,0.2977302919891365,0.3229830963656952,0.3803970357790827,0.441080039648738,0.488175973911408,0.5339070354597948,0.5442217766850224,0.5394858587484106,0.5665755824429066,0.6253622971944184,0.7143184844349921,0.8125674761912527,0.9148264082164861,0.9772089337614274,0.917420327801294,0.816740781887487,0.7102675384214776,0.6111330136874895,0.5034957829147388,0.4009600234502937,0.3062498501669393,0.3082308441046915,0.38156096053907396,0.4162081439805396,0.38229055112653,0.31545788303029276,0.2616497337562498,0.2909306085690919,0.356433676224468,0.3939470393101798,0.40044720883282503,0.40460451919702045,0.3931423387840898,0.38061675530972217,0.36608155930910113,0.3368627209732358,0.2938637460115041,0.30268299231210616,0.36118062524760175,0.4188483829531826,0.4783001531561837,0.5180427873027149,0.5208680216862462,0.5286340091260726,0.5172105704709606,0.5580537525699576,0.6290983753358712,0.7263072222895421,0.8247678381003873,0.9180155014154532,0.9379588051541741,0.8502693167333213,0.7658686634475802,0.6938632014211028,0.5921161237071852,0.5137074029194739,0.46559970329020084,0.45985760217640825,0.46272584232787395,0.46341187521716476,0.4352922004971975,0.3757488025804818,0.31343901327443824,0.25482027454220857,0.22647761909623432,0.2412072203936937,0.2878873004407905,0.31668845398701384,0.33447764002764924,0.3315098732144577,0.3156542763762955,0.35056822655090425,0.3419016993092203,0.3050958954898948,0.2423686087692749,0.19195660741320975,0.2200121315634469,0.2871251521275804,0.3445961016755943,0.3335336492373169,0.24665741144045716,0.14968042924248492,0.0582289479589031,0.028880570671692807,0.10441948692703029,0.20870030076870538,0.31523424918359755,0.41443154855562003,0.5221210517377002,0.6242242586930842,0.695282662752609,0.6391131103741969,0.5591964850539983,0.5120018545031901,0.4887594551623571,0.4854179982090021,0.4561007031060744,0.408335251911788,0.34889990818232475,0.2849617921667593,0.24529896024815656,0.2565525452955142,0.3012236154206511,0.3385503922130968,0.35204014077002554,0.35860532655441846,0.3843414829559566,0.37575172845326277,0.3374847378703709,0.29316461506273894,0.23690875046305626,0.2006134028463462,0.23338889458281287,0.3018825472745945,0.34276293064691066,0.2956406058900938,0.1970662835562158,0.1001426269797403,0.02792731269107529,0.061688191946317694,0.16182866799917917,0.2615289169934316,0.36699717485932304,0.47007275428190454,0.5718948884036239,0.6743739827234054,0.6782581985539129,0.5909552179636219,0.5263608949199825,0.4877685151263851,0.491881569912219,0.49020094194462427,0.46206131852920684,0.42011967839130904,0.35026030370304495,0.2920894686401505,0.2512452890651131,0.2538391308614787,0.29730388648606176,0.3366260178124518,0.3360502237962746,0.33126764315483603,0.34187801668161555,0.3493068158344834,0.3217676904076159,0.2723704397309912,0.2038147682796203,0.19380921320732192,0.23282832104315654,0.2987087114958338,0.3285096224689714,0.2665773393612141,0.17042735545866838,0.07363939389428853,0.0,0.03913845419088191,0.14199576336592212,0.24115861181324227,0.3402616460669643,0.43212291701274674,0.5331436763011537,0.6357066687789725,0.7108227909302589,0.6535611492516855,0.5661237166213464,0.5072173323654354,0.5030899743942454,0.483100787621042,0.47413863842180204,0.44809942511506096,0.40487373198485876,0.3463919518001797,0.28467025634396226,0.24197243445723693,0.24886306374773026,0.2848522127004607,0.3320493637194688,0.3452382735273569,0.35513888469909993,MI
0.9332823196159186,0.9044468393860414,0.881924062105413,0.8951411565238154,0.9062601328651465,0.9039463138989612,0.9048225260721976,0.9038501849468663,0.9021977504908445,0.9017241890520897,0.9043631256403968,0.8957940633959236,0.8765769520858266,0.8466104423581735,0.8197395997017829,0.8372185794370288,0.8797254988642305,0.9205003414171551,0.9574926368596177,0.9775923986989925,0.9919825560608064,0.9940360193012376,0.9661545124446915,0.9171468224067556,0.8518702414869546,0.7847774006510762,0.7205963480226245,0.6567468982048539,0.5913694221228494,0.5263431427935776,0.45772864084524234,0.39439588238967394,0.3629015245918026,0.4172107629615954,0.48370582547035534,0.5490024770186995,0.6180835851056351,0.6825822283122072,0.7500619766186205,0.8161511231122234,0.8801503217324702,0.9372677169791843,0.9479874030987039,0.9244729851617248,0.9010133060099481,0.9152920515544389,0.918709384184111,0.9171360049628203,0.9141304452556216,0.9042540940217936,0.903681723583516,0.9056330423176324,0.9004688406539181,0.8815648262730793,0.854657912205572,0.827735022848185,0.8354540985039862,0.875057261378877,0.9177418539242632,0.9537769106506409,0.9749548067230698,0.9802901225261884,0.9795091106217662,0.9441633193969474,0.8911353659473447,0.8300549032390023,0.7666486047758923,0.7019056066324194,0.6377323070631551,0.571804047873433,0.5063789407685125,0.4373509148864724,0.381091492884298,0.39988043829448894,0.46768131852213546,0.5373207980195898,0.6068655460338167,0.6728355604120637,0.7386933694186895,0.8057344280822749,0.8695357869155576,0.9259828907603622,0.9328292525112729,0.9038550351992092,0.8798137666956367,0.8945791657807314,0.9035294244845666,0.9041121311892002,0.902013254391447,0.899801612415148,0.9019427941739895,0.9054943162520737,0.904522691382609,0.8892365452106221,0.8633038741811734,0.830538685950637,0.8240070311017296,0.8598462920007559,0.9018724123440451,0.9431047797170304,0.9748974661014227,0.9871984011963613,1.0,0.9965025895846416,0.9643624776919519,0.9108344455641237,0.8507380634217305,0.7969912735766245,0.7336834263262053,0.6715847208569521,0.6115884697272065,0.5471768576417685,0.4803224764841304,0.41553335041711414,0.3464297202351512,0.28148116027040637,0.21449268438669755,0.14539587262156373,0.08462927368378198,0.07032241590852678,0.12723902838639845,0.19674170127844637,0.26638183251202074,0.3360180099107182,0.40450804307626587,0.46855424419852776,0.5367578259526908,0.6008815494014587,0.6590288452802586,0.7033882861091547,0.7679415007852339,0.8220993214512782,0.8813206670475773,0.9376244186196272,0.9699196028068326,0.9651821170054169,0.9502769723913786,0.9204781499135284,0.87637767218759,0.8356372530318912,0.7999166898136223,0.7945777514055472,0.8211930126926703,0.852896495767993,0.8724376388109933,0.8812159976021674,0.876708387627605,0.8760157551026118,0.877798845039433,0.8808559427142397,0.8750506713160993,0.8580595572397001,0.852701730087807,0.8779979637452375,0.8825056013399362,0.8291705664781033,0.7652633008341612,0.6978307104548416,0.63315686607774,0.5658715544320689,0.4988246349256358,0.4339456495930143,0.36457482595057145,0.29655500751186625,0.23232566245081687,0.1632660053792392,0.09398560910408849,0.030416886813615096,0.0,0.04910559840059464,0.11079463798309935,0.16666877634139154,0.23483611780993163,0.3024170228073516,0.36690184404312853,0.43614400420683896,0.5045681667542437,0.5686297741870048,0.6360959814902136,0.6998047473570843,0.763423717034408,0.8267950423103045,0.8891885311306713,0.94142612588893,0.9563857955284951,0.9490055144888458,0.9290575894033708,0.892312542007841,0.8511736929955613,0.8099002116748808,0.79140084945165,0.8102399685994912,0.8398609974482216,0.8657186611447834,0.8778576817181385,0.879100467055002,0.8768625347020451,0.8849050381880323,0.8892245784291755,0.891435970169941,0.8940362511439901,0.8810195437522081,0.8683686415681864,0.8883193956167696,0.9053135465523448,0.8601695566175962,0.7932305293751785,0.7286831061010424,0.6606351391470675,0.5965668579497952,0.5279682966462498,0.46290075787681084,0.3960575982077449,0.32654145644600574,0.26043735457837947,0.19468192215471603,0.12516108425294747,0.05666482644937876,0.012220316512407958,0.04350289054971779,0.10968915343319074,0.17552119666107313,0.24151695688429475,0.3104147266348457,0.374573727123907,0.4427310169906836,0.5123639269553351,0.5819918097150036,0.6498342977832168,0.7132377599856068,0.7767193259470853,0.8418628557542716,0.9036368332144094,0.9510945744177384,0.9669649685670427,0.9580703976221459,0.938895582119758,0.9040391038703632,0.8609269548175322,0.819364270983105,0.7907959464678525,0.8003681577533672,0.8341315081447607,0.8619873322500555,0.878499214645404,0.8789929193949415,0.8760533976806999,0.8763398216061857,0.8776816754715917,0.8790860898365802,0.8796062695287472,0.8554500515609906,0.8552508756627779,0.8799675134074811,0.8828631936730236,MI
0.8123624661148878,0.9051442476466312,0.9797093157839432,0.9147084541534096,0.8071623921071147,0.7316743243760655,0.8142132893541287,0.9326549578311374,0.9822583221019392,0.97034444878242,0.95365593365403,0.9055021144927071,0.8403858561616211,0.84720499077826,0.8956720413349881,0.9455977884093367,0.9375665820094996,0.930101731331737,0.9164975667445936,0.9006779696894927,0.8708054529119678,0.8208877595535986,0.7569512160559784,0.6757448814399298,0.5861152702412871,0.49015490624827285,0.3987061791312807,0.32690627148309304,0.3539274562458541,0.43875941170239674,0.5307168624344016,0.623025251149778,0.7002030452675037,0.7758609323280714,0.8845477235084331,0.9941991166333133,1.0,0.9039795625729612,0.785371724914302,0.6535967494002857,0.6267067280799226,0.7474179256323272,0.8697351615160462,0.944921292449671,0.9569793369338369,0.9495746055058363,0.9170474630608871,0.8464368591455305,0.8103482662775674,0.854970931527042,0.9265639430003239,0.9361284050293692,0.914823301614168,0.8960638310743336,0.8528138013053468,0.7769748279791688,0.6952018062587584,0.6122254544637991,0.5148555419176524,0.4267511223734761,0.3835110439655267,0.4401855912627295,0.5309950664774381,0.618416771414354,0.7014702334306122,0.776690063210904,0.871220906947479,0.9729724020963624,0.9846797711313671,0.8884653152931103,0.7590514394331294,0.6234644404974188,0.5390232493005609,0.6282443958203814,0.7601659081772643,0.8788260238270458,0.9381033628048536,0.9398848795450392,0.9139497126795657,0.8482982726151205,0.7825271974490233,0.7937622675445524,0.8624848424901024,0.8932815193274446,0.8795174212087122,0.8640792256464533,0.8418997469436693,0.8036827280180341,0.7573960924122489,0.684178171698993,0.5954150643076974,0.5097785610399574,0.41882791873967395,0.3203542335470795,0.27761651193511394,0.3433956163443628,0.4299043068287043,0.5166659506209315,0.6049482440101999,0.6810356543030522,0.7656909946797561,0.8719855291001029,0.9179118529000023,0.8439567750321508,0.7329179834867197,0.6095816496690976,0.5957112944470349,0.7211658220550046,0.8451882160132631,0.9262854624417618,0.9343587857504225,0.9092348103897576,0.8660481359464902,0.796328283399748,0.7810013174305261,0.7876279671417206,0.7204545994628146,0.7088912280283499,0.779607527000012,0.8357965549484887,0.8595733900603912,0.8321939925494295,0.7511561070803698,0.6207410674454299,0.4876636390757665,0.3477147289844056,0.2133607479138826,0.08044741577620762,0.0643104163919399,0.1838897995868729,0.3201805084774252,0.45538203522203613,0.5883598766660332,0.7163091381721678,0.8075254595191734,0.7535077108015913,0.6598384037284606,0.587600374049261,0.4999372966939455,0.40811655450241924,0.3245899344820593,0.24413207010299898,0.20950422297813054,0.2597166346047133,0.35278857365918626,0.4429098502314761,0.5322201342203559,0.6239280555906954,0.693346947649629,0.74391469580365,0.7867432391553337,0.7992799915223734,0.8070838182061668,0.824105588365839,0.765691513952877,0.7114888307062674,0.7042433311999359,0.7643701052221217,0.8392201807328639,0.868165462213145,0.8681966377575674,0.827577594440779,0.7058558226158711,0.5715235090427,0.43348088105566696,0.29491615509337654,0.15684969664272064,0.025482194682152848,0.0,0.12547970020592603,0.2698993073061544,0.40446527631959484,0.546778394982522,0.678814446438821,0.8042019577243287,0.8792877483896402,0.8148387671999773,0.7239057959188773,0.6464197006885612,0.562857178893919,0.4744625972056786,0.38174841881588906,0.32212222668156576,0.32582758189423,0.40090406814419444,0.49711125243352194,0.5877273789645687,0.6686153592717212,0.7559600553062844,0.8215941466313872,0.8457504440572481,0.8659330893383501,0.8688789681755189,0.8012407599890916,0.746726924312537,0.7426694286202427,0.8159301317182801,0.8797215704073977,0.8987319583561049,0.8746184373102102,0.7699275728714712,0.639697710732126,0.5062250319624089,0.36665546459443776,0.23114395523961218,0.12372366909445631,0.1762114860204118,0.310237157489353,0.4446491609994445,0.581313210354105,0.712784913014231,0.8363449696834153,0.8762258278564614,0.7844977031648499,0.6884657345557619,0.6190382306097093,0.5348276576816193,0.43760577191304817,0.34998640942814374,0.2768654517870335,0.2667276111998924,0.33197824556423994,0.43274697992386546,0.526264770132093,0.6173332131861686,0.7035173887813655,0.7621408717092049,0.8055375541993288,0.8405694546082354,0.84688647766809,0.8466814196869477,0.8617567531245571,0.8680412794652126,0.8066732520883058,0.7630412329831144,0.740781144790033,0.7755848762008388,0.8514916369829391,0.9008863268547471,0.8991877095602678,0.8448399570349729,0.7202885848419571,0.5841110518399764,0.4483304647422579,0.32556205856020926,0.2070248698046564,0.1388501251063654,0.2345239763221425,0.36792565057793647,0.5077855192202398,0.6392858468189844,0.7605849754562684,0.8540239371545577,0.815416975004958,0.7336231222347034,MI
0.889345802725108,0.9184571514603912,0.9383374920657215,0.9315493094838672,0.8740665582669866,0.7813083971484207,0.6809891811936131,0.5803451049912633,0.47826305430650184,0.4246934281872774,0.5108492712312731,0.6201745020498481,0.7260820542007733,0.8242808184728012,0.9226206212715045,0.9974227936529181,1.0000000000000002,0.974352252130813,0.945019816554759,0.9230702786380711,0.946565639250261,0.956928633501031,0.9570406850513897,0.9565027886389179,0.9465103671718509,0.9416944614643599,0.9416541072451554,0.9416309593456187,0.9377607293820327,0.9270623366297495,0.9258214275598691,0.9199298489452301,0.9254903756068138,0.9262698687136506,0.9279602533076405,0.93867791302645,0.9160606245735987,0.8572614919030956,0.7917740223478333,0.7164463752489205,0.6409873888838209,0.5762041666367852,0.5899071800235196,0.6452775550121908,0.7055145257886217,0.7606315671961761,0.8122213133904392,0.8527109554989682,0.8774897843149365,0.8949997872447246,0.9096350524393315,0.8934567900441739,0.8133427497800938,0.7175454832588579,0.6166159039309107,0.5554898730563813,0.6227606806100636,0.7290796637387109,0.8270855396433177,0.931602572474638,0.993142702863379,0.9733254775524396,0.9464890059426299,0.9198727131316551,0.9128273415809842,0.9375325803418695,0.9334326004077729,0.9264016075950241,0.9262972045833917,0.9304538588833904,0.9341116238157074,0.9349571696952819,0.9360255134867199,0.9336798288674475,0.9414272274113962,0.941654531558769,0.9424708481182684,0.9512408748336296,0.9434702915395625,0.9409056283182335,0.9194528731589238,0.8640933885645474,0.7962256389741771,0.719375442517358,0.6419407185140786,0.5731426072633805,0.5557619750667036,0.6038528995512442,0.6665345045579658,0.7157664268375312,0.7650822176405925,0.8001157808652997,0.8359748664827913,0.8515517858831239,0.8570093974523478,0.8147005373020437,0.732097092336913,0.6347346960092886,0.535153417615694,0.4349233389703875,0.3957637310619331,0.4854156137050871,0.5947176721825891,0.6983064823266487,0.7899659328435515,0.8587524996544647,0.8861234065180732,0.86120219841495,0.8252272924049937,0.7925635632453856,0.7865911612283443,0.791255450593235,0.750414064110094,0.6760441712002894,0.569153473029681,0.4787079142677657,0.46555349390780454,0.530554438003408,0.6378064639424201,0.7184592458859831,0.6870296735083843,0.5874790924820428,0.4899334203202843,0.46139011919014483,0.5017733036226903,0.6042464101175142,0.7061399863203903,0.7634967910846486,0.8015023792414728,0.8181077549600009,0.7538149600686739,0.6570507291041634,0.5530433140533375,0.4520439536690535,0.34921850736461946,0.2411589448609841,0.1430254067605421,0.041823984020011196,0.0,0.07441228110220233,0.17186050297922972,0.2776746973900066,0.3765808437241607,0.4815031725351526,0.5814607106748195,0.6824865226177559,0.7704333856465946,0.80889009808223,0.7947969808539048,0.7614894548420648,0.726559955694847,0.6768942812397734,0.6276572589943703,0.5664665409478753,0.5130294352548315,0.49482868896694865,0.535845000427966,0.600075028503287,0.6757961241970156,0.7523409111497801,0.8266500592170389,0.8840439689849331,0.9039188009993107,0.9047257840869525,0.904726077842535,0.9047254832358254,0.903791769765643,0.8927701500006406,0.8916243520616145,0.894286111234299,0.8801439477548778,0.8886196756808318,0.8893391221985072,0.8893393989247802,0.8893290516556622,0.8859628664271593,0.8603824141859879,0.8558436847171416,0.8877338635605343,0.9162315956665876,0.9129226208675292,0.8337881299734147,0.7347341647810113,0.63270711384974,0.5238885583007298,0.4243327834096522,0.31983565136769454,0.21043110211047233,0.10455067974162979,0.05751128317986898,0.12188182033444095,0.22420004566601137,0.32250060893371457,0.43059590495569533,0.5310641024378577,0.6337248174183026,0.7322191979000034,0.8237834679906573,0.8566242044597219,0.8412671521824173,0.8166452546825773,0.7765890492715182,0.7252069497348088,0.6704339983667207,0.6110005462159858,0.5530936496336192,0.5236255610388951,0.5511299004004766,0.6169979160181362,0.691810245555281,0.7666852157969102,0.8368058839724555,0.8884229301050282,0.8910340667717789,0.8893432935653733,0.8886103283617308,0.8781163883484375,0.8787023743477678,0.88790579313983,0.8815801651085351,0.8992316215628768,0.8974518498140418,0.9022728725094653,0.9047212507562887,0.9064619650497987,0.917770790268327,0.9124056608971063,0.9114883147624331,0.9052041965463051,0.8656429308249096,0.8647632656913047,0.9039651319702073,0.9327296335597326,0.9360462426446541,0.860621287546304,0.7576427503511975,0.6578491218062543,0.5537181908688267,0.44740958799272046,0.3491368603543463,0.2429364794133213,0.14595947114015928,0.07851925695828132,0.1283208544403689,0.2095840919287677,0.30329082340454017,0.4014989329890659,0.5076474962316289,0.6055560215974476,0.7076435320625347,0.8048785477135778,0.883080072558623,0.8902392273907098,0.861690128543928,0.8313902573248482,MI
0.7673654764930342,0.7316932311507571,0.6896909550934982,0.6710677646325656,0.6878745512939575,0.7199158417290308,0.7351696401116645,0.7314757788099975,0.7270363226624039,0.7230595901017809,0.7247891924180379,0.737907497429358,0.7449168031315776,0.750165135901089,0.7475333131808037,0.7388955167131441,0.7451279928194996,0.7402620964266085,0.7483953695438261,0.7388517096196625,0.7331978879011274,0.7262500800168281,0.7201232378777846,0.701221276466411,0.6614919280661224,0.6010482399451011,0.5344363232729972,0.4666884444367194,0.4054091416269232,0.3425052918056144,0.27696350742477116,0.21580844636100127,0.15282819933864222,0.094914052110322,0.05025077522494392,0.06657766858618808,0.11700295417252904,0.1759073543505807,0.22546963241056073,0.27334532632494213,0.32209474801301763,0.3683383044413535,0.4133256496472826,0.45145814470004986,0.48736294621523113,0.517302686627604,0.5360876667358627,0.5537697433481701,0.5879286452985264,0.6435699940273323,0.6555830643880891,0.623806614677576,0.6662688231283411,0.7415410485337932,0.8011161962574791,0.8011952103918749,0.7503348351710648,0.729227770411657,0.7051065140028174,0.6649388028540582,0.6295552554223343,0.6106227512503,0.6163354783685819,0.6499892664640265,0.6675092450081088,0.6653481597707076,0.6544976581862376,0.6436149494268126,0.6354585754479043,0.6216398965415304,0.6058085555320547,0.601747591247447,0.6131587604923827,0.6269997062549266,0.6396517947618925,0.6398539721146896,0.6244982563347912,0.6041395837694701,0.5864038567713035,0.5815180500114234,0.5776984417684496,0.5708123157170095,0.549993694721604,0.510502034986636,0.46489236843227566,0.40671947229438077,0.341257241304036,0.28350793652464534,0.2395161833052304,0.21549908454416666,0.24752638036980157,0.2963623574255638,0.3489293660796613,0.40003373663468045,0.45635618758948127,0.504489047090483,0.5477128423661886,0.587923092919151,0.6276001422645527,0.6546191122911296,0.6833357723940452,0.7148466514878491,0.7382899599504915,0.7506960728410701,0.7836763290399764,0.7749363069791793,0.8040848327752794,0.8768399794498292,0.9500961575579225,1.0,0.9792045460307128,0.9270955542528325,0.9045603088166336,0.8821728253753922,0.8365863554384956,0.7800512978842362,0.7580194522802501,0.7675271900895577,0.7992722738625075,0.8135400657148981,0.8065356421502474,0.8045192657855784,0.7844330509180821,0.7599831215565729,0.7619670760757238,0.7634521968510346,0.768549116819758,0.7428293211397117,0.7064069218864155,0.7005702479200755,0.7202696320086281,0.7604503837869165,0.8148651823617441,0.8521375137089691,0.8717783142687474,0.8835901543335383,0.8732097727604979,0.8051539734080357,0.7262829200529723,0.6522911246146315,0.570268286466566,0.49741306997528323,0.44428569342332747,0.48082450719964553,0.5535067073203908,0.6323469948342288,0.6949079294347222,0.6933252254052769,0.6837513700953823,0.6575241509355414,0.6263580837861631,0.597864206970768,0.563638925670217,0.5201646793082038,0.47773808872661494,0.43045215697621186,0.37952704971912343,0.3223031876294449,0.2686395506499002,0.21730882981654154,0.1813522804829022,0.17443532966792774,0.2040074734848405,0.24626872982772197,0.3105152034115066,0.3688761445031683,0.4275386908666947,0.4730565429786897,0.5131604253016486,0.5383171587649347,0.5395009767494496,0.5432200346374518,0.5586304700310096,0.5761938321786388,0.5984269081441309,0.6020717913476443,0.5881010057558691,0.5684752195849829,0.5665587951496986,0.5602440653053828,0.567892414316626,0.5834403466261042,0.5999459892561303,0.6104865166286313,0.6221257940705067,0.6272410821283811,0.6286846875976062,0.6014864521580754,0.5680278366624596,0.5602345737111092,0.5850122606371726,0.6019373446009761,0.6467194902952444,0.6826321665527466,0.6957418710502021,0.7109670491000974,0.68278742048739,0.6096035480697695,0.5323638285316585,0.45905316803483,0.3811314191614237,0.34294746183468394,0.38587927555357293,0.46420269421662175,0.5346466041552929,0.5521820499353152,0.5224026256918974,0.5026302812647532,0.48631501393944987,0.4573740609175938,0.42157386016528653,0.38398768207353084,0.34200084006066334,0.2936034522750113,0.2420894958971027,0.19540816773483183,0.14487858939737053,0.09207881807141205,0.037341178531147934,0.0,0.001238797816480508,0.04501159045639369,0.09816802548547687,0.1576368145950735,0.22045800619917966,0.28337364509277196,0.34892978128503227,0.4198288073837828,0.484591473855001,0.5450414195183959,0.6072733577306288,0.6561694314440412,0.680023467820364,0.6787709626081142,0.6812972574951304,0.6948838255735725,0.6974774985757715,0.6935503392297391,0.6953595320431356,0.6968423354958029,0.6960774919778192,0.703451232085575,0.693037092206986,0.6855050501667339,0.6829181019939292,0.6872978458058179,0.6901369444261616,0.6901478657428028,0.6888307572064378,0.6639788798368302,0.6363241916433733,0.6273546369887124,0.6371029692656904,0.670710821173099,0.7169372357628649,MI
0.49964912996553634,0.5384759359240143,0.5733984636905807,0.5801312557177449,0.4927692760478046,0.36789040298079545,0.2664480039662549,0.3130130242429088,0.4412114199128516,0.56964297785707,0.7024966686782239,0.8333707087809907,0.9508616603244056,0.9802058920069117,0.9193711463677912,0.9215876485159038,0.9038484512481761,0.794051707545778,0.7005381566114699,0.7047178877695952,0.7871650210534806,0.8571569398610888,0.8905956465342411,0.8783012815089584,0.8632784884861571,0.87064996657194,0.862781839863823,0.8803478667706037,0.8629919616032726,0.7919843854489415,0.7227856855114321,0.6320286182643882,0.5453361517404085,0.44853463514508984,0.4094413082663255,0.43942309140024927,0.4745169093856041,0.48461836637212796,0.49164319098209264,0.3986113398086699,0.2788455728035082,0.24271905317571463,0.32970622934734806,0.4625414510009782,0.589722063737133,0.717301317969075,0.8210739991140978,0.8062697378451955,0.8058664081554059,0.7822716177403795,0.6816086242324344,0.5980255566412644,0.6228169081276538,0.6686776280463573,0.7292347101228907,0.7505230744883589,0.7558520827085777,0.7349517805498129,0.759873992056403,0.7764700549810026,0.7889190212541872,0.7852690543964944,0.734208789226237,0.6514468807355063,0.5732918247614869,0.474414123963673,0.4381449252080185,0.4149566881764648,0.4528017875585779,0.5006440602062714,0.5268743941342215,0.49915281922109633,0.39302397464325445,0.2790339929112111,0.19399489935068548,0.2715404942339843,0.39972367931381836,0.5394876049545694,0.6722250757829422,0.7930289472272731,0.819993455115406,0.7984405066914717,0.8090508687840336,0.8446967385681736,0.9219449763119578,0.9296336850003906,0.9730991696779583,0.9906512591208951,1.0,0.9648636840187481,0.9204674754108604,0.9333959550868758,0.926306322144379,0.9413318603037726,0.9275455071016352,0.8656779796272538,0.7647591299322904,0.6749924862472492,0.5865720374474974,0.5020156587852327,0.44455649534408037,0.4286069807465074,0.4742181956118121,0.5167060297085477,0.5642141567772359,0.5176385164333892,0.39882917330184897,0.3107334512199049,0.38810314692575254,0.5340200866651759,0.6678669191530617,0.8002969958842594,0.9185191590308817,0.990649255586797,0.9735049988564981,0.9538485712281877,0.8946622263423794,0.7871307093307238,0.7304154310507776,0.7855258567051169,0.8304670800770548,0.8496881040638486,0.8112926529186768,0.7914489010954782,0.7777904544111682,0.7509093128325923,0.6621595776387967,0.6545339420156235,0.6936322942033075,0.7059596860187352,0.7368242129584974,0.7123306104152007,0.6465206580609753,0.6317799393435899,0.717754630252152,0.8152910902789778,0.8494644509838687,0.8832453759175092,0.8131306220616872,0.6858442370507714,0.554668897576772,0.41663044129948545,0.28582231722815976,0.17066639312260046,0.13852622302710982,0.20647125663335464,0.3276400150933032,0.4485622542863137,0.45859192005889726,0.41034479330758966,0.34898684264622215,0.29945405586702023,0.3289502601178991,0.3639214273171234,0.4568971503127224,0.5422340035666648,0.6344209773354561,0.7220230167496409,0.8086357294401658,0.8587840528700741,0.8364495424914784,0.8250979858361447,0.8209385135540455,0.8429295778293313,0.8595899673663512,0.8825670309803342,0.8686162478707904,0.8116916289211296,0.7512903729007618,0.7130623088759367,0.7014971906015264,0.7068307969182732,0.6628060178379713,0.5335751770629646,0.39594867319430405,0.26437425734814823,0.13676626080957144,0.019423274520221412,0.0,0.08524641830533053,0.19880279978532878,0.31943313107282467,0.3999293883333719,0.3893275779395635,0.35642985530042237,0.30957955752309285,0.3003005804128267,0.33361730363687414,0.43018017473854364,0.5260239656944887,0.6089682154590985,0.6895826778644398,0.6896325096968536,0.6596367239857499,0.6855977989708539,0.660685167477423,0.6280676261977205,0.6488247685703707,0.6420492278710084,0.6477448058807806,0.6057259648326556,0.5545120822156648,0.4647596266424965,0.4649003801269962,0.5416814963323775,0.6370631357763665,0.6814692271353104,0.6942519438366324,0.6235129689299139,0.5014096710013778,0.3591579142625254,0.21626347915129562,0.11122426081196624,0.053818073633916,0.08200111960946499,0.2116448517355609,0.33790952739210534,0.38506098530378186,0.39036352093011173,0.3631233401241767,0.33140928409673176,0.35761754584611527,0.43854143659477973,0.5400504877082657,0.6180774337231583,0.7005013730649852,0.764569255710295,0.7745482668111361,0.7623124144560687,0.7580658058137564,0.7808156977592344,0.7641025798040935,0.7663773203629245,0.74544893734139,0.6807193051102978,0.609775494615628,0.5857340595655609,0.6609852562456022,0.7614225258986762,0.8169743912892642,0.8374961013810034,0.7457942042923302,0.6154675702871835,0.4841304569040572,0.35365361581809696,0.23361760851983027,0.14990978310433523,0.15298399326671808,0.2572206173492666,0.35803546066309444,0.45799401437998233,0.47436412314640153,0.44983630149984455,0.40218705545792366,0.39239363528776705,MI
0.8689395891703589,0.8565412845552247,0.8595715894499385,0.8859026691654339,0.8871010079898509,0.8828614838661881,0.9000452053363173,0.9077174668651962,0.9043350658107885,0.8790292175365986,0.8296808986169291,0.7566508474857674,0.6799494455891057,0.5949008915393721,0.4970401611347466,0.38469633588188223,0.29014612347684654,0.2096330332609102,0.1311366716023903,0.10210563290508246,0.18364316085096855,0.2619400236533149,0.33210116182505134,0.39799694483705617,0.4417833102314339,0.4804568357265797,0.5181508534507184,0.5569183221962017,0.5865469140270525,0.5756122197582165,0.552277988626817,0.48881841712157303,0.4871446179521204,0.5930811859052776,0.7097146663687663,0.8258333020488928,0.9352717345091479,1.0,0.9481955973761842,0.8853576620285217,0.8820341133571326,0.8822925617476001,0.8936849645923894,0.8692608598791569,0.8324702276439497,0.8226188559682788,0.7981122779503531,0.7440621669989635,0.6784012611775214,0.6300864528321704,0.6697135201575479,0.7434292352636742,0.8082387900681178,0.8470703667237558,0.8332655919884653,0.8386732457153085,0.8556375187955796,0.8634959906842417,0.8655674967483762,0.8563951639778287,0.8589035183763043,0.8786485648921971,0.8823846333919052,0.896796772696602,0.9001665917669417,0.9043570469305999,0.9085953910230851,0.9259189149835452,0.9330292516688932,0.9111894438948793,0.8552905579372947,0.7846472327676253,0.6975048613625354,0.6108269983641579,0.5118994098309848,0.40770600698185344,0.310904583269735,0.22402195173647987,0.16018807335510887,0.20132731229639678,0.27841545206106666,0.3583800906712935,0.42090053636902525,0.4694333328740843,0.5283234864768627,0.5744282253974413,0.6138268645336735,0.6420789373404112,0.6456847906073424,0.6244206006908941,0.5771170959607543,0.49212001147023177,0.5034876171787923,0.606085863889783,0.723178208118961,0.8429801188307477,0.9432125757519403,0.9636126223513752,0.9040858214766763,0.8991102908503885,0.8964613623901538,0.8849533585480192,0.88086128094087,0.8623821057782877,0.8434334594640953,0.8273647679901304,0.8019101342693755,0.7543823384667121,0.6826641034916614,0.6228631436596324,0.6425848897945423,0.7200735390024793,0.7926242538794304,0.8289347022869498,0.8386572117565114,0.8404702066671081,0.8455681734445664,0.8462926489275775,0.8561457400300911,0.856292866098415,0.8562928660984106,0.8566949466800953,0.8693510652269367,0.85999013795377,0.8646748356131333,0.8675183874901666,0.8552952328197074,0.8024685740483486,0.7944060703189644,0.7831697389915808,0.7772052399972305,0.7718630214844397,0.7790273354091406,0.7877415883141952,0.7758297650404655,0.7919596372446929,0.7743821610454944,0.7687632282820376,0.7619394576853553,0.756485670549079,0.73756891860085,0.6781659516860596,0.5961159671347236,0.5354039804557997,0.5304441849465285,0.5845656673732371,0.6595210529415425,0.7131776922110964,0.7520549153318132,0.7685078994662033,0.7795065238503236,0.8073497749342522,0.8001692371557878,0.8173665051156505,0.8183612121602968,0.808475711395424,0.7749993576508096,0.6593566657852756,0.5423244191010896,0.42919354442042534,0.3108482724055994,0.2404512688119147,0.3078436524620636,0.3932480792976456,0.4826854051237488,0.551640898325144,0.5626841002440539,0.550463818859618,0.5108594053789668,0.45672919870597584,0.40533465390630985,0.3537476630550409,0.2902370023577223,0.21290113270248012,0.1340373222980138,0.06696604141445084,0.07080849118417953,0.13020602708700668,0.2093520731254368,0.3192185552153757,0.4201597607893883,0.5132911628134771,0.6003723818939122,0.6915339833707996,0.7737427028539896,0.8342271267034329,0.868658415756804,0.8529218606429003,0.8457291973514689,0.8317240689991117,0.8112271510608569,0.8051491784878628,0.8066497165960973,0.8038426443458677,0.794713614550516,0.7945171736900605,0.7945171736900658,0.7942150174809717,0.7804294171165944,0.7689429025885612,0.7686558360291258,0.7569723818261718,0.7136587932064895,0.6321740852675495,0.55707684777287,0.5417550003831844,0.5787570252671497,0.6399413360052026,0.7018598100830733,0.743021220275959,0.7663467423018444,0.7780468506314904,0.8015372626973267,0.8002427889148249,0.8053271831207098,0.8126556554951305,0.8233994638581557,0.8039587232138299,0.6993112853639367,0.5836913917291264,0.4596751183949803,0.3363538085540978,0.2659507104612846,0.3180430775206,0.38883219647556766,0.4648170401900922,0.506045017790056,0.4953313817101792,0.4595899720456047,0.42266892614867446,0.3827235863163012,0.33576738856417965,0.2752994262515993,0.20481279403172037,0.1244351109702393,0.04255651620243839,0.0,0.03225538257079652,0.11622463544886363,0.21977492187159475,0.3265922589381671,0.42090891277088094,0.5185268240589869,0.6077342283782166,0.691523693538203,0.7679607679435465,0.8172189191899504,0.8193035688754149,0.8090668741417186,0.8194870071367912,0.8197974587452501,0.8040848480210974,0.7946001913411358,0.7945171736902319,0.7945171736902354,MI
0.41698037660182674,0.38548829406614216,0.42667246653189705,0.4957275095213687,0.5688653352227675,0.6298821824771457,0.6946299909325857,0.7439025576227403,0.8259572863491611,0.9201686134790767,0.885753229045295,0.7923855413393044,0.6688136955254684,0.5313132132171763,0.37480024901333264,0.33076981510832004,0.46466524421127087,0.6152583056609693,0.7424621095089288,0.8554864584666682,0.8323502684995461,0.7545637211078322,0.755950727816602,0.7038161206196749,0.6335741881763717,0.6476856514259257,0.7263212022040095,0.8001521037442139,0.7866795709943144,0.7516422660829738,0.7515998149052372,0.7645389455497718,0.7738212797426618,0.7745839474321192,0.7825456623746065,0.7627209828880916,0.7080466880547345,0.6574618714849851,0.5776714841142043,0.5359766279147875,0.56416244890565,0.6199842494056549,0.6411104831053365,0.6939037928139893,0.749892922023311,0.7982006026208515,0.8647631916656913,0.9241190193714672,0.8562903028045827,0.7628912823899672,0.6447987304328002,0.48351853480289275,0.3301786062650929,0.25610906527307886,0.3980284202954376,0.5588736297531378,0.706543322658364,0.8398905307672235,0.9685832533701211,1.0,0.9629505311424404,0.9189355039401654,0.820395792268549,0.7413982886828201,0.6983789356489618,0.7299555306519245,0.7966957313458289,0.8091521559601293,0.785353943534747,0.7863760696224498,0.8382070667197601,0.8454257905784184,0.8333212624913253,0.7546743711898154,0.6842638818798772,0.6330233417892392,0.586423708536767,0.5497945850636103,0.5676161809683506,0.6370063792331866,0.7000967231232371,0.7619717551834668,0.8008484524431392,0.8131028242253571,0.8106864753943626,0.8637147821237807,0.9192080655656696,0.8296178179690568,0.7203834661093582,0.6115871490590816,0.47029852396550087,0.3228834058428447,0.2966226584637335,0.4356003454413204,0.5866578138423959,0.7222103233057275,0.8477492771118005,0.9240249718063946,0.9148134705286317,0.9370376752266587,0.8682758468648375,0.7798035934941554,0.7224865278102763,0.7500151150616254,0.8296258751040684,0.8650331810928495,0.8545690777010053,0.8264469574529105,0.7912996933788428,0.761151277773731,0.7397914786665609,0.7458782104787414,0.7289369913529224,0.6707837050255296,0.6038650971019015,0.5293676812697274,0.4710238884718656,0.5061314106741177,0.5858023537439401,0.6460710205878613,0.6672008908595979,0.5833519935822764,0.5026499132015738,0.3900826690074308,0.2205750007490832,0.059846502530569445,0.015202077714253637,0.11542325585290047,0.28603716013667757,0.41735463615218116,0.3766167665583935,0.21849854806806546,0.060336649845164736,0.007523520122969085,0.05499902890201236,0.2096203768070124,0.3129238620367958,0.3103711853554256,0.37019751659994693,0.4481542632550637,0.5063763195509274,0.5708215515755706,0.589892080526174,0.5906590479167138,0.595961883203346,0.6408977191271354,0.6734016594464611,0.7119960677083386,0.7271673169355601,0.6696272479905314,0.5981385725151451,0.5612938828614551,0.5882726212335978,0.685724243217047,0.7704091453125317,0.7837613618498755,0.7549345924405806,0.6680943349489343,0.525519622546665,0.3704756567725891,0.22015012164819847,0.08219793060473979,0.023045870048301165,0.12069976053633269,0.28957058283643056,0.4587603484152627,0.5881964952122214,0.675006297606008,0.695780341699554,0.6571849451292167,0.6672614842909157,0.6374431721589415,0.5881405468840635,0.5220459750094104,0.44635168106856593,0.3877346656360241,0.3954153720461462,0.4313447437785509,0.47020739197313066,0.5231498990747667,0.5800087338585422,0.6580157475255861,0.7008616113416144,0.6761417255833067,0.6336777882597451,0.640688920959601,0.6476357157993027,0.598482305331169,0.5315005157297508,0.5519110790619965,0.6151912526649159,0.7100983782724732,0.7870179121005672,0.8259894885727403,0.7869608293528545,0.6612108155128702,0.5097299713045009,0.35460310603560385,0.20402934173185017,0.06950321522272951,0.04022047873958545,0.1617516721658081,0.32035908584092176,0.47850033589287655,0.6325055162067343,0.7317089198597486,0.728269817785189,0.6623191969785269,0.6148037157105337,0.553232837540981,0.4903351649412473,0.46233452990080703,0.41295617996638256,0.37250028377168753,0.4040428751972778,0.4807297305658649,0.5486502001217666,0.5727672476368362,0.6212473612236318,0.6372017465309048,0.6226137927929063,0.5950873468233233,0.6095827599942982,0.6224179195333779,0.6371733853882207,0.6420357450405936,0.5751879313669139,0.48214215850286823,0.47604819888441874,0.5255138005150499,0.574168147393662,0.6007694393314855,0.5646687466151539,0.6174416088473729,0.5647917587060745,0.4157428783381545,0.2654050650079349,0.12426538803905984,0.0017319090043428353,0.0,0.1374716511390286,0.29119193241487995,0.45019341944549485,0.6022252399094459,0.7161185426775649,0.7208067106735374,0.6359920261395784,0.5680442945075583,0.5117532074321263,0.4467127007213616,0.3830247059768417,0.3117009260405865,0.24668382889659268,0.22493421307463057,0.27412954140182944,MI
0.7968266255267653,0.8638926779383787,0.8748918464567077,0.8617869609910627,0.8625344865002003,0.8743403537717263,0.8711152440633088,0.8545349555949677,0.8743596251063113,0.862785778365236,0.8843514080685715,0.8558189463618917,0.7944358047749684,0.7091258209394247,0.6145600998461269,0.535741684652141,0.5094733554155444,0.5562709137808857,0.596793713104657,0.6627413515997707,0.6709079503837603,0.6959191764449355,0.7083348250760304,0.7164974970553679,0.7255293907107183,0.7174788193909647,0.6530305843846325,0.5466115864107635,0.42025709143962464,0.3102729361381127,0.36325241024315247,0.4882123440856021,0.6180829798303784,0.7444980465844666,0.8696069816002949,0.9693103818635262,0.9683008860677962,0.8870079594272546,0.8204297639649742,0.7404915513541765,0.6985633525631845,0.7500920428168398,0.7956706684623298,0.8037352942699414,0.8129734805553603,0.8110931106525943,0.8349971518359496,0.8494411800990429,0.8247161508227832,0.8190466778282985,0.8035499011770963,0.8010208665953975,0.800459780743692,0.7883506818769734,0.7906782218732293,0.7353152499994069,0.6449309134587144,0.5560877414743808,0.4737065232763409,0.4610925245176216,0.5195854304375733,0.5903886690445583,0.635527159864691,0.666529339489843,0.68708360509613,0.7220777759012114,0.7583631970204112,0.7579581086778813,0.7548908473832898,0.6994441641188289,0.599875790172749,0.48102544374655976,0.4790095577807234,0.5961837120758791,0.7295856480911507,0.8502354983967662,0.9607642529531617,1.0,0.9276965237519885,0.8495148133068162,0.780380524136012,0.7136703053167968,0.739989601106283,0.7942106394217254,0.8177838265060058,0.819209115475938,0.8088760557369903,0.8028629793457975,0.8003324635916815,0.775623211188496,0.7846713348349068,0.7768962735963507,0.7943580442333076,0.7734117749372076,0.8013787284450071,0.827349993672374,0.850815167316878,0.8230095397545916,0.7821592843848091,0.7044171120955465,0.6080800154502226,0.6076647198659328,0.6669778563346758,0.7083954484684787,0.722748325647991,0.7480002705042903,0.7646683772255534,0.7828131993602581,0.7795629713263081,0.7564900477395047,0.7223064604631517,0.6287279572418862,0.575168955328734,0.6748750288408174,0.804699787457531,0.9100587372573861,0.9273671256705991,0.8680856536237149,0.8039280127896191,0.8422296187680827,0.7863480914861078,0.6629070612226329,0.5633438016078895,0.4954073092617275,0.36304569800885833,0.23481230069145997,0.20447193105072436,0.2952540683721323,0.43110754371489746,0.47566596743305567,0.37296431360936166,0.24563299411314699,0.1194294895857686,0.0021558180298701934,0.0,0.12132819487032442,0.22180613326844867,0.34238340598031813,0.4609306786618248,0.5748736000477495,0.6285086532728341,0.6195916253838547,0.6638557380926708,0.6414253226252149,0.6125464943024737,0.6222831008777399,0.5839106705455399,0.5474923829003049,0.49947993130447754,0.47625143845477114,0.5377285524530695,0.6266028419742549,0.6954739973616553,0.7255976187492479,0.7284760081851127,0.7110017681007013,0.6587684252683159,0.6452442743843294,0.6581704544398237,0.6660777466168897,0.627438547652091,0.6615699523311336,0.7019444710208163,0.6936042773750941,0.7152036166521696,0.7145856847783154,0.7074586913945944,0.6716370233251436,0.6011965622972206,0.5904892977591722,0.6086216761420227,0.6913809660978973,0.7586956932687294,0.8005984889995585,0.7381040769803189,0.6132530484138399,0.4857364326054521,0.3625669242577345,0.23183275251545554,0.10945337539216515,0.06830262386304797,0.16592881020611472,0.28122665925615165,0.401371681075092,0.5263495655165111,0.6248362965273424,0.630174113713803,0.614579286025438,0.5811137532154786,0.556102722161274,0.5335966237221119,0.505675641246591,0.4652685489018724,0.3940193638588867,0.32971485124704536,0.35938403717840384,0.41797743317344294,0.5145920239207729,0.5961527630421246,0.6445350879081784,0.6606256523225111,0.68697312854199,0.700069868798646,0.6879335309703873,0.6875829203134156,0.6970172750944577,0.7025062294528439,0.716147198890924,0.7070746408570918,0.6946045948730424,0.6772972951921026,0.6309626214559816,0.5913682699204608,0.6209021923754143,0.7095506212614975,0.7768704653028902,0.8233236486344748,0.7533987302649869,0.6225958183060412,0.4962689367231814,0.36678730945990345,0.23701811380645932,0.11129295055757105,0.0001677403766993102,0.0069208017336848116,0.11576403722983875,0.24060853134184113,0.3637580228354036,0.4903012876031245,0.5856137713915328,0.6021445044866627,0.5957576608208823,0.5812315849572949,0.5495839756194165,0.5176109248639693,0.49991153678367173,0.44007912858374665,0.3971528895830785,0.4431387838983145,0.514470631994917,0.6062895211636627,0.68957740951977,0.7561398362530753,0.7682431161477106,0.7414229547097881,0.7729293421716883,0.7321868728173246,0.726854774255183,0.7176001160207837,0.722054616568844,0.7601189986763819,0.7475514480123433,0.7352173466544021,0.7538615349889701,0.6966448953305506,MI
0.5827509610849497,0.6776459746152663,0.8023912057075795,0.9199380136908428,0.9575720168370752,0.864072659301446,0.7402624548919978,0.6190043893163888,0.5257345892537475,0.5924741565509186,0.6529718679106442,0.6878282501878865,0.6766532941084678,0.6687886482670975,0.6519079533722985,0.6094303301689794,0.5471239421420466,0.498520711619475,0.41492938359758336,0.42963542810107436,0.4594997393472622,0.5275695838967276,0.5765804968167445,0.5851554448984477,0.5708052358220654,0.5683395054004179,0.5660913887661754,0.5388555568117339,0.527845714076888,0.5429566471149827,0.5591861670051359,0.5433939855139847,0.5378160362605784,0.5042286959539974,0.4331797700660709,0.3591301627998944,0.2741626578116203,0.17872948006687084,0.12425898490380449,0.16765436748404428,0.2257946429060076,0.287779644179913,0.33609434211302736,0.39049052075852275,0.4309935760794992,0.4454643974274197,0.41960356365488094,0.4227699146256936,0.5008257799661782,0.6244276578214252,0.7571962614597259,0.849267891344017,0.826504823594719,0.7149431162433744,0.5859909403840615,0.45099869683676763,0.40249758618936715,0.48813935270458364,0.5568168770865989,0.5484560315250744,0.5412804213886688,0.5406820710285811,0.5214977773616796,0.46594671990136627,0.3971807610907523,0.34134936642998914,0.3397080946690747,0.3800236953674774,0.43629649895928013,0.47286344783076606,0.4669445027138912,0.48439087016715243,0.4834007797198452,0.45653014732891384,0.4173768067906134,0.4058158072621798,0.39889411600279123,0.3647489779532678,0.33068456182101214,0.31349818505853433,0.3152417610237763,0.3164504834633548,0.24679857250035964,0.1599926460810699,0.1252312429466529,0.17220897682702718,0.24434583939741783,0.32342628165159093,0.4047851096564492,0.4767368168353774,0.5315675982772032,0.5411983301316448,0.5414258169082697,0.5596747803533817,0.64165481876412,0.7572629331815004,0.8789362599710668,0.9843065974372025,0.9999999999999996,0.9011238980084522,0.7612483615000039,0.6164652645913384,0.5414572288967787,0.6068102357868388,0.6709583301414086,0.7109664804932474,0.7655585438061707,0.7964863444350665,0.764984695471973,0.7232315838373844,0.6595114110936602,0.5904149530137315,0.5126198444709495,0.4608859256490194,0.48481585087548806,0.5556528146734201,0.6107424043922278,0.6120394303138252,0.6085886695191305,0.6020795992198731,0.6212003544067595,0.6225303822010093,0.6200504044451001,0.611578843170467,0.59943644486814,0.5800158190102098,0.51561964039688,0.4853200617205533,0.4747855800031169,0.5020857413727602,0.5136345439036307,0.5436486884705576,0.5176105628637493,0.49243749667483927,0.4958363993306212,0.48849241681200395,0.48465029730899056,0.4164659730877438,0.3529006165710533,0.35831419889827965,0.3753835083936088,0.46411998738020754,0.5438539890683844,0.6159558336022726,0.647721231619252,0.6817376170901359,0.6514125877448209,0.5995881138403267,0.5389834350171525,0.4584162605961226,0.3818329084501957,0.43033909976366447,0.548582296703779,0.6765323252716313,0.7666155917199311,0.6855928814959547,0.5719488431502016,0.4893537631875007,0.437182013166201,0.4320102089592237,0.42840213935626315,0.41754875583635576,0.42283571251449326,0.36547310592490545,0.2891433837654547,0.21016603193112848,0.1280998222561318,0.0586271253482864,0.008478670066081051,0.017469655803618256,0.09099574602358151,0.16548433082293768,0.19804583829081102,0.18637752215248193,0.21356663902707185,0.23725167678963954,0.2813444637102491,0.31230784235307274,0.3028922917320611,0.3105640554804654,0.3413577393108329,0.37573207413465637,0.37361842593609085,0.3535104288880384,0.3517687843387116,0.3329045953139391,0.25825341718549444,0.21786625673676108,0.19199085960568718,0.21744915473149318,0.3000528646700489,0.36085500563562034,0.40202579067461697,0.4334171364816224,0.43037538501638783,0.43322502252917383,0.4541290593627463,0.4063964174379513,0.30178156962413505,0.22854273799748404,0.27468127617248905,0.38398049872314965,0.5185612766717278,0.6398358386952938,0.6163724887987319,0.49686538614854525,0.39252661946812717,0.32510677631074403,0.2938635518977768,0.3248514041049533,0.3375002924322348,0.2920827602067235,0.23439614310452805,0.19141617247437237,0.12133941727571029,0.06185858307736192,0.0,0.013554704060760425,0.08676256566799756,0.17916841712195852,0.27324136784430086,0.355005596336881,0.42291457675778554,0.4286049532588829,0.4456720082556225,0.4489061013112958,0.4362502396958612,0.4252509808480762,0.44608187308997715,0.46341870918007855,0.4585768149848408,0.47328322826156244,0.4715367904987766,0.41470815264015526,0.34108003110910934,0.29101983742313964,0.2834564568255016,0.35240579886862333,0.42793176830671475,0.48524883856015544,0.5374944521399496,0.5668837786021679,0.5653161631571844,0.5924340157091392,0.5564746311991073,0.476277956678437,0.38005594635409556,0.3332175973241003,0.42370828928468773,0.5523280944278546,0.6765969841529587,0.7298433549899692,0.6397184605009767,0.5246502296798066,0.46068918452013863,MI
0.5436669058078003,0.6209365633060084,0.6556845963427071,0.6053900091093256,0.5246216792275247,0.4359267406727576,0.4008219826878343,0.4768062084161433,0.5392469272394895,0.6080992916192769,0.6802405844811767,0.7544635433785669,0.8326518983725619,0.8555526506559357,0.7697632699745744,0.6690961219213718,0.5506851380523772,0.4304627817728903,0.4310147746284114,0.5551674174350532,0.6851971596910467,0.8148684123924803,0.9415491217584444,1.0,0.9261145130634953,0.8563091120975845,0.7740649263486712,0.6786618473505501,0.5844462933449965,0.5482834089176465,0.5934113036672439,0.6069093123767497,0.5575422051007584,0.4749083203999662,0.3840364260028464,0.28671316304540717,0.19107195611415673,0.12634746346642167,0.16825607797578312,0.25496357311572426,0.3375328945825662,0.42270875208603176,0.50585739542902,0.5685223530682539,0.5221188996106116,0.4303249916903398,0.32669310258588347,0.2096651392415243,0.17432210257389924,0.2911428921650474,0.42652277029673424,0.5569171066615075,0.6831270358972912,0.8089706851785543,0.8768615347521007,0.8098635193969939,0.7550126851231047,0.680693257967858,0.5899852600486448,0.5614591027742852,0.6374155136362405,0.7148857667821877,0.757311342649071,0.7686993387955976,0.7299632862275947,0.6484156330535367,0.5530917527309489,0.4656148661340147,0.3898614097912234,0.3964691123482611,0.4792682870917919,0.5620415135185488,0.639423641622797,0.7237502179132966,0.7684356539046635,0.6975176008328585,0.5919683863513394,0.48060756850513453,0.35824460624976284,0.2720349388934178,0.34747743212431814,0.48054410871648123,0.6096977692010932,0.7378460527999691,0.8664434586908847,0.9513397175475142,0.8939334371139718,0.8210872393120834,0.7523943636989054,0.66831989176044,0.5930721088583515,0.6184395086274472,0.6928716213154247,0.7232647832305101,0.7101752983686951,0.6618108671975795,0.5821815309758431,0.4896584732814846,0.3955342690328827,0.29997436459313054,0.20864903461340178,0.1707891848251517,0.23232437704896425,0.3128934021321399,0.3959514457520572,0.4797937443499807,0.547388304428754,0.5193042516329625,0.4376539528461474,0.3548282301345509,0.2558124334392673,0.19042289838384807,0.2891316306070233,0.42132139085164644,0.5519365485902288,0.6782099254141998,0.7931559063727263,0.7960945989159507,0.720305193286912,0.6662954999387605,0.5825759049080856,0.5093759087610272,0.543727089378168,0.6210837323282083,0.6614615508596882,0.6542217520250464,0.5948338544750551,0.5411913472054843,0.5848190715352946,0.6218808286524271,0.5860187849230831,0.511052667514102,0.42894332463440454,0.42808687529371614,0.5145468517134657,0.6061562999808272,0.6663292983737734,0.6605455667445295,0.5513671289418691,0.4221025788193038,0.2910555483285293,0.15860763917445686,0.03587292216243698,0.0,0.09412577989590964,0.21334303385784548,0.32602627229236525,0.42560096946367043,0.46783870343600453,0.402805182568752,0.315476727037459,0.2319835242223549,0.157589651574916,0.11746896561537445,0.16506458923008482,0.25213791484007997,0.3448984435232121,0.4424445746810619,0.5395690330535792,0.6193607758393327,0.666624418297328,0.6667442888932555,0.5977013705287391,0.525000839097268,0.5164355214454361,0.6003820336898888,0.6901677993628033,0.7660632409742294,0.8025105929473906,0.7217361245824869,0.5873230605651583,0.45381833201685495,0.31840193136945105,0.19161568197461687,0.12796450463875253,0.2048846172726999,0.32710413653571413,0.45578085665357815,0.5710119331230255,0.6599988286932725,0.6517275810701606,0.5677039674579922,0.49342704717876096,0.40618448639950344,0.33664140086932504,0.32930355615476925,0.38925863849861564,0.4748331653735445,0.5707943944999609,0.6587191148243061,0.7114369144930723,0.7073039553630536,0.6646789888142837,0.5862052069360737,0.5029232245170063,0.47766394528174816,0.5598651651993212,0.658357236060358,0.7225310634721724,0.714246450538548,0.6010495354668701,0.4715852818736015,0.3387853823957525,0.20464788568217962,0.0785016704310566,0.02494694828369637,0.10949859506212745,0.22939226312782512,0.3453412956496691,0.43697473730510916,0.4933453033827919,0.4355433232599406,0.354166147324257,0.2657623354979237,0.18121931172542372,0.10094998181494796,0.07536549230384759,0.1372061603932586,0.2263665908362027,0.3212912136705435,0.4171527243909039,0.5045776736685772,0.5591614800429867,0.5355960914372315,0.48085733072279835,0.4679252372023366,0.5516259963364467,0.6507365245450174,0.7525120147471744,0.8255341818684974,0.8360161574898735,0.7305675325683021,0.6025572407726179,0.4707733611394844,0.3376359186548563,0.2182977119995333,0.2091678440259832,0.3237038430098571,0.44825084782180946,0.5683830539712504,0.6759374644216112,0.7600890900597421,0.7345167078690182,0.6638125289057553,0.5881373206566249,0.5190168472885692,0.4544648863935725,0.36903211555797144,0.32949483387495127,0.39308587570065123,0.47838387420746376,0.5625865333368494,0.6035098324833852,0.541328758243595,0.4677098910351516,MI
0.31915907204858507,0.26603124705756276,0.2073468400549412,0.22177224563098896,0.2904192684762781,0.3650521378264704,0.4290820438106262,0.4759673609185624,0.536592171995032,0.6154618959635132,0.6831720911984427,0.6784312061033304,0.6206873910611177,0.5541384392176021,0.5000240103388462,0.41735988739982144,0.3568942541707387,0.413066360442083,0.4891620530148215,0.5064362077728377,0.5003295819930689,0.4836339654706443,0.4511556189552728,0.40030253982010855,0.3347145766797197,0.3110822085371414,0.2794778775305278,0.2209337332219159,0.19887403904598844,0.2609780842728462,0.3315611494284769,0.39940222743393416,0.45937133039801603,0.5048337207980185,0.5780917384552213,0.66304099235509,0.6933143839096674,0.650083090916709,0.5746914970394246,0.5260055900848448,0.4566681566605739,0.37898614136663267,0.406895052227602,0.48023695171654945,0.5172890532609145,0.5089802860157484,0.4853233484898436,0.45624412146073534,0.40832494472899583,0.3403041765602892,0.28498980778222194,0.26891745806522693,0.22576065435907333,0.1966680914508807,0.24920963040377764,0.31695217270385956,0.3882583354106619,0.44398940648984175,0.4968211063499528,0.5744895426681806,0.645021663091293,0.6544016609831098,0.5957418098598322,0.5306130255182746,0.4948474683685855,0.41670751138956685,0.35668965442966316,0.4082379566395835,0.4763055542542831,0.5063653300971256,0.5091955611467618,0.5035640778920853,0.47001528463683484,0.4123235056420407,0.3602999342713664,0.35501555593340584,0.31947080464607525,0.2613020634701002,0.2663598877426958,0.3377818719628358,0.4092511514825179,0.46480310410209835,0.5153871865475106,0.5821404833745853,0.6605880860562083,0.6947072459426431,0.652937919732566,0.5812983714497741,0.5355312095690017,0.48216177998839393,0.3994933988828744,0.381750597374259,0.45360325258445977,0.5080088930719582,0.5220755034225226,0.5090300636735374,0.4763381301467915,0.4269177981169996,0.36460127740005377,0.37046768781781125,0.41961242377771124,0.427571454921013,0.3764505180558384,0.30652975989853015,0.22910893196355087,0.14351744541229516,0.06725823597030312,0.052583980518504436,0.12249458806473235,0.20707558500174428,0.28636406980834095,0.35798096071214536,0.4184251247997801,0.48120533503360474,0.5558762782149025,0.6360738827572738,0.7046682526669021,0.7147973303711506,0.7514987081855835,0.833573016909676,0.9274926937730938,0.9999999999999998,0.9792718483789609,0.8918964890756726,0.7962374664011931,0.7425216840225828,0.8009301716489519,0.8547862524279541,0.7840536150440423,0.6936708364052107,0.642736818678243,0.6411762754336181,0.5730958020923469,0.4937558797513961,0.4306910017574206,0.3672150098012841,0.30167689747039006,0.22548870554890232,0.14742773933728603,0.0671971161585081,0.0,0.004585491347577353,0.07649427896944583,0.15838781343170116,0.23444880456217287,0.311466058227849,0.3712374035640442,0.36192138687402386,0.307535313634534,0.3163911658958689,0.3785464256172535,0.4345982062651017,0.465446135261639,0.4767734837583444,0.4637658292815412,0.39321778198345325,0.31088826757990007,0.2517227006467826,0.2826141910654416,0.36493785183876626,0.43894436383246305,0.49881408478015543,0.5589744812961122,0.6258356903089213,0.6093038055261835,0.5329292633295497,0.4741549992375873,0.4226545666766732,0.36570350442313004,0.2939130686919156,0.22094950748713504,0.19102980354002064,0.23835616942648885,0.2987830226233994,0.30453854645142897,0.319314362993387,0.37494132922870427,0.43269232818501746,0.46316312589219666,0.4707711230214897,0.4441239113918971,0.37445595119392205,0.2923790621987039,0.22730587401804847,0.2567333676864525,0.3491582083568443,0.43229088911771485,0.4827248090662226,0.5473726231475793,0.6102029419286479,0.5704768156791269,0.49528472540690927,0.4320735180957913,0.3821513309792284,0.3182666597213628,0.24406077650165736,0.1743470097567532,0.14608002809763976,0.18424110051460074,0.22508324957750214,0.22118789190988286,0.2641526806512766,0.3313706926510176,0.39853597553204767,0.4349048858669311,0.4578919225343485,0.4641916746856962,0.435780920606764,0.35501817882853937,0.27249005878213395,0.20493865597454675,0.2399037953551575,0.3314595467693995,0.4255729176556404,0.4964718540385096,0.5522866135811262,0.6212572274395998,0.6203811753771873,0.5414876197765046,0.46638934565014245,0.42178510538443237,0.36255716438302055,0.29174626455361685,0.21870051541396762,0.15282434886727114,0.14058458179885358,0.19365254799307663,0.2519496047682106,0.27002119782471556,0.30990203017260676,0.37383233026228546,0.41785231182102534,0.45050288602279753,0.46724725118489774,0.4497152009835961,0.3848427269030039,0.3034865944887333,0.23389438152857922,0.24300576397006068,0.3291306748657843,0.4229549043535561,0.49757915053932655,0.5510383693374805,0.6184921702062389,0.6139925522282954,0.5376912683785287,0.469730110037343,0.4213086680852085,0.3640312217727737,0.2949596593237229,0.23457914337259456,0.16961148005628401,0.14567180908291677,0.1997788849151403,0.26156301688718275,MI
0.9751290412337525,0.9577664251538003,0.9546995093197415,0.9488105622383667,0.9427667349634381,0.8991617647140064,0.8578509460725658,0.8518125469304021,0.9016005179118125,0.9569218514490963,0.9735229367472711,0.988302306651548,0.9999999999999998,0.992427133883991,0.9778769462443708,0.9603712244988467,0.9526649715604447,0.9411217081029972,0.9308300748409366,0.9172438408934818,0.8902767078971314,0.8588452435170837,0.8528400709287882,0.8495120203640525,0.8289529415348578,0.7866269762198237,0.7366120992992111,0.6911354253671917,0.6476308362041492,0.6317998924811252,0.6615262567105327,0.7045354881883188,0.7336244828252116,0.7627144166258266,0.7905945245791972,0.8132244819822252,0.8235997182154922,0.8077885764362049,0.7600565606322147,0.6993136981187982,0.6345875042515243,0.5627453373907683,0.487723791785603,0.41446861810630997,0.3567399261468238,0.3991279836422703,0.47615593647896204,0.5582713093545155,0.6398487004725555,0.7135943097948794,0.7926584128144856,0.863650178114377,0.8709642899339254,0.8504109860040996,0.8427678523492459,0.835902440909519,0.8092895637952766,0.7643258887840443,0.7491408502490557,0.7939337156947348,0.8370495923978329,0.8491753474857553,0.8495179831203028,0.8493196220692141,0.8425520523709893,0.8340220331594081,0.825820816797675,0.820861409678594,0.8079033437896264,0.801398285097507,0.79995831471639,0.7953321367027748,0.7894616972969417,0.7918482903959316,0.7883554632303247,0.7750895262362012,0.7500460971236005,0.7134200497970244,0.6706999757414662,0.6233473038064579,0.5779104636672419,0.5749403545265566,0.6159162823696178,0.6656425866622613,0.7161278126158688,0.7734906730813489,0.8396624042926386,0.9014746966314438,0.9177752383208293,0.9175517051220121,0.9096622963795313,0.8929568368513585,0.8500436553034441,0.7957670601640963,0.7335736806749686,0.6653032463501003,0.5951294790373016,0.5240200765348011,0.4928657288820406,0.5608515538035646,0.6394997170300654,0.7135858468580265,0.79475287235017,0.867347953770649,0.9129640398035239,0.8903392893624968,0.8876296794416765,0.8941254428866412,0.8736259101802297,0.8479896856578977,0.8062180243270871,0.7858961758704495,0.8154309242039044,0.8586795313205731,0.863745774751399,0.853487904608236,0.8380881156338038,0.8211335501191073,0.7882331882022691,0.7929646096447305,0.8065696628149155,0.8183415479115059,0.8071835183201852,0.76218862800423,0.7326363349502458,0.7464780781375977,0.779983686737906,0.8207197765794758,0.8473464670295103,0.8536314788457224,0.8422389286197727,0.8014251546045186,0.7256982785779929,0.6467943805996796,0.5729018093019125,0.49127895573249636,0.40912710193704926,0.33048012149210737,0.25635562925420463,0.17466789832884877,0.09671754163865498,0.033563209513676195,0.04798055662521783,0.12057243332547696,0.19398202965324152,0.27411665132163554,0.34727184845473413,0.4274553805032162,0.5026261153567839,0.5785822305545207,0.6493215365536789,0.7161369974687113,0.7798463082290068,0.8381096782708106,0.8668536642948006,0.8736665710571543,0.8761690475457391,0.8473977499576064,0.7786662096184795,0.7175001158981118,0.6640272082773859,0.6168354001961482,0.5712939045825951,0.5340359216658952,0.5293655819713512,0.5639808649881259,0.6076814987575394,0.6543227065748045,0.6976249300796487,0.7306844116013007,0.7458607417571514,0.7481694185049785,0.7483126481048281,0.7542717760827546,0.760217045372471,0.7657217757895025,0.7725054164801015,0.780422982828556,0.7889264109768779,0.7977907388736081,0.8033409378247414,0.8078480245074964,0.80849781083167,0.8072424242015535,0.778915541879539,0.7252115394111622,0.6962185615960435,0.7131071261378654,0.7458074623410735,0.7866955391532229,0.8021362790304665,0.8083065104026772,0.79993495386554,0.7428401041939927,0.6618942172709665,0.5876584450419471,0.5091358306033551,0.4270275747366328,0.3491454577029749,0.27437351336866156,0.1925103760686544,0.11033760293102501,0.031346070775134516,0.0,0.04063826765247214,0.10743627915339249,0.1851419134695962,0.26343382840662555,0.33779089061146905,0.41623751303447665,0.4891192362598331,0.56157261865571,0.6344221514660997,0.7022917196190888,0.7620805314056451,0.7809605804456905,0.7659027305990171,0.7402389927751198,0.7158228682721892,0.6836206236314373,0.6475973349625244,0.6074185788783204,0.5847284344669845,0.6018286403440534,0.6407182610254223,0.6837895087730943,0.7338592940155675,0.7827436301010142,0.8068883503672593,0.8093291732265591,0.8243469334139149,0.8541481398847812,0.8785265114713725,0.8943274356531881,0.8994374037343522,0.9130192888607886,0.9192386394410132,0.9359609906438202,0.9519735576965329,0.9520812361548063,0.9419520561411996,0.9258206388617467,0.8803805797780078,0.8213405343462419,0.7915027871312235,0.8115471794113212,0.8511798422475723,0.8914742298023401,0.9138758962218512,0.9208451801250337,0.9133422784884242,0.86665020042708,0.7928596762075362,0.7110043752767916,0.6353812948130755,MI
0.7461387707627498,0.719826483869419,0.6494706070688658,0.5373430524662437,0.4159582598206484,0.3570674571252579,0.4551342777577636,0.5591573141681043,0.5973117533769572,0.5927104461015302,0.5514065716051162,0.4593787292263123,0.34934507675383575,0.23466479939756502,0.22527652571331647,0.333974664620611,0.4531832847965589,0.5786614560180281,0.6824340657699879,0.750740223045268,0.7907218147702961,0.8204651720780589,0.8283628149703959,0.9072644693818948,0.8624010369421304,0.7250031570342133,0.5899331997842063,0.5873044775807634,0.7065083570191169,0.7940304897600909,0.7957596914161083,0.7732195525602732,0.7103744720449154,0.605912123735389,0.4842642661285885,0.3984427549420064,0.46429935511058584,0.5743435089265261,0.6318881109867314,0.6173774708159567,0.5768277002125308,0.4874069209862393,0.3831162594393831,0.26782055059959253,0.17475590278064068,0.21814221607312856,0.3362028623897486,0.4560796723200826,0.569303683145344,0.6595478400753874,0.7158521328147591,0.7437253008019558,0.7546279125848927,0.849226319056624,0.8905872486797559,0.7823156336614701,0.6298728371448745,0.5044296336038792,0.5536528000484746,0.6627561117240939,0.686973637086735,0.6624577392273161,0.6128159814118908,0.531107606670536,0.4159626914530179,0.3265522175422215,0.3963663754222897,0.5054138531220604,0.5776169201537207,0.595770712462317,0.5597168108035393,0.4739636089712973,0.35979369643632886,0.24572226962957178,0.21535468782720013,0.3238398294054785,0.4527005279807965,0.5685043059310102,0.6755221336217092,0.7680183441760184,0.8239034955996556,0.8647008302595416,0.859578328990402,0.944997654480205,1.0,0.8976092906629569,0.7548224310221898,0.6303524630808246,0.6784749618872947,0.7733362423774062,0.7636540392396927,0.7270891664648977,0.6710209181021165,0.5810179662073947,0.47048384991409575,0.397676346193534,0.47171407653107345,0.5645495554862165,0.5965932943279393,0.5777247090487876,0.5182866390888918,0.4331843373881905,0.3133071297340577,0.21354095584561783,0.25970211614812655,0.37477985508485734,0.502713725883055,0.6192845860835092,0.7195691096376704,0.7948669010286875,0.8279778684920927,0.8382010876757935,0.8576341221640504,0.9108587801953525,0.8173731236643382,0.6778696496061056,0.5538472446955565,0.5908666314655044,0.7166451320118159,0.7599521348312064,0.6689813386511045,0.5276193156823354,0.3979236929350929,0.2554636372273671,0.08887714665971336,0.0,0.051223296420390696,0.19706549059626788,0.3008233345992304,0.3013898747326613,0.14288293412414665,0.014204714520186013,0.010133261990314502,0.13172938486593022,0.29638101144631346,0.3884513239243659,0.49243130516905653,0.6329539052256963,0.7398596652095861,0.7394988589410496,0.7644997227402035,0.7538514312625058,0.6846648291531792,0.5838036525720955,0.4710664728486855,0.34986825924517095,0.22384713165008563,0.1358762915912317,0.16568709091818157,0.2820779612412263,0.3910741999137195,0.47529176548356,0.5226445610902424,0.5190150615522038,0.435124841516203,0.32659026480384545,0.2943071252169118,0.37135545100039646,0.4867883183194497,0.5910263122396038,0.6598219597332258,0.6909704884586665,0.6416321133916649,0.5142034566254936,0.3753345822842067,0.358155434810433,0.4878312086207899,0.6225966888180987,0.7475986728089543,0.8221310135928954,0.7758123530178627,0.7886672453040551,0.7517767197387837,0.6939248231951658,0.58793740691002,0.47231528359270447,0.3534955426999651,0.23525450754823973,0.13113500512324716,0.13231154529313516,0.2334955430901111,0.35692669473008687,0.4579518026212104,0.5179345659645658,0.5094159373131317,0.4208686755850688,0.3017787307418218,0.22467434323719626,0.2670409620588896,0.3760348070919033,0.48373711868670144,0.5711475511292177,0.6081835175497599,0.5675359425838011,0.4486521809683617,0.31555969466292266,0.25998727675491873,0.3787432631056893,0.5276259995405699,0.6644311269301921,0.68903586094868,0.6705729335923523,0.6747867817455755,0.6364316976176831,0.5611947109231417,0.4555971803298626,0.32894332530180614,0.2084673461116182,0.10132413835870002,0.06010666035646217,0.1429314925834415,0.2572472547290636,0.3740838029400311,0.4805308302257898,0.5419555824920717,0.5530716250003369,0.4871064140413477,0.3778129922908966,0.32078693909960654,0.38879055044343547,0.5163984778454473,0.6242616916556116,0.6972054404865706,0.7240455152584433,0.6684932883191879,0.5399009541129054,0.40788031916751555,0.315306996346187,0.39147644582838925,0.5391728664822297,0.6866128363743549,0.7591423937143795,0.7149859715757607,0.7218300224392808,0.7008610016050207,0.6405664070054171,0.544321695188291,0.4273995787027949,0.29814086903450354,0.18049660746296725,0.11143425988754352,0.17145138814841943,0.2820417430045077,0.393600677682044,0.48425708836568004,0.5274257190378013,0.5235641489323157,0.44858236486692293,0.332788800987716,0.2635100642362276,0.31933534341962,0.4401853653859171,0.5685003112521492,0.6505212212718048,0.6798705796634503,MI
0.7960765263863876,0.7232324567075437,0.6220530271586626,0.5291082953649129,0.4419606016211377,0.4014521524263399,0.4651383211375544,0.5442556409500812,0.6312103375147036,0.721765660437959,0.7950521602309397,0.860264933655349,0.9226095843729087,0.9714213347328977,0.9907963008959335,0.9947438114611034,0.9991684447048703,0.9790692085830428,0.9197731190809217,0.8333747371664892,0.7212849443318876,0.613799931713765,0.487817944839108,0.3671919734454612,0.37036101426511037,0.5016756013676069,0.6325737641889164,0.7642153882164391,0.8793253504920706,0.9834450004048128,1.0,0.9733381986689702,0.969215665552158,0.9509916717614577,0.9296752685283272,0.8300055280488134,0.8039476155273371,0.8620830997306994,0.911196387224531,0.918750645441782,0.9198844413043172,0.9339351973618624,0.9324637820243096,0.9292935685839296,0.9458811698707272,0.9458141664278568,0.9075043425596925,0.9127396497930427,0.9165933320374591,0.8992039803188643,0.8939985108370774,0.8820242988995148,0.8826976377245064,0.847073005791338,0.7713328697029791,0.6779200904613858,0.5891220671627937,0.49261691526287565,0.4053634231737875,0.39304577673929675,0.46431901328892033,0.5401332354939061,0.637571568397679,0.7325082823354387,0.801324665864799,0.8655418581484691,0.922728207195834,0.9526713053882854,0.970872097437987,0.9840352358639222,0.9670109309719002,0.9334917087319501,0.8415553610082909,0.7342442871875847,0.6396511153407292,0.5307707976737852,0.41567724020279595,0.45684474081959836,0.591149414973116,0.7184105687734141,0.8410158644692243,0.9505556276970557,0.9812275203279435,0.9687985466488116,0.9575639845004993,0.9267136807501268,0.860056513348562,0.8250642784727367,0.8696853051901035,0.912146700705442,0.918763160078861,0.9227948909272787,0.9331923006356004,0.9504678491222118,0.9449256167638005,0.9289752096614241,0.9081248472546686,0.9162828796539975,0.9033231142709051,0.9146783676130643,0.9016377547381151,0.8956786546994047,0.8956283512748313,0.8905853065057241,0.8476960290645694,0.7825250934521661,0.6963419246606373,0.6089527151877094,0.5034171402685308,0.4109996907360922,0.3842262580617133,0.4495695618749229,0.5408654245164413,0.6239889742911235,0.7141387258002845,0.7882231471098096,0.8604296001986684,0.8981588911515539,0.9416487602744423,0.980278439755708,0.9880876407369903,0.9818254663359962,0.9525449811250066,0.8884828284876667,0.8322499447262346,0.8558536015445766,0.8705950806337297,0.870850576521526,0.8446584894299902,0.8085229298956622,0.7581349794879197,0.6905675169045753,0.6011550853158356,0.5141500831127024,0.43044198884451745,0.3475312933043768,0.27419005758178816,0.2601245149375506,0.31350280885507464,0.4228950248108658,0.5151623374197132,0.6100757427163908,0.6936925298943675,0.7611474308666031,0.7907633995102219,0.7803549060073287,0.7910724202449781,0.7938655276926956,0.7976281357027295,0.8040590966505672,0.8109181226931184,0.8113014430359327,0.8259247407729551,0.8292646592735697,0.8362387965776894,0.8315740974315684,0.8199515277091183,0.8090786118624544,0.8210927640221843,0.8089138836144047,0.7545966248603619,0.7078812712394411,0.7471897784570714,0.8231638642150965,0.849029616424477,0.857787488366069,0.8489890281938823,0.7982129697470448,0.6734152263191637,0.5283500320523435,0.38418987274469973,0.25547833801758424,0.11873276733393379,0.014866093529708024,0.024540988983611012,0.1409507327725983,0.2699010052152073,0.40804601998659207,0.5318888578153618,0.6374064733669562,0.7529318757517416,0.8281162406688463,0.8623193796701867,0.8610192018422125,0.8420642041085702,0.8286716464330537,0.782988149745127,0.7212009015697958,0.658699679222003,0.5735648900403802,0.47009594179491554,0.39191109371285116,0.31306787486712206,0.2589970083267188,0.2779282319533345,0.3620449239278103,0.4610020846427898,0.5560577011397703,0.6505994414380942,0.7297896657866261,0.7692346886160419,0.7829571354142764,0.782324402089777,0.7931212778855046,0.8072524012806834,0.8102227921499052,0.8171894237973523,0.8287730394578796,0.819029226170914,0.8296145985406302,0.820126436986294,0.8090975400718476,0.815425021106813,0.8143883037004134,0.8023949917596971,0.7598393269389057,0.7004628894554763,0.7027540850625522,0.775813146420905,0.8323673517302073,0.8622485535770936,0.8766012828474303,0.8466016773793394,0.7198587767361713,0.5906544048446492,0.45581132348384124,0.3225929655692741,0.18559049199081334,0.05932119906307154,0.0,0.08175403747157839,0.21540508568725603,0.34327722348992706,0.4711761186076697,0.6014973416436926,0.6956873445951852,0.8039273810857885,0.8611224206906445,0.8783895984896373,0.8719291734038528,0.8607421527257406,0.8456431547491858,0.7986852353962672,0.7316110719745121,0.6615442218815586,0.576595040323872,0.4865940430356481,0.4072234915237809,0.32657090860578863,0.270444321455769,0.29892312688439526,0.3850947510649645,0.4744348954397979,0.5812502089237577,0.6732400677934813,MI
0.9332823196159186,0.9044468393860414,0.881924062105413,0.8951411565238154,0.9062601328651465,0.9039463138989612,0.9048225260721976,0.9038501849468663,0.9021977504908445,0.9017241890520897,0.9043631256403968,0.8957940633959236,0.8765769520858266,0.8466104423581735,0.8197395997017829,0.8372185794370288,0.8797254988642305,0.9205003414171551,0.9574926368596177,0.9775923986989925,0.9919825560608064,0.9940360193012376,0.9661545124446915,0.9171468224067556,0.8518702414869546,0.7847774006510762,0.7205963480226245,0.6567468982048539,0.5913694221228494,0.5263431427935776,0.45772864084524234,0.39439588238967394,0.3629015245918026,0.4172107629615954,0.48370582547035534,0.5490024770186995,0.6180835851056351,0.6825822283122072,0.7500619766186205,0.8161511231122234,0.8801503217324702,0.9372677169791843,0.9479874030987039,0.9244729851617248,0.9010133060099481,0.9152920515544389,0.918709384184111,0.9171360049628203,0.9141304452556216,0.9042540940217936,0.903681723583516,0.9056330423176324,0.9004688406539181,0.8815648262730793,0.854657912205572,0.827735022848185,0.8354540985039862,0.875057261378877,0.9177418539242632,0.9537769106506409,0.9749548067230698,0.9802901225261884,0.9795091106217662,0.9441633193969474,0.8911353659473447,0.8300549032390023,0.7666486047758923,0.7019056066324194,0.6377323070631551,0.571804047873433,0.5063789407685125,0.4373509148864724,0.381091492884298,0.39988043829448894,0.46768131852213546,0.5373207980195898,0.6068655460338167,0.6728355604120637,0.7386933694186895,0.8057344280822749,0.8695357869155576,0.9259828907603622,0.9328292525112729,0.9038550351992092,0.8798137666956367,0.8945791657807314,0.9035294244845666,0.9041121311892002,0.902013254391447,0.899801612415148,0.9019427941739895,0.9054943162520737,0.904522691382609,0.8892365452106221,0.8633038741811734,0.830538685950637,0.8240070311017296,0.8598462920007559,0.9018724123440451,0.9431047797170304,0.9748974661014227,0.9871984011963613,1.0,0.9965025895846416,0.9643624776919519,0.9108344455641237,0.8507380634217305,0.7969912735766245,0.7336834263262053,0.6715847208569521,0.6115884697272065,0.5471768576417685,0.4803224764841304,0.41553335041711414,0.3464297202351512,0.28148116027040637,0.21449268438669755,0.14539587262156373,0.08462927368378198,0.07032241590852678,0.12723902838639845,0.19674170127844637,0.26638183251202074,0.3360180099107182,0.40450804307626587,0.46855424419852776,0.5367578259526908,0.6008815494014587,0.6590288452802586,0.7033882861091547,0.7679415007852339,0.8220993214512782,0.8813206670475773,0.9376244186196272,0.9699196028068326,0.9651821170054169,0.9502769723913786,0.9204781499135284,0.87637767218759,0.8356372530318912,0.7999166898136223,0.7945777514055472,0.8211930126926703,0.852896495767993,0.8724376388109933,0.8812159976021674,0.876708387627605,0.8760157551026118,0.877798845039433,0.8808559427142397,0.8750506713160993,0.8580595572397001,0.852701730087807,0.8779979637452375,0.8825056013399362,0.8291705664781033,0.7652633008341612,0.6978307104548416,0.63315686607774,0.5658715544320689,0.4988246349256358,0.4339456495930143,0.36457482595057145,0.29655500751186625,0.23232566245081687,0.1632660053792392,0.09398560910408849,0.030416886813615096,0.0,0.04910559840059464,0.11079463798309935,0.16666877634139154,0.23483611780993163,0.3024170228073516,0.36690184404312853,0.43614400420683896,0.5045681667542437,0.5686297741870048,0.6360959814902136,0.6998047473570843,0.763423717034408,0.8267950423103045,0.8891885311306713,0.94142612588893,0.9563857955284951,0.9490055144888458,0.9290575894033708,0.892312542007841,0.8511736929955613,0.8099002116748808,0.79140084945165,0.8102399685994912,0.8398609974482216,0.8657186611447834,0.8778576817181385,0.879100467055002,0.8768625347020451,0.8849050381880323,0.8892245784291755,0.891435970169941,0.8940362511439901,0.8810195437522081,0.8683686415681864,0.8883193956167696,0.9053135465523448,0.8601695566175962,0.7932305293751785,0.7286831061010424,0.6606351391470675,0.5965668579497952,0.5279682966462498,0.46290075787681084,0.3960575982077449,0.32654145644600574,0.26043735457837947,0.19468192215471603,0.12516108425294747,0.05666482644937876,0.012220316512407958,0.04350289054971779,0.10968915343319074,0.17552119666107313,0.24151695688429475,0.3104147266348457,0.374573727123907,0.4427310169906836,0.5123639269553351,0.5819918097150036,0.6498342977832168,0.7132377599856068,0.7767193259470853,0.8418628557542716,0.9036368332144094,0.9510945744177384,0.9669649685670427,0.9580703976221459,0.938895582119758,0.9040391038703632,0.8609269548175322,0.819364270983105,0.7907959464678525,0.8003681577533672,0.8341315081447607,0.8619873322500555,0.878499214645404,0.8789929193949415,0.8760533976806999,0.8763398216061857,0.8776816754715917,0.8790860898365802,0.8796062695287472,0.8554500515609906,0.8552508756627779,0.8799675134074811,0.8828631936730236,MI
0.889345802725108,0.9184571514603912,0.9383374920657215,0.9315493094838672,0.8740665582669866,0.7813083971484207,0.6809891811936131,0.5803451049912633,0.47826305430650184,0.4246934281872774,0.5108492712312731,0.6201745020498481,0.7260820542007733,0.8242808184728012,0.9226206212715045,0.9974227936529181,1.0000000000000002,0.974352252130813,0.945019816554759,0.9230702786380711,0.946565639250261,0.956928633501031,0.9570406850513897,0.9565027886389179,0.9465103671718509,0.9416944614643599,0.9416541072451554,0.9416309593456187,0.9377607293820327,0.9270623366297495,0.9258214275598691,0.9199298489452301,0.9254903756068138,0.9262698687136506,0.9279602533076405,0.93867791302645,0.9160606245735987,0.8572614919030956,0.7917740223478333,0.7164463752489205,0.6409873888838209,0.5762041666367852,0.5899071800235196,0.6452775550121908,0.7055145257886217,0.7606315671961761,0.8122213133904392,0.8527109554989682,0.8774897843149365,0.8949997872447246,0.9096350524393315,0.8934567900441739,0.8133427497800938,0.7175454832588579,0.6166159039309107,0.5554898730563813,0.6227606806100636,0.7290796637387109,0.8270855396433177,0.931602572474638,0.993142702863379,0.9733254775524396,0.9464890059426299,0.9198727131316551,0.9128273415809842,0.9375325803418695,0.9334326004077729,0.9264016075950241,0.9262972045833917,0.9304538588833904,0.9341116238157074,0.9349571696952819,0.9360255134867199,0.9336798288674475,0.9414272274113962,0.941654531558769,0.9424708481182684,0.9512408748336296,0.9434702915395625,0.9409056283182335,0.9194528731589238,0.8640933885645474,0.7962256389741771,0.719375442517358,0.6419407185140786,0.5731426072633805,0.5557619750667036,0.6038528995512442,0.6665345045579658,0.7157664268375312,0.7650822176405925,0.8001157808652997,0.8359748664827913,0.8515517858831239,0.8570093974523478,0.8147005373020437,0.732097092336913,0.6347346960092886,0.535153417615694,0.4349233389703875,0.3957637310619331,0.4854156137050871,0.5947176721825891,0.6983064823266487,0.7899659328435515,0.8587524996544647,0.8861234065180732,0.86120219841495,0.8252272924049937,0.7925635632453856,0.7865911612283443,0.791255450593235,0.750414064110094,0.6760441712002894,0.569153473029681,0.4787079142677657,0.46555349390780454,0.530554438003408,0.6378064639424201,0.7184592458859831,0.6870296735083843,0.5874790924820428,0.4899334203202843,0.46139011919014483,0.5017733036226903,0.6042464101175142,0.7061399863203903,0.7634967910846486,0.8015023792414728,0.8181077549600009,0.7538149600686739,0.6570507291041634,0.5530433140533375,0.4520439536690535,0.34921850736461946,0.2411589448609841,0.1430254067605421,0.041823984020011196,0.0,0.07441228110220233,0.17186050297922972,0.2776746973900066,0.3765808437241607,0.4815031725351526,0.5814607106748195,0.6824865226177559,0.7704333856465946,0.80889009808223,0.7947969808539048,0.7614894548420648,0.726559955694847,0.6768942812397734,0.6276572589943703,0.5664665409478753,0.5130294352548315,0.49482868896694865,0.535845000427966,0.600075028503287,0.6757961241970156,0.7523409111497801,0.8266500592170389,0.8840439689849331,0.9039188009993107,0.9047257840869525,0.904726077842535,0.9047254832358254,0.903791769765643,0.8927701500006406,0.8916243520616145,0.894286111234299,0.8801439477548778,0.8886196756808318,0.8893391221985072,0.8893393989247802,0.8893290516556622,0.8859628664271593,0.8603824141859879,0.8558436847171416,0.8877338635605343,0.9162315956665876,0.9129226208675292,0.8337881299734147,0.7347341647810113,0.63270711384974,0.5238885583007298,0.4243327834096522,0.31983565136769454,0.21043110211047233,0.10455067974162979,0.05751128317986898,0.12188182033444095,0.22420004566601137,0.32250060893371457,0.43059590495569533,0.5310641024378577,0.6337248174183026,0.7322191979000034,0.8237834679906573,0.8566242044597219,0.8412671521824173,0.8166452546825773,0.7765890492715182,0.7252069497348088,0.6704339983667207,0.6110005462159858,0.5530936496336192,0.5236255610388951,0.5511299004004766,0.6169979160181362,0.691810245555281,0.7666852157969102,0.8368058839724555,0.8884229301050282,0.8910340667717789,0.8893432935653733,0.8886103283617308,0.8781163883484375,0.8787023743477678,0.88790579313983,0.8815801651085351,0.8992316215628768,0.8974518498140418,0.9022728725094653,0.9047212507562887,0.9064619650497987,0.917770790268327,0.9124056608971063,0.9114883147624331,0.9052041965463051,0.8656429308249096,0.8647632656913047,0.9039651319702073,0.9327296335597326,0.9360462426446541,0.860621287546304,0.7576427503511975,0.6578491218062543,0.5537181908688267,0.44740958799272046,0.3491368603543463,0.2429364794133213,0.14595947114015928,0.07851925695828132,0.1283208544403689,0.2095840919287677,0.30329082340454017,0.4014989329890659,0.5076474962316289,0.6055560215974476,0.7076435320625347,0.8048785477135778,0.883080072558623,0.8902392273907098,0.861690128543928,0.8313902573248482,MI
