0,1,2,3,4,5,6,7,8,9,10,11,12,13,14,15,16,17,18,19,20,21,22,23,24,25,26,27,28,29,30,31,32,33,34,35,36,37,38,39,40,41,42,43,44,45,46,47,48,49,50,51,52,53,54,55,56,57,58,59,60,61,62,63,64,65,66,67,68,69,70,71,72,73,74,75,76,77,78,79,80,81,82,83,84,85,86,87,88,89,90,91,92,93,94,95,96,97,98,99,100,101,102,103,104,105,106,107,108,109,110,111,112,113,114,115,116,117,118,119,120,121,122,123,124,125,126,127,128,129,130,131,132,133,134,135,136,137,138,139,140,141,142,143,144,145,146,147,148,149,150,151,152,153,154,155,156,157,158,159,160,161,162,163,164,165,166,167,168,169,170,171,172,173,174,175,176,177,178,179,180,181,182,183,184,185,186,187,188,189,190,191,192,193,194,195,196,197,198,199,200,201,202,203,204,205,206,207,208,209,210,211,212,213,214,215,216,217,218,219,220,221,222,223,224,225,226,227,228,229,230,231,232,233,234,235,236,237,238,239,240,241,242,243,244,245,246,247,248,249,250,251,252,253,254,Target
0.6628695065320915,0.6707896981540402,0.6748207034543923,0.6798475557083641,0.680627755573125,0.6806292820187168,0.6814209083459655,0.6864045468910329,0.687854002027696,0.6896364032714082,0.6916779994219509,0.6933564052123851,0.6908397093332361,0.6924197150198375,0.6933870051040201,0.693388788892795,0.6933849399473324,0.6917862983948042,0.6826094267240994,0.6717737203304537,0.6693687870440463,0.6695949504585972,0.6700331157163666,0.6836310167271804,0.69737741990636,0.7049249079362794,0.7061463983809741,0.705666951378308,0.6946923912763978,0.6681289587535348,0.6409353612367596,0.6185759846492138,0.5989567046487161,0.5707739791718325,0.5417747781374234,0.5168356686596074,0.48977296165281087,0.46065899792477033,0.43153493442030527,0.4024108709158402,0.37328680741137504,0.34418915204405903,0.31796399029268124,0.29224130125909326,0.2631708250375339,0.23404676153306886,0.2049226980286038,0.17579863452413863,0.14667457101967363,0.11781203750256436,0.09332180061901119,0.06567704101076649,0.03660094401489028,0.01111635940709721,0.0,0.01752000104538004,0.04314230973925909,0.06924135696983424,0.09833463056381153,0.1274586940682766,0.15658275757274176,0.18570682107720676,0.21483088458167193,0.243954948086137,0.27307901159060205,0.3022030750950671,0.3313271385995323,0.3604511231878608,0.38927909550433143,0.4137082000336921,0.44144644162293906,0.47056718447783846,0.4996912479823034,0.5288153114867686,0.5579393749912336,0.5870634384956985,0.6161875020001637,0.6453115655046289,0.674435629009094,0.7035596925135592,0.7326837560180242,0.7618078195224898,0.7909318830269547,0.8200559465314199,0.8491795558604529,0.8777357253392415,0.8960606141571357,0.880124252170799,0.8518804053360263,0.8277589976478432,0.8000998853162822,0.7765320722363325,0.7566224112823225,0.743684991265195,0.7383773915740919,0.74140785283759,0.7444587254934925,0.7481141795898587,0.7550905676463047,0.7595273300133893,0.7606760146072933,0.7502058521611523,0.7358621742052402,0.7198952050753042,0.7033080696810163,0.6836877331755613,0.6638657089179179,0.6444473180437997,0.625013989876928,0.6044133045642615,0.5887014082684865,0.5895476785726543,0.6032022530769412,0.617770159048429,0.6335296233145726,0.6521203556334596,0.6651785008147242,0.6742643509278361,0.6802101682080504,0.6873691887334916,0.6931248987938745,0.6934633456947084,0.6970884311981014,0.6997467683949068,0.6997690605368221,0.6997690605368223,0.6997690605368225,0.6997665083176523,0.6985923036760575,0.69376268868706,0.6920661198272939,0.687224301958451,0.6812780430236758,0.6672926623852946,0.6563571897042779,0.6523849141935572,0.640441641316184,0.6380674356494851,0.6523033932751869,0.6687249509313424,0.6741961657908782,0.6742477665240454,0.6737988774702903,0.6630540534103446,0.6365949635811807,0.6083567189503254,0.5841878139007632,0.5556120158598161,0.5264883888871914,0.4973647973763811,0.4689970214503089,0.4448720084550885,0.41637170532763285,0.38724834300888494,0.35812427950442033,0.3290002159999548,0.2998761524954901,0.2708230949527179,0.24525401891702742,0.21885359128125131,0.1897601701216492,0.1606361066171838,0.1315120431127183,0.10249690356108332,0.07744849129871367,0.05572366228635017,0.053002148256110326,0.0763720173762304,0.10546552240125362,0.1345895859057184,0.1637136494101838,0.19283771291464863,0.22196177641911402,0.25108583992357875,0.28020990342804414,0.309333966932509,0.3384580304369745,0.3675820939414391,0.3967061574459046,0.4258302209503693,0.4549542844548347,0.48407834795929944,0.5132024114637648,0.5423264749682295,0.5714505384726951,0.6004772644998715,0.6258032787351133,0.6524614566877986,0.6815665208465362,0.7106905843510007,0.7398146478554664,0.7689387113599311,0.7980627748643967,0.8271868383688616,0.8563109018733266,0.8854349653777922,0.9145590288822569,0.9436830923867225,0.9728057575717786,1.0,0.9964752991140617,0.9730387604114177,0.9461934986662017,0.9282009957658317,0.905099134511516,0.8764920574465846,0.8520539483584502,0.824658733726056,0.8008959840517738,0.7805454060736106,0.770487568007376,0.769962822069892,0.7721167246800809,0.7790644714352972,0.7826484801275932,0.7827033717430565,0.7803770335556128,0.768377129123295,0.7542777408983854,0.7370690559908468,0.7210709952708536,0.7045066726029039,0.688054017311478,0.671979667701216,0.6520869635860496,0.6292571609484732,0.6098328277751022,0.5984419381154689,0.6003450358429305,0.6132757781143763,0.6340854628162444,0.654183794289781,0.6694415509133185,0.6833052669303981,0.6921729850683287,0.6955021767864504,0.6996486462836555,0.6997690605368299,0.6997690605368301,0.6997691559877766,0.7001089227030433,0.7028135345782334,0.6999129637904442,0.6997690575305022,0.6994722201341439,0.6947733083634979,0.6930575960135683,0.6882827468035972,0.6870117718539555,0.6870085172487936,0.6870085172487936,0.6870056014125419,0.6852830827899277,0.6720990813032526,0.6628709075603927,MI
0.4070368590322515,0.4341447826286895,0.46457816759240755,0.4943738626349008,0.5259417541844124,0.5591832980239274,0.5922851447352745,0.622815373348486,0.6494934791630042,0.6438508234493321,0.6267107301276176,0.6248401525208735,0.6401843470310479,0.665127760741653,0.6908461390668285,0.7154676665193397,0.7332686827532076,0.7275139513300738,0.7276602128168735,0.7320367872247834,0.7379244936580344,0.7499392019571809,0.7657550274645399,0.7748553987581186,0.7785751662268406,0.7831130461239171,0.7835812142338612,0.7854673147847249,0.7839719363254603,0.7835316781022186,0.7835311735327601,0.7835310245433716,0.7831485514004353,0.7751950734490802,0.7633336391571574,0.7551475189817477,0.7641585429648123,0.7778366348616103,0.7902308132162494,0.7954692153472176,0.7955918260486279,0.7922474455811932,0.7879642846499514,0.7832285787457707,0.7775261596601905,0.7611627507608922,0.7303181375568439,0.6967622217483017,0.660714337393213,0.6285045531350268,0.5924954950256456,0.5556924990051103,0.5188881299214835,0.4824907439717141,0.4501782010737777,0.4145410737955647,0.37774003130808587,0.3409354139088081,0.30413079650953057,0.2673376857712635,0.23230458317902558,0.19956822164275517,0.1629829009938102,0.12617832881250596,0.08942655627951329,0.05552371277230694,0.022024487574869744,0.0,0.01978718992728218,0.05542839437777458,0.09223047343646157,0.12903509083573922,0.16583970823501692,0.20264432563429452,0.23943123191283178,0.2741912134994785,0.3071474328925995,0.34379217593204214,0.3805967933313198,0.41740141073059744,0.4542060281298752,0.49101064552915286,0.5278152629284304,0.5646198803277082,0.6014244977269858,0.6382260674044663,0.6739596041892334,0.7062147974340147,0.7425726441641393,0.7793769654240107,0.8161815828232888,0.8529848200636052,0.8890102437681178,0.9156290756559584,0.9178987821985078,0.9180201677882776,0.9275455765383833,0.9420823236037452,0.9550133841812543,0.9658386151655023,0.9595462599220408,0.9355581772701038,0.9106992412846509,0.8841607445534312,0.8562725951047758,0.828667558544818,0.8010648792292923,0.7732387993887165,0.7429599888931153,0.7098485421910419,0.6776877044184737,0.6470071813623932,0.6161444830500794,0.5846663460289848,0.5539815811114512,0.5231685617953495,0.49066196159682274,0.4598652236850339,0.42919583200158695,0.39872427040583847,0.373959439388038,0.3724234399796875,0.3961923427325025,0.42616513386325183,0.4568319754048622,0.4875218483771805,0.51960872457546,0.5501978452307494,0.5805299789946636,0.6111796312673091,0.6409218243400463,0.6679186173383603,0.6917380768326898,0.7157757559050864,0.7367143484731945,0.751760104360791,0.7623613693792629,0.7709123855667747,0.7726416922443843,0.7770801775612914,0.7774603402528175,0.7775254793328026,0.7794586811501184,0.7778443481537748,0.7774609171003302,0.7775424947147153,0.7795108173440809,0.7752027345081428,0.7644957883356499,0.7614188185745485,0.772094995771013,0.7875459812612138,0.7998044081422508,0.8017356816039751,0.8011808578022539,0.7940488582621898,0.7918316840803228,0.7955035035137334,0.7917609266056136,0.7680689484179206,0.73654455140764,0.7019593800177678,0.6651779035454689,0.6284367840666851,0.5947228524419728,0.5607851503781272,0.5240300532477218,0.4872254358484438,0.4504208184491665,0.4136162433555186,0.3770564448578436,0.3444208679157923,0.309472155285874,0.2792305513470286,0.24770630036764663,0.21100495428400762,0.17544898777437262,0.1430695894903911,0.10665684638496042,0.06985849271289918,0.03448954607197391,0.006233301267332292,0.009466580084862147,0.043932792896885675,0.07642892232262388,0.11175821152494958,0.1485562979945509,0.18536091539382954,0.22216553279310686,0.2589701501923841,0.2957747675916629,0.3325793849909402,0.3693840023902175,0.40618861978949483,0.44299323718877204,0.4797978545880508,0.5165662552004282,0.5507557890624944,0.5842221455234269,0.6209457048857984,0.6577503222850758,0.694554939684353,0.7312924109327721,0.7634029959106012,0.7931103501444574,0.8296318809439003,0.8660150446842045,0.8983623895658843,0.9339787941472579,0.96952876307064,0.9793642280768418,0.9642374573951833,0.9597426591126617,0.9643396567300924,0.9762858748703045,0.9910048187984184,1.0,0.9922113283855856,0.9699632377149388,0.9428491245191868,0.915679284436093,0.88704697343324,0.8589762917121206,0.8305024737708722,0.8010350597655602,0.7707280230567424,0.7417920864457922,0.7102867782595828,0.676431533780751,0.6419761641294197,0.6111530999002122,0.5789709946375778,0.5473722792913777,0.5161958707038343,0.4852325820910216,0.453715281375799,0.4226710845263465,0.3958365536717673,0.3863723557806725,0.4080824785202529,0.43695982766349484,0.4678528708356202,0.4992450191923621,0.5299204856592439,0.5594007918519498,0.5837177521445522,0.6129093110791393,0.6424278874221556,0.6708497955591256,0.6994712750382707,0.7277306100244738,0.7482013027240073,0.7637293401003965,0.7734229347910819,0.7813598307681783,MI
0.20360124565022275,0.20360124565021875,0.20360124565021387,0.20360124565020854,0.20360124565020365,0.20360124565019877,0.20360124565019388,0.203601245650189,0.20360124565018456,0.20360124565017967,0.2036012456501748,0.2036012456501699,0.20360124565016502,0.20360124565016013,0.2042543630627014,0.2181569757063091,0.22056886153008293,0.22057185613557584,0.2205718561355705,0.22057185613556562,0.22057185613556118,0.22057185613555585,0.22057185613555141,0.2205686270340239,0.21806274121333535,0.20208380303472273,0.1870634276040808,0.1724964571985006,0.14651274878960852,0.11468711180127844,0.08948775554879163,0.05798271071507344,0.03154137387251854,0.007674264759293337,0.0,0.0064073216791857845,0.022951032308367925,0.046704110856243375,0.07133268516045277,0.08919817937063668,0.11201526712609677,0.12258977034553808,0.14477583671617023,0.15317417645181308,0.1664915931442219,0.1696551072062733,0.1696600246791724,0.16966002467916752,0.1696600246791622,0.16967476883088795,0.1753386786373805,0.1877203824955873,0.20686343665828444,0.23182445619543746,0.2667008777471791,0.3020577806060354,0.34938487740003943,0.39902947188716986,0.44820780684702743,0.4850733809877146,0.5310072496405955,0.5806288691725077,0.6239347119139445,0.663135530481429,0.712619733092513,0.7622608123052133,0.8074746498370655,0.8448530224011894,0.8941980709588013,0.9338147224483984,0.9495387001106148,0.9345968023631621,0.9007331176524702,0.8531758403798073,0.8035289641634917,0.7539711117215924,0.7125436425636642,0.6715223725318018,0.6219101562625151,0.5722628016659139,0.522615447069311,0.4729680924727093,0.4233207378761068,0.3736733832795047,0.3240346980922095,0.27901744924210314,0.24136255665937556,0.192054575378529,0.14240722078192647,0.09276449604601966,0.04847589777782835,0.062441409585005214,0.10029357774884806,0.13910972970862412,0.18183516080623985,0.20380459138165774,0.21799151430919572,0.22040447811274833,0.20993689009416494,0.2036204834336064,0.20360111719599683,0.20273427493676754,0.1861422443562719,0.17188875419738325,0.1907827264838784,0.2034111694254359,0.20360124564994075,0.20360124564993543,0.20360216500628425,0.2072035395341243,0.2200101929082905,0.22057177886610768,0.2205718561353467,0.2205718561353418,0.22057185613533692,0.22057185613533203,0.22057185613532715,0.22058366214311187,0.225829067635257,0.24208007142267718,0.24778428907198657,0.2376225340061806,0.23816424990469542,0.25048569113597363,0.23919702085663186,0.2375428190078508,0.2375424666207202,0.23756550670827714,0.24433420409115847,0.24572891929615714,0.23757535813206543,0.2375523714765282,0.2425130976280978,0.2543054114865986,0.2545130716923514,0.25455391888931533,0.2640084748762068,0.27141161451827145,0.26660598159734716,0.2548187423783981,0.2545130771060946,0.2545130771060893,0.2545130771060844,0.2545130771060795,0.2545130185389408,0.2540609262684508,0.24105746649897908,0.22295297506309852,0.20273491152677936,0.17439722691022919,0.14738388597673868,0.11549014544536851,0.0867601493625827,0.05713482808084036,0.03229679344296388,0.008315387236158767,0.0002534103263758247,0.012009878649402062,0.029762257115903967,0.050446782823912795,0.0706946225265832,0.09560308192494205,0.11715523281151219,0.13673116216647463,0.16102911380237472,0.16957934207577186,0.1696872127343183,0.17715845834696253,0.18650390342475642,0.1866306351642617,0.18664468798800105,0.19220793881022935,0.2034204893692375,0.20831110243025552,0.23168270009397762,0.2632381849034915,0.299870751956425,0.3399744628364525,0.3813588669311847,0.4179135208217599,0.4641223754154713,0.513742105955513,0.5566713707777886,0.5962392196623818,0.6457355623554655,0.6953740490882194,0.7402113087009115,0.7779195373121639,0.8273543815761375,0.8763745367046938,0.91227714234609,0.959295315679106,0.9971121100798088,1.0,0.9718494452757289,0.9263092536086392,0.889443679467949,0.8402653445080936,0.7906179899114898,0.7409706353148873,0.6913232807182879,0.6416759261216844,0.592028571525081,0.5425662210616009,0.5040260570649058,0.46004237406897763,0.4104097636241044,0.360762409027505,0.31111505443090204,0.26146769983429863,0.21182034523769921,0.1621729906410958,0.11258304599719882,0.07812728089736032,0.10498906812857411,0.14768556733889726,0.1826913638889467,0.21229308704694283,0.22050170773258504,0.22057185613507224,0.2205718561350669,0.22056567238362268,0.21690718362806427,0.20399412017006213,0.19484975557552398,0.17456147240068942,0.1900695959680747,0.20339258120937753,0.20429065763393606,0.21841428583940425,0.2205695181184022,0.2205718561350234,0.2205718561350194,0.22043541232990194,0.2107963429984161,0.2036263597210919,0.20360124564956816,0.20360124564956328,0.20360124564955795,0.2036012456495535,0.20360124564954862,0.2036012456495433,0.20360124564953885,0.20360124564953352,0.20360124564952908,0.2036012456495242,0.2036012456495193,0.20360124564951398,0.2036012456495091,0.20360124564950421,0.20360124564949933,0.20360124564949444,0.20360124564949,0.20360124564948512,0.20360124564948068,MI
0.6460681352222484,0.6364961997790379,0.6297563747381321,0.6304342103516021,0.6441753649290329,0.6558678475961877,0.6676130852897222,0.664567265384439,0.6438266479241939,0.6174862040372546,0.5852433899311853,0.5499252830618,0.5110779728979977,0.4806474381165893,0.4453959838283821,0.4004691248786463,0.35414925215854276,0.3123699523318848,0.27203600759363655,0.22997438186694863,0.18838143713749766,0.14788251578710754,0.10812986274381364,0.0691444773978922,0.029801849149118542,0.0,0.0151787194006765,0.05102975881925276,0.08981933813870202,0.12246653432583865,0.15528576854984966,0.19035573683911577,0.22573399742304368,0.25886613901525357,0.291953763008141,0.32537086424310924,0.35337420424890276,0.37629686066126045,0.39646194591963857,0.42225182103110837,0.45517631829709515,0.49439336854381954,0.5357609346823149,0.5762502385088191,0.6172988395323522,0.6591168663787297,0.7037903909154959,0.7483138703372143,0.7965427118308417,0.8391650068467134,0.8880363885591211,0.9311159192875567,0.9726382024089479,0.9814226601151679,0.9488339994172506,0.9018304996973872,0.8575786281009032,0.8114164935734427,0.7614822211534036,0.7123817097256613,0.6801098914398189,0.6920042318295039,0.7050104963945141,0.6951607417954242,0.675410363866179,0.6584260763017855,0.6392894387159336,0.6390850684541232,0.651729707704491,0.6570690238736436,0.6491104137086832,0.6362874602257325,0.6301635080133465,0.6379544888492048,0.6505229482558224,0.6654572751528804,0.6751142766158134,0.6684347857373492,0.6482195025294926,0.6214142002092753,0.5875723476978783,0.5464717664871446,0.5085635956557613,0.46985664561953966,0.4283946403092693,0.38817180971352583,0.34639603518085305,0.30455387851122917,0.2628053107427655,0.2225216257297702,0.1812014715275463,0.14072123118705004,0.1021945234184829,0.060214460528119185,0.036281887579552086,0.06031131030906134,0.09616391154727766,0.13205419130892948,0.16748498818017876,0.20301748939208064,0.23898595256002597,0.2747989638980681,0.30895065721262505,0.34094494223403293,0.36974264969315596,0.39522502438887686,0.42096369458649563,0.441097189270657,0.462609016156599,0.4977337643009152,0.5393661467206434,0.5794292480650063,0.6193839502551979,0.6594142984031779,0.7012176271723682,0.7449857819947872,0.7890499063675096,0.8352323620124018,0.8851587077692014,0.9343118297963187,0.9745419453830511,1.0000000000000002,0.986358940754793,0.9468048758335261,0.903159084026667,0.8534324123414967,0.8036430567854325,0.7596081423252492,0.7132347380484594,0.6726342657551216,0.6863009000057592,0.7122381771432822,0.7141297954152215,0.6970248312610128,0.6793963220824413,0.6578335946699683,0.6456812295608181,0.6593344713253992,0.6726794558259226,0.6714431398008427,0.6603467523991084,0.6507421973186809,0.6465247196888066,0.6573183951488077,0.6715729407376276,0.6846306160905888,0.6849820093467407,0.6729630156954247,0.6498368257999605,0.6126001234750102,0.5784049302596213,0.5406579283290702,0.5007272042421385,0.4607475627602784,0.4203014325923389,0.3786558422903523,0.3369569570887254,0.29694913115508137,0.2568669896989426,0.21501909221991444,0.17104458485866836,0.12932827739053399,0.09046502957673108,0.05650273795948513,0.05141015985954467,0.0823779924900836,0.11831356561786843,0.1519847452764873,0.1879785546239574,0.22793350434511606,0.26209029477006185,0.2962109308809435,0.3279120563358424,0.35580537358818143,0.3812026101600787,0.406596846575797,0.4229147636538175,0.449218669755586,0.48277504868957877,0.5232251685619966,0.5639418559873084,0.5956048015101614,0.6323643075326602,0.6746266283271216,0.7238365631713983,0.7700687286863281,0.8142151241214108,0.8597386120356874,0.9037604274243904,0.9459604493050817,0.9808251982802874,0.9770521520628417,0.941998277255389,0.8954249167805846,0.8489078192177311,0.804973785392924,0.7552124232004189,0.7058027826286606,0.664767330121318,0.6608910374250196,0.6850207745197898,0.6864347789376379,0.6711180762096958,0.6533927062334539,0.6311589855076558,0.6131199083400127,0.6160313093540173,0.6348705156963756,0.6380364192613492,0.6279800198740582,0.6112054305933761,0.5966884022601111,0.6006272864980824,0.6141651992378896,0.6332999217733926,0.63903804934377,0.6343458700791642,0.6150996845180194,0.586000190983003,0.553245285124061,0.5159604146736769,0.47837876907511134,0.44317933570675505,0.4345931830913974,0.42145311432464183,0.4159608792895435,0.38944780660521805,0.3595091492382545,0.3198404507473982,0.28968950635725976,0.2739897803012066,0.2372528545785315,0.1955159823385746,0.1542125500491336,0.11490242978560761,0.07536715848601738,0.03663742063833175,0.005013027597314146,0.008453865520470671,0.042366918296964595,0.07814881404787455,0.11914129784039384,0.157171745112338,0.1933292958493893,0.22769120486145855,0.2562837412603092,0.27723661436237657,0.3124485841075655,0.34722387155390844,0.38029862336299325,0.39833067611789374,0.4181770738734676,0.39485041505785134,0.35973134473627044,0.32714802009977206,MI
0.0,0.022226299633485658,0.04604083802644232,0.07234293829823568,0.09943641039975581,0.12508355072383082,0.15024548883330002,0.172808612577936,0.1952961878683661,0.22009827671337945,0.24131891661821814,0.2674755173713461,0.2938318425739106,0.3190977362755991,0.3374545542413099,0.35673678550339516,0.3776318288799696,0.3972790785286031,0.4139926017223585,0.4345832479627616,0.4504427315314268,0.46166368586165984,0.48808104050742585,0.5211182386035436,0.5601323256255433,0.5978731731307811,0.6327464223562909,0.6741968405543806,0.7084743949801433,0.7468823748333178,0.7853047050792459,0.8195936828131616,0.8611534838595081,0.902944063833018,0.9410659580498233,0.9669784707241356,0.9950243427444325,1.0000000000000002,0.9772560800762589,0.9406851458669345,0.9059403105717256,0.8669196801814707,0.8333431234417812,0.7934580819050907,0.7604008718809647,0.7195959481056577,0.6853849214470897,0.6560504378678582,0.6466033400828928,0.641069272737665,0.6352830641744556,0.6282829860026802,0.6180169751690534,0.6131181577736862,0.6124607847914112,0.6036668068189359,0.6019500157974391,0.6019052705991255,0.5972024385635282,0.5909018853567747,0.5908094338318144,0.5908094190535182,0.590670051039516,0.5837446978466436,0.5848891054276115,0.5907285027465661,0.5908094338318035,0.5908094338318013,0.5908116854753125,0.5927892276046007,0.6028423829559957,0.6122800762509526,0.6130864441496735,0.6130869346347352,0.6130869346347334,0.6130869346347314,0.6130869346347294,0.6130869346347276,0.6130869550969782,0.6133438777396669,0.6212333268035988,0.6242163101679965,0.6242262983701692,0.6253558879114136,0.6368811723632677,0.6431574864385285,0.6394826283726629,0.6474746601574013,0.6564800336830754,0.6518389602154202,0.6440168341121415,0.626466305790147,0.6029781542195027,0.5751409438027131,0.5422520837145772,0.5080125424037216,0.47646859474317793,0.4403160169825737,0.4074642393156609,0.37110887148661686,0.3374470890279069,0.3048593620224658,0.2716614978602092,0.23346554751355852,0.20032115305902765,0.1635811931143274,0.13201776634315587,0.09933291078486572,0.06697655789141321,0.036587963916572264,0.012876684879599809,0.011331915242766666,0.03316641393546749,0.05540046746140259,0.08096359800356034,0.10620108511909354,0.1307250696934028,0.15999021678060377,0.18998018796129124,0.2179028751737908,0.24491490239913682,0.26718711930035144,0.29390829701346965,0.3153547873436573,0.3348515186267327,0.3557490427766452,0.37655883456439776,0.3934760879220982,0.4126877120226755,0.4285643845954623,0.44210579338373646,0.45291367838731467,0.4746789070973034,0.5064878493221512,0.5469314529259748,0.5822440267843609,0.6195439479446314,0.6605113866099428,0.6935532856700468,0.7337745239258984,0.7725899954075868,0.8065713101354606,0.8479331298262067,0.8831905008962295,0.9203077320372752,0.9534801497742074,0.9782775200655844,0.9904213641417872,0.9693109275951646,0.9365192760499224,0.8971855814531782,0.8629607660354142,0.8244623215009119,0.7861453142406385,0.7517841608872617,0.7108824134452358,0.6780084960778034,0.6459996575276521,0.6375799325701563,0.647428834036802,0.6568514980682529,0.6576414583889547,0.6575932623865217,0.6527150973185047,0.6466179962342458,0.651873321141428,0.6621476855401083,0.6686801708092487,0.6687806803896539,0.6687808071419412,0.6694338335027199,0.6781283491607515,0.6799167866053946,0.679919437043472,0.6799194370434702,0.6799194370434682,0.679919437043466,0.6798420871372417,0.674762838443244,0.678197754021653,0.6799160711705377,0.6784140050409697,0.6665277223354045,0.6519450898367936,0.6305022523579937,0.6029166445227281,0.5750189319669456,0.546960295505706,0.5132107134854185,0.48166422308757917,0.4495487131523497,0.4163599535858238,0.37759566222943297,0.3373425459115822,0.3043178319058928,0.26582771171366315,0.23288358654153862,0.20018421730983604,0.1662102615579486,0.13037235218096987,0.09810248188906723,0.06790837708587438,0.03803328142773643,0.01237330595479147,0.0085107491588714,0.02866212777593713,0.05393365003250228,0.0762675236509247,0.1028085169416153,0.12858606938149997,0.15142421549839313,0.17893595765076453,0.2026531672739138,0.22930265933036464,0.25552477232981197,0.2793469842819356,0.3029250740233107,0.3238396404377155,0.34473938114507763,0.36434500250864876,0.3841397426014519,0.4020535551711266,0.4209831139639626,0.43516786897280424,0.44906367817710247,0.4640500371772738,0.48598092599849063,0.5143578813565668,0.5556840674930494,0.5944750529352876,0.6284768785302306,0.669841229606903,0.7050706147501573,0.7424600286524579,0.7840470490862732,0.8186605647959173,0.8566510130091392,0.8924707557025437,0.9238003778732693,0.9518794697765343,0.9756153478144929,0.9758581905727495,0.9489715051590728,0.9134562504557702,0.8771019719380273,0.8353377661745449,0.7936075579158677,0.7574190466839321,0.7210535210540858,0.6840184783407224,0.6629813360934593,0.6576704422749553,0.6576419305565091,0.6575425724516759,0.6513196728104591,MI
0.14550709127205352,0.1758992776813233,0.22321278495184016,0.2756672498338224,0.3321742186525931,0.3863698758513219,0.440081712152232,0.4989933484254929,0.561181077173809,0.6153270195331162,0.6740539311195208,0.736572179785973,0.7970979653579153,0.8500724322267548,0.9113430187041645,0.9649030264707021,1.0,0.9820777718842115,0.9337714445969381,0.8730879536521434,0.8147598005361889,0.7602611873470875,0.6980029311303659,0.6354579310658122,0.5732578244059972,0.5189905486437691,0.4604031246483222,0.40261798565255713,0.3652454496327002,0.34189944180864673,0.3375091267088792,0.3428036176421809,0.3476165581582906,0.3219876691437591,0.3066342694196904,0.3173411070637049,0.3298444365202924,0.3399014502591764,0.3388382610134637,0.32077285354367735,0.2964784311701081,0.25706811604413327,0.21427526891125792,0.16357112762851722,0.11572893827363329,0.07803139058302322,0.04073865839416846,0.030131025368547615,0.06338931385166657,0.09183934985710795,0.11558795564307434,0.13015034649111978,0.14678806512232967,0.16979438716403594,0.21218578909929597,0.2578368807230471,0.3084676419112933,0.3682757276294306,0.4231041642779658,0.48105687803505237,0.5435619648875192,0.6045621410236004,0.6573887206876434,0.7184314210848379,0.7735948331754696,0.831132876443538,0.8886670753082808,0.943615646170417,0.9871665394179612,0.9663507753526432,0.9154349625505427,0.8532803993370472,0.7907902914793614,0.733681086669391,0.678093112472705,0.6156782505594562,0.553182421773017,0.495827951793129,0.44050783962396345,0.3847882465882617,0.3511139693351888,0.33474862402735317,0.3345937508060066,0.335061432155904,0.3394868428499844,0.3285314942085238,0.3087030160844604,0.30902945171655904,0.32135549032121924,0.3333461127593331,0.33123196405868427,0.3200100147810159,0.29259900009562223,0.2572530631056491,0.21674702866261564,0.17291047859969,0.13413919907907745,0.08645556423983702,0.0451381446224286,0.020336145584053167,0.037395348678350926,0.06486336660931924,0.08677350326325173,0.11121454547283016,0.12892207105565734,0.14497922463912039,0.1745062520684677,0.225539275603587,0.28091104261655087,0.33791191274160015,0.3935545909170082,0.45054441445842563,0.510657126121902,0.5637408278579228,0.6255395683536786,0.6858277747676724,0.7388761852389116,0.8005971437414732,0.8609984234134416,0.9136627608441179,0.9594832699389784,0.9532671993159174,0.9053565342237464,0.8462112652066698,0.7905011134870574,0.7334996745868252,0.6710218246418069,0.6088954628670757,0.5549141533724469,0.4959475618894902,0.43345412794132976,0.377621461673995,0.34474447041621126,0.32838638692933575,0.3297329380904377,0.3465830507507932,0.3386561194735984,0.31207632004254826,0.3169474080773793,0.32432440757876346,0.32755846846127845,0.3325972471931049,0.33210927451901906,0.31892976816242546,0.2976539825423017,0.26125481843602216,0.2202361175066203,0.17108160122717142,0.12936199439846985,0.08810368144305802,0.05173542188162661,0.04482928806097353,0.0719115649656179,0.09624988913902666,0.11441840647353807,0.12884769228749748,0.14830627663192497,0.17720914991184,0.21650427752764845,0.2667223292085974,0.3207403953231984,0.38101170169270393,0.4339474504876759,0.4954202473929099,0.5561822846022224,0.6090828078686639,0.6704145312129905,0.7274521617149734,0.7830787022210814,0.8400996016078621,0.895645779657682,0.9524171868686646,0.9567537285515906,0.9114603985249263,0.8511061623733873,0.7888479786591653,0.7343402312628204,0.6760288606410145,0.6135079326285138,0.5511988846611899,0.49650916557224667,0.43863683538153353,0.3841373883066921,0.34148834942348305,0.32011237161423445,0.31248600682684646,0.32453729476581916,0.34863611208003054,0.3560173004588747,0.32447322296210146,0.32427419711871064,0.32885898652399703,0.3357296237941889,0.33863955305546245,0.3352846705630763,0.32798090873542884,0.2983793700719448,0.26150540466373595,0.22414261527394874,0.177583477138052,0.13985908991254115,0.09174025763257121,0.043920587521468546,0.003564254181910975,0.0,0.02238892405633508,0.050144904731326045,0.07453911987131923,0.09766170961167786,0.10981976221190104,0.13116544471268599,0.17618668406759208,0.22820148732681655,0.28212344944855205,0.3393534193913972,0.3947594355292119,0.45201709627633946,0.5140854437651905,0.5669680231406229,0.6100222653825198,0.6644538089916283,0.7225440126034943,0.7771752454335745,0.8391035453556288,0.8926677893230335,0.9349934967322184,0.9272396376062746,0.8789783499448593,0.8231557475120952,0.7821007280350445,0.731444155187623,0.6695417567060571,0.6070341850352357,0.549046280467727,0.494242019226137,0.4319476137059288,0.37306855945227024,0.33777790423193244,0.31637153850905886,0.30960065596935227,0.3184398116373637,0.32362724327522985,0.30933630895318487,0.3029183934282069,0.30284085879656164,0.30577627879127967,0.3086756016775416,0.2949406069311262,0.27285092729044846,0.23520903749433053,0.1930370763193343,0.1440117517710704,0.09567243200474707,0.05685877274167028,0.013943143684325365,MI
0.22108132203074593,0.15924627755333254,0.09568873883838558,0.03945633207013577,0.012188547491500001,0.054143470740669386,0.12023534780344014,0.18623742071686644,0.24405000976639069,0.3080026671765044,0.37462275173529225,0.43329259877978554,0.42603130060562333,0.43634195376306284,0.4825715179185839,0.536888944243632,0.5935287148081296,0.6585411000179955,0.7251818379670738,0.7918252223299775,0.8584686066928808,0.9250584010325318,0.9824538371319222,0.9692389553321463,0.9138392097819612,0.8532390518919095,0.7987534583356399,0.7580436799996149,0.7227517871190974,0.7032488279611819,0.6882657696869472,0.6725116161200491,0.6475243546553553,0.6142774595585372,0.5762023209367144,0.5369248385391785,0.4895717401569537,0.4434514984107174,0.38917405189011167,0.3399220714883642,0.29418759240388925,0.24753069967512276,0.2081356139357351,0.1951082031414284,0.22638176684330102,0.2731053757865991,0.32735293573091306,0.38064956131537375,0.4309945072044332,0.4858604050899007,0.5356271937275288,0.5803068569278809,0.617268369446174,0.6275092145603225,0.6195896863231973,0.6142468935853214,0.6119409827425064,0.6181609041030707,0.6303098021925471,0.6398789531908518,0.6457694504003773,0.6289791475014872,0.6012223407341901,0.5750048492745401,0.563374589432575,0.5960443102713391,0.6330723608565592,0.6587306891655562,0.6847159138665788,0.6986307495340183,0.7068962088123156,0.678841876997869,0.6241223055713807,0.5589536023676513,0.49320072869508147,0.43569780096640964,0.3711928326941887,0.3047432480138059,0.24514914749353678,0.18339977602756408,0.11991932262436378,0.06435609847687207,0.02599597717970248,0.046487469822886984,0.10822160904244038,0.17420102904946977,0.232004049022571,0.2959723245680044,0.3626055455342496,0.42924892989715246,0.49578123671826035,0.5562108525381453,0.6170905610752639,0.6836490697753137,0.7502924541382165,0.8169357965400608,0.8832810813876801,0.9421595830662441,1.0000000000000002,0.9911084327093318,0.9265002598047134,0.8647859528542867,0.8095508008277121,0.7632063968794391,0.726986426703651,0.7045465646829501,0.6910314180852366,0.6702585911984171,0.6504606729851099,0.6223203622022531,0.5828981948937728,0.5445140970382611,0.5010283463784049,0.4583340450189872,0.4092605900262094,0.36128347283003115,0.3149885092080247,0.2606087872647156,0.21485581448695945,0.19204581496854023,0.2087200119768744,0.25198670500695974,0.3059089601018541,0.36529433135478806,0.4189542204580008,0.4718317660742637,0.5219848035999077,0.5686036579704112,0.6072627974246221,0.6268426778209513,0.6267127216683099,0.617359004507922,0.6162032575485905,0.624628533778746,0.6388484034754864,0.6552437302232972,0.6628376700300505,0.6415121545496671,0.6027750083964185,0.5737909532825964,0.5784158394763796,0.6105185280759944,0.6499855886893247,0.6818959015267485,0.7086190372241432,0.7129906342268579,0.6984720213172493,0.6514488020772891,0.5938918016751953,0.5337182137054257,0.4691606970804074,0.4117453272924143,0.3460869813195864,0.27964234710455593,0.22016441928216124,0.1586354293562251,0.10522619265576871,0.057592304613425904,0.006633841606942248,0.0,0.049400382703598034,0.11474633918179045,0.1804069478256849,0.23782366424159718,0.3025057756864509,0.36914576305412417,0.4357891474170277,0.5024130206197546,0.5657163669032659,0.6239897037773434,0.6901893383782165,0.7568326716580922,0.8234759426479481,0.8896000304918068,0.9476510022144307,0.9967475830646044,0.9659637045851655,0.9091541415750506,0.8544477857221258,0.8014692104274361,0.7591803102920565,0.7281595504792688,0.7082281102052834,0.6916634844589928,0.6753824432276698,0.6519820307038302,0.6214358381036162,0.5858342438017632,0.5438781072697498,0.4931770588087496,0.4451419845560358,0.39602487844352274,0.350412790058485,0.3031765761415661,0.265420774903798,0.2367913621256541,0.24891805983738258,0.2915394321978366,0.3421284792390613,0.39541622021423994,0.44702543623412927,0.4970117418913391,0.5468971758487147,0.5944050205317306,0.633483656950864,0.6400387883968526,0.6335213916880249,0.6271775799537691,0.6212963573307368,0.6339229137187885,0.6419025940147642,0.6521717507740872,0.65763406984112,0.6545535444417083,0.6228608025669624,0.5936126801087516,0.5653078358942987,0.5741498290036005,0.6114108186447389,0.638316105272158,0.6648151301943857,0.6890594848103111,0.6984735528090973,0.6782311371768637,0.6244989711706932,0.567734141249103,0.504996613517189,0.44756431087482573,0.381882377149642,0.3196230672447189,0.26047077788523554,0.19414800733199433,0.13274153455679527,0.07300686821829783,0.016749504270248128,0.0034173007879214623,0.049462101673435344,0.11394055964259886,0.17124838649804963,0.23662442524919958,0.30326591633256883,0.3692494020368302,0.4270332838570863,0.4910327956731586,0.5576663395936194,0.624309723956523,0.6909531083194269,0.7575964340410988,0.8239127809538902,0.8825589054656657,0.9344601532508181,0.9066068408171934,0.8497773191554059,0.7914150837264999,0.7520347489086097,MI
0.6460681352222484,0.6364961997790379,0.6297563747381321,0.6304342103516021,0.6441753649290329,0.6558678475961877,0.6676130852897222,0.664567265384439,0.6438266479241939,0.6174862040372546,0.5852433899311853,0.5499252830618,0.5110779728979977,0.4806474381165893,0.4453959838283821,0.4004691248786463,0.35414925215854276,0.3123699523318848,0.27203600759363655,0.22997438186694863,0.18838143713749766,0.14788251578710754,0.10812986274381364,0.0691444773978922,0.029801849149118542,0.0,0.0151787194006765,0.05102975881925276,0.08981933813870202,0.12246653432583865,0.15528576854984966,0.19035573683911577,0.22573399742304368,0.25886613901525357,0.291953763008141,0.32537086424310924,0.35337420424890276,0.37629686066126045,0.39646194591963857,0.42225182103110837,0.45517631829709515,0.49439336854381954,0.5357609346823149,0.5762502385088191,0.6172988395323522,0.6591168663787297,0.7037903909154959,0.7483138703372143,0.7965427118308417,0.8391650068467134,0.8880363885591211,0.9311159192875567,0.9726382024089479,0.9814226601151679,0.9488339994172506,0.9018304996973872,0.8575786281009032,0.8114164935734427,0.7614822211534036,0.7123817097256613,0.6801098914398189,0.6920042318295039,0.7050104963945141,0.6951607417954242,0.675410363866179,0.6584260763017855,0.6392894387159336,0.6390850684541232,0.651729707704491,0.6570690238736436,0.6491104137086832,0.6362874602257325,0.6301635080133465,0.6379544888492048,0.6505229482558224,0.6654572751528804,0.6751142766158134,0.6684347857373492,0.6482195025294926,0.6214142002092753,0.5875723476978783,0.5464717664871446,0.5085635956557613,0.46985664561953966,0.4283946403092693,0.38817180971352583,0.34639603518085305,0.30455387851122917,0.2628053107427655,0.2225216257297702,0.1812014715275463,0.14072123118705004,0.1021945234184829,0.060214460528119185,0.036281887579552086,0.06031131030906134,0.09616391154727766,0.13205419130892948,0.16748498818017876,0.20301748939208064,0.23898595256002597,0.2747989638980681,0.30895065721262505,0.34094494223403293,0.36974264969315596,0.39522502438887686,0.42096369458649563,0.441097189270657,0.462609016156599,0.4977337643009152,0.5393661467206434,0.5794292480650063,0.6193839502551979,0.6594142984031779,0.7012176271723682,0.7449857819947872,0.7890499063675096,0.8352323620124018,0.8851587077692014,0.9343118297963187,0.9745419453830511,1.0000000000000002,0.986358940754793,0.9468048758335261,0.903159084026667,0.8534324123414967,0.8036430567854325,0.7596081423252492,0.7132347380484594,0.6726342657551216,0.6863009000057592,0.7122381771432822,0.7141297954152215,0.6970248312610128,0.6793963220824413,0.6578335946699683,0.6456812295608181,0.6593344713253992,0.6726794558259226,0.6714431398008427,0.6603467523991084,0.6507421973186809,0.6465247196888066,0.6573183951488077,0.6715729407376276,0.6846306160905888,0.6849820093467407,0.6729630156954247,0.6498368257999605,0.6126001234750102,0.5784049302596213,0.5406579283290702,0.5007272042421385,0.4607475627602784,0.4203014325923389,0.3786558422903523,0.3369569570887254,0.29694913115508137,0.2568669896989426,0.21501909221991444,0.17104458485866836,0.12932827739053399,0.09046502957673108,0.05650273795948513,0.05141015985954467,0.0823779924900836,0.11831356561786843,0.1519847452764873,0.1879785546239574,0.22793350434511606,0.26209029477006185,0.2962109308809435,0.3279120563358424,0.35580537358818143,0.3812026101600787,0.406596846575797,0.4229147636538175,0.449218669755586,0.48277504868957877,0.5232251685619966,0.5639418559873084,0.5956048015101614,0.6323643075326602,0.6746266283271216,0.7238365631713983,0.7700687286863281,0.8142151241214108,0.8597386120356874,0.9037604274243904,0.9459604493050817,0.9808251982802874,0.9770521520628417,0.941998277255389,0.8954249167805846,0.8489078192177311,0.804973785392924,0.7552124232004189,0.7058027826286606,0.664767330121318,0.6608910374250196,0.6850207745197898,0.6864347789376379,0.6711180762096958,0.6533927062334539,0.6311589855076558,0.6131199083400127,0.6160313093540173,0.6348705156963756,0.6380364192613492,0.6279800198740582,0.6112054305933761,0.5966884022601111,0.6006272864980824,0.6141651992378896,0.6332999217733926,0.63903804934377,0.6343458700791642,0.6150996845180194,0.586000190983003,0.553245285124061,0.5159604146736769,0.47837876907511134,0.44317933570675505,0.4345931830913974,0.42145311432464183,0.4159608792895435,0.38944780660521805,0.3595091492382545,0.3198404507473982,0.28968950635725976,0.2739897803012066,0.2372528545785315,0.1955159823385746,0.1542125500491336,0.11490242978560761,0.07536715848601738,0.03663742063833175,0.005013027597314146,0.008453865520470671,0.042366918296964595,0.07814881404787455,0.11914129784039384,0.157171745112338,0.1933292958493893,0.22769120486145855,0.2562837412603092,0.27723661436237657,0.3124485841075655,0.34722387155390844,0.38029862336299325,0.39833067611789374,0.4181770738734676,0.39485041505785134,0.35973134473627044,0.32714802009977206,MI
0.9240611726473391,0.8919452712351441,0.8513879399908435,0.8150774914846404,0.7766365411034482,0.7409748573082156,0.7012692873505746,0.6632109179882562,0.6262582187698238,0.5892854986339116,0.5512381833725011,0.5099513089119714,0.47052338021220863,0.4587024714763197,0.4611754094619367,0.4560194996483431,0.4455295448636296,0.43464986330154076,0.44293964191704527,0.4515467986189652,0.4492221474160316,0.4508483688106937,0.4413001080167751,0.4284601294546624,0.41455384760391234,0.40198333464535896,0.4002246175934585,0.40835003643097356,0.4255923209886785,0.4396059302728581,0.4484058656640886,0.4483170470562996,0.4318520926254048,0.4066103749262262,0.37818842162537214,0.3464175090625088,0.3133508851482596,0.2802667880687342,0.24621557234845715,0.21115076444762915,0.17148511622814433,0.1373197980258376,0.10424305756272512,0.07121204514023927,0.0401138463690629,0.012357506657253325,0.0,0.02289754283017198,0.050326690160260035,0.07449337423802627,0.10017954354394332,0.12385579002971325,0.14811163086003631,0.16894870502002446,0.19134873609997394,0.21030220760400353,0.235290850258149,0.26554614974818525,0.29791805035927843,0.3335058032160161,0.3713398847885936,0.4074845320465803,0.44653220318344156,0.4878429056603584,0.529167378366215,0.5704909550648207,0.6110552947870145,0.6464874878752922,0.6867978370569248,0.7281203528562017,0.7692316308218152,0.8055415917326154,0.8444397412678859,0.8857432229473341,0.9254415779391165,0.9610802194159869,0.9955834086535948,1.0,0.9702262882072776,0.9395863308620895,0.908861387981152,0.8690999830183972,0.8311888139725083,0.7943224928843822,0.7584946536367023,0.7190899521262524,0.6777730695158692,0.6365118652208164,0.5990309753058387,0.5614230193394467,0.5224502589782307,0.48644334171920045,0.4570279570415603,0.45340274546144155,0.44803958693527335,0.4424350362764795,0.43497517808890107,0.43789216425260635,0.4450250418762203,0.44629326673803416,0.4510441051613101,0.4473249194900073,0.44184233182301824,0.42854718897330524,0.41506687595969716,0.4059658351716795,0.40030442606521843,0.4034022766904686,0.41947261971541705,0.43214362893154123,0.4408699788019166,0.4430323378155627,0.42854001547034537,0.4030368803290596,0.37349210887344464,0.34279143702711234,0.30847511781334735,0.27561346546277643,0.24383627216017656,0.21034214295659637,0.1757733679860214,0.1377347568490479,0.10506667343794052,0.07251318063456147,0.04340663912839504,0.019233217845815,0.02416335298447414,0.047867986660545814,0.07721128886105333,0.10159563841275254,0.12714937502286938,0.15074388887667034,0.17183574188886275,0.19429927560514648,0.2141144190928339,0.23653593169912357,0.2653539718976585,0.2957203968425499,0.33012012851377315,0.36804277959046083,0.40347031186347126,0.4431741270427101,0.47859001413914415,0.5189440871551296,0.5572733147126743,0.5940854620571623,0.6352756390768854,0.676600104133309,0.7179245768391658,0.7592490495450226,0.8005735222508801,0.8418903197133294,0.8812811107361493,0.9171181098104426,0.9538368378900768,0.9826581783812667,0.9782612430466486,0.9497284717504832,0.9220962568495097,0.8855457532269098,0.8484775024979709,0.8082079258031933,0.7727880817822637,0.7323993079925126,0.6955481652646014,0.6586552043872933,0.6231004657975925,0.58231149259236,0.5409875768424768,0.5001409830401764,0.46922387005857535,0.461021802387267,0.45040224244844596,0.4313577489051279,0.4253968554777301,0.44258911273350376,0.4605931111740884,0.46518003000872055,0.46465122616111665,0.4645656270268508,0.4608287631924761,0.45622845238263143,0.4587058698145636,0.44994006629167327,0.43665694499407537,0.4193170059791782,0.4029066457230508,0.394202939555923,0.39476592306538505,0.4017433054967694,0.4199372757193802,0.43233121575844824,0.4380525006670464,0.4353575683531734,0.41659398457829133,0.39142691943689134,0.3623282917476873,0.337721767080297,0.3090860803003348,0.2730056180951155,0.2381195239666838,0.2041456765753349,0.17190106813092676,0.1384752997895442,0.10611368122740195,0.07568827274654744,0.04621259449412185,0.022850448119368982,0.0333828959633079,0.05758694674605913,0.0828538287384808,0.1050238940965369,0.12931398195399813,0.15316618954328787,0.1764285250738089,0.19698355755765906,0.22676223522972938,0.2521839494695082,0.2745854858590824,0.2945401722841752,0.2950513206776211,0.3062501556733894,0.3154925435469631,0.34679349417548333,0.384244460122271,0.42072003312431505,0.45934957151111777,0.499531067161455,0.53501171833806,0.5756354637483352,0.6169593258393937,0.6581678674864926,0.6950152296812655,0.7332971214747663,0.7745878174242806,0.8156854273127199,0.8519335111469071,0.8907315259166986,0.9271731095422138,0.9616326021795716,0.9697127894832105,0.942853172615451,0.9094540278933496,0.8772240543883527,0.8362172014785683,0.7963412649192401,0.760727254535229,0.7201384607623955,0.6839374528670052,0.6459772202439817,0.6106476674297527,0.574242515067054,0.5362597532155036,0.49575609776502194,0.46324515896354135,MI
0.23321959934876446,0.2441389773754088,0.28448965212983257,0.3232972344136975,0.364141001088901,0.40421096825712866,0.4194132137985229,0.45591219913317227,0.46954058008286426,0.4628668745491371,0.4585012817707823,0.4590905321414316,0.4597122677750596,0.4652786570170777,0.4915992173162298,0.4941725812264668,0.4804346046564989,0.46608127901884266,0.45233223568069825,0.4407699092813311,0.4012305029639278,0.3500389537227153,0.30337828388321375,0.24816192070859322,0.201248501927338,0.146131305305379,0.09058527658034765,0.04410495164491102,0.0007345729055157069,0.0,0.04325318069452577,0.09153255667600546,0.14445544060720406,0.20160819059098856,0.2509723039799525,0.3030182860409174,0.35883858245902367,0.40557681839776816,0.4615486181386812,0.5189102967730732,0.5762727854378538,0.6336352741026343,0.6909914173843719,0.7456338909656801,0.7927865921006716,0.8493957430417569,0.8991443767365612,0.9507807314151928,1.0,0.9833960357940512,0.9346823481962994,0.888723658740703,0.8425377200414563,0.7917025153293542,0.7436041512611489,0.7015956308988662,0.6726867852790548,0.6725042822612091,0.6887058721209791,0.7145044802207376,0.7433166517779575,0.7730113440371196,0.7961925114300556,0.8116953712076409,0.7928017211899387,0.7716486349799414,0.7463621724186553,0.7160703522538787,0.6847685943675494,0.6528360618071702,0.6206755303569422,0.5895296164314612,0.5552585093403399,0.5206968052816516,0.48634059963522347,0.4613881644519009,0.4479443113478112,0.4344609077734116,0.4114558458603548,0.3861637200773327,0.37166429207663976,0.36812117986867054,0.3750890081705487,0.39592297556802825,0.41094932188629985,0.43028111227942434,0.4392414460562213,0.4558585341811705,0.45599282649001527,0.44932320510388646,0.4507048735757868,0.4682793506796221,0.47644121556760854,0.4848539252138826,0.48899350421993093,0.4785646655769362,0.472799490211107,0.46082126743184926,0.43161779366818465,0.3829459089339826,0.3356967109461704,0.27956367834077533,0.23231547897294913,0.17780683901045813,0.12179931360622831,0.07572880489523581,0.04599929735823172,0.06714898475607711,0.11562832475857032,0.1639595041509152,0.22100676723738877,0.27695985309329574,0.32367273386302897,0.37956446689749335,0.43692598133653604,0.49428847000131615,0.5514967271267741,0.6012919693434986,0.6528909403268699,0.7098291306346907,0.7577677308890891,0.8114136032327122,0.8685016962076757,0.916955975244309,0.9605214842689742,0.9897664963618,0.9681763014486364,0.9226486837938701,0.8708071821570393,0.824029022306382,0.7773363117247438,0.7343055162732934,0.6931490641968381,0.6682668120925044,0.6745673801925229,0.6963290155661537,0.7194269756503222,0.750561332448473,0.7781472556005902,0.8142159286658357,0.8369932630355335,0.831643017470518,0.8084374171394946,0.7798959498898266,0.7528144666320902,0.7290942338617112,0.6982701277486778,0.6639760724983872,0.6294143684396998,0.5946727380497787,0.5563888425305259,0.5250844707768274,0.5070982272518694,0.48235747889142555,0.46861267649869465,0.4374398091157561,0.41751690284611653,0.39547897197008997,0.3823889977859336,0.38640005692439594,0.4003690738464929,0.4117965485887747,0.42565982043618567,0.4353912149258563,0.4413243893279213,0.4614167581515689,0.4703167095323364,0.47073515708322144,0.48284182867181125,0.47733756807117533,0.47524029862476436,0.46470525202621715,0.458666708201966,0.43634334625420435,0.3936203679664092,0.3404111360818429,0.2928042045989705,0.23662089166702072,0.1896041436878888,0.13485669429417957,0.08483431639631211,0.06509725617999917,0.09348642669864127,0.1454747392765221,0.19286225676336555,0.24727996808782038,0.304237120571593,0.3521283911771673,0.40563338482435896,0.4547521134679329,0.507035451838747,0.5606018161154105,0.6086062343397836,0.6655725965373778,0.7199683659990543,0.7673066528325725,0.8241310625682452,0.8790607760195783,0.9260197602171489,0.9793061550038926,0.9779231595047051,0.9310645577216246,0.884537756059244,0.8286310377124386,0.780001433159029,0.7309650697364902,0.6929423306667721,0.6727439823935053,0.6795996729820883,0.6971093736118079,0.7236320918341002,0.7545066955261492,0.787622315501765,0.8118490256088493,0.8248931351438089,0.807123821728196,0.7770199043306869,0.7530886467365985,0.7209643126506649,0.6966444659963043,0.6687521228852389,0.6359332059412899,0.5990029738510443,0.5640516388843433,0.5277479411476809,0.4984209573336318,0.4776082125387364,0.46586570668469873,0.4574636707702373,0.43748283929173004,0.4191569683214631,0.40904922423628776,0.4099543083335204,0.4212230613774124,0.4348255223488433,0.4483361789788818,0.4493200369303638,0.45781957419992514,0.4845729594937378,0.5026138498370476,0.5124245190596879,0.5158354984914628,0.5053426810950485,0.5032407350550816,0.49669975619340967,0.4950913799862682,0.4583833434190825,0.40231628364002736,0.35491343927658425,0.3006467706484035,0.24915220818485762,0.19926374892429677,0.14205028483589066,0.0873553630042625,0.05933434825736894,MI
0.20360124565022275,0.20360124565021875,0.20360124565021387,0.20360124565020854,0.20360124565020365,0.20360124565019877,0.20360124565019388,0.203601245650189,0.20360124565018456,0.20360124565017967,0.2036012456501748,0.2036012456501699,0.20360124565016502,0.20360124565016013,0.2042543630627014,0.2181569757063091,0.22056886153008293,0.22057185613557584,0.2205718561355705,0.22057185613556562,0.22057185613556118,0.22057185613555585,0.22057185613555141,0.2205686270340239,0.21806274121333535,0.20208380303472273,0.1870634276040808,0.1724964571985006,0.14651274878960852,0.11468711180127844,0.08948775554879163,0.05798271071507344,0.03154137387251854,0.007674264759293337,0.0,0.0064073216791857845,0.022951032308367925,0.046704110856243375,0.07133268516045277,0.08919817937063668,0.11201526712609677,0.12258977034553808,0.14477583671617023,0.15317417645181308,0.1664915931442219,0.1696551072062733,0.1696600246791724,0.16966002467916752,0.1696600246791622,0.16967476883088795,0.1753386786373805,0.1877203824955873,0.20686343665828444,0.23182445619543746,0.2667008777471791,0.3020577806060354,0.34938487740003943,0.39902947188716986,0.44820780684702743,0.4850733809877146,0.5310072496405955,0.5806288691725077,0.6239347119139445,0.663135530481429,0.712619733092513,0.7622608123052133,0.8074746498370655,0.8448530224011894,0.8941980709588013,0.9338147224483984,0.9495387001106148,0.9345968023631621,0.9007331176524702,0.8531758403798073,0.8035289641634917,0.7539711117215924,0.7125436425636642,0.6715223725318018,0.6219101562625151,0.5722628016659139,0.522615447069311,0.4729680924727093,0.4233207378761068,0.3736733832795047,0.3240346980922095,0.27901744924210314,0.24136255665937556,0.192054575378529,0.14240722078192647,0.09276449604601966,0.04847589777782835,0.062441409585005214,0.10029357774884806,0.13910972970862412,0.18183516080623985,0.20380459138165774,0.21799151430919572,0.22040447811274833,0.20993689009416494,0.2036204834336064,0.20360111719599683,0.20273427493676754,0.1861422443562719,0.17188875419738325,0.1907827264838784,0.2034111694254359,0.20360124564994075,0.20360124564993543,0.20360216500628425,0.2072035395341243,0.2200101929082905,0.22057177886610768,0.2205718561353467,0.2205718561353418,0.22057185613533692,0.22057185613533203,0.22057185613532715,0.22058366214311187,0.225829067635257,0.24208007142267718,0.24778428907198657,0.2376225340061806,0.23816424990469542,0.25048569113597363,0.23919702085663186,0.2375428190078508,0.2375424666207202,0.23756550670827714,0.24433420409115847,0.24572891929615714,0.23757535813206543,0.2375523714765282,0.2425130976280978,0.2543054114865986,0.2545130716923514,0.25455391888931533,0.2640084748762068,0.27141161451827145,0.26660598159734716,0.2548187423783981,0.2545130771060946,0.2545130771060893,0.2545130771060844,0.2545130771060795,0.2545130185389408,0.2540609262684508,0.24105746649897908,0.22295297506309852,0.20273491152677936,0.17439722691022919,0.14738388597673868,0.11549014544536851,0.0867601493625827,0.05713482808084036,0.03229679344296388,0.008315387236158767,0.0002534103263758247,0.012009878649402062,0.029762257115903967,0.050446782823912795,0.0706946225265832,0.09560308192494205,0.11715523281151219,0.13673116216647463,0.16102911380237472,0.16957934207577186,0.1696872127343183,0.17715845834696253,0.18650390342475642,0.1866306351642617,0.18664468798800105,0.19220793881022935,0.2034204893692375,0.20831110243025552,0.23168270009397762,0.2632381849034915,0.299870751956425,0.3399744628364525,0.3813588669311847,0.4179135208217599,0.4641223754154713,0.513742105955513,0.5566713707777886,0.5962392196623818,0.6457355623554655,0.6953740490882194,0.7402113087009115,0.7779195373121639,0.8273543815761375,0.8763745367046938,0.91227714234609,0.959295315679106,0.9971121100798088,1.0,0.9718494452757289,0.9263092536086392,0.889443679467949,0.8402653445080936,0.7906179899114898,0.7409706353148873,0.6913232807182879,0.6416759261216844,0.592028571525081,0.5425662210616009,0.5040260570649058,0.46004237406897763,0.4104097636241044,0.360762409027505,0.31111505443090204,0.26146769983429863,0.21182034523769921,0.1621729906410958,0.11258304599719882,0.07812728089736032,0.10498906812857411,0.14768556733889726,0.1826913638889467,0.21229308704694283,0.22050170773258504,0.22057185613507224,0.2205718561350669,0.22056567238362268,0.21690718362806427,0.20399412017006213,0.19484975557552398,0.17456147240068942,0.1900695959680747,0.20339258120937753,0.20429065763393606,0.21841428583940425,0.2205695181184022,0.2205718561350234,0.2205718561350194,0.22043541232990194,0.2107963429984161,0.2036263597210919,0.20360124564956816,0.20360124564956328,0.20360124564955795,0.2036012456495535,0.20360124564954862,0.2036012456495433,0.20360124564953885,0.20360124564953352,0.20360124564952908,0.2036012456495242,0.2036012456495193,0.20360124564951398,0.2036012456495091,0.20360124564950421,0.20360124564949933,0.20360124564949444,0.20360124564949,0.20360124564948512,0.20360124564948068,MI
0.2524262681664684,0.23766109826370885,0.21978832820849403,0.1985239004422552,0.18463638832954765,0.17103295460181012,0.15736082786993233,0.14167693631101907,0.134469702263726,0.15558009178281895,0.1882964156966973,0.22872332215522584,0.26957120580128846,0.3104191628624189,0.3512671199235493,0.39211507698467973,0.4329134765456888,0.46849141890701196,0.504246544850766,0.5450278015565764,0.585875758617707,0.6267237156788372,0.6675716727399679,0.708419319529149,0.7485723590678903,0.774998187791951,0.802034569565671,0.840381896792219,0.8812221040888772,0.9220376280503242,0.9584947332022917,0.9907119882368707,1.0,0.9776227631049985,0.9380552867189755,0.8972078740051526,0.8563599169440224,0.8156131310534129,0.7806252982444617,0.7442608594708733,0.7034471923721246,0.6626063225162104,0.62412861648128,0.5910581491733438,0.5505344515333306,0.5096865107390962,0.46885484309507186,0.43154245323838936,0.39743642162694215,0.3567737861671978,0.3159258674188872,0.27534031012508575,0.24166700333171054,0.2038549931068565,0.1636179375714022,0.13103717389666114,0.0956696075048391,0.07296086522285083,0.06980088726044942,0.06182641118025445,0.052573204930673745,0.057804423157684415,0.051482887724364934,0.035609882500272416,0.031879580122803564,0.04992989571376327,0.07362879661658495,0.09087125735054968,0.10118971106645569,0.11069480086943773,0.112116095249013,0.11207351511647823,0.10893276863443746,0.10715600541894843,0.10113903514061318,0.09286430389570666,0.09116159665998769,0.09115926367767568,0.09077848596151195,0.08532313455948204,0.09067531899811243,0.09115924056155289,0.09115932895928536,0.09113876971585921,0.08706239927352022,0.08027555098083039,0.07215286379916841,0.06879318957450686,0.06056614708903796,0.059397951060718546,0.052028730237648535,0.049248394635736714,0.04906946018876557,0.04219617416345178,0.03698145354643256,0.028853039628521593,0.026763066609102104,0.01815443773385539,0.008492067625150312,0.0,0.015499592067754975,0.03965984243053211,0.06913152267005773,0.09838866219328435,0.12452085756617515,0.15871792982339272,0.18855998680502206,0.2157871339907531,0.24358378268960013,0.27364069715794304,0.30099239144703116,0.33044710732364324,0.35895588249122024,0.3861401111185456,0.41124522917218864,0.4335554503717378,0.4496243048985584,0.4562077195364824,0.4452992908898161,0.43086041769497196,0.4112237484804897,0.3908001350133863,0.3703761782291728,0.3499521821342446,0.3295281818573257,0.3091041815804061,0.28860127116667833,0.26599319582287917,0.2521563022084141,0.2327034983890408,0.21713466071221976,0.20279676768613197,0.1844120329627017,0.16631335352097398,0.14805832388642548,0.14757468684083697,0.17904297063661834,0.21517733818990692,0.25031033456490115,0.29106364196109036,0.3319115990222208,0.372759556083351,0.41360751314448096,0.4544497318626939,0.4924375489991655,0.5259772763006838,0.5665202854468743,0.6073681947775085,0.6482161518386387,0.6890641088997702,0.7298973762158871,0.7672715063295437,0.8012926583166089,0.8419768499525992,0.8828244643387335,0.9227118168247532,0.9540872827831453,0.9637011888668803,0.9393761911192406,0.9041573417036228,0.8705124885720297,0.8327242287957208,0.7918826084640984,0.7510522659385876,0.7139076816115733,0.6796525287404198,0.6389698838922007,0.5981928195828337,0.562531013074393,0.52685741574401,0.486057159320302,0.44520920225917227,0.40436124519804206,0.36363029724955154,0.32899500452956465,0.29226920253953037,0.25146002489306696,0.21354167062369678,0.17998180859685164,0.14183626052376264,0.1087359002486632,0.07528868631502772,0.07019568507464702,0.06632815761679067,0.058353651883989555,0.05485222639276466,0.05256533110174111,0.03396936710462506,0.018111075069789262,0.015932797974082646,0.03549611707529121,0.05492179230870908,0.06788143293213755,0.07019477058566936,0.07020112161393244,0.070205016926147,0.072450520181504,0.08022627816260886,0.08068014459418449,0.0806802252865455,0.08068022528654306,0.08068012104998701,0.08011988424937888,0.07201519781763865,0.07282939184710013,0.08032097223242185,0.08288953213197359,0.09068722371985882,0.0886033810996878,0.08094602637315385,0.07620327663612803,0.07027902322875113,0.07134210815843889,0.0796860068855001,0.08066553891908512,0.07743844151995338,0.07042219451175713,0.06913231824285715,0.05988127640106011,0.051974219926983034,0.0590982694885136,0.05972174561506116,0.05960454300678264,0.05326074026776295,0.03977623159004717,0.031089856152843875,0.05063481820644622,0.07527277001708654,0.10383606379109889,0.12899999343097734,0.15914007435189892,0.1871325434986011,0.220252483027364,0.25103798621662254,0.2790143216875143,0.3062339271465033,0.3334865489601919,0.3607240091743298,0.386659093232691,0.40751452887957273,0.4243661829240102,0.43165961682116105,0.4242558975998896,0.4083815045802224,0.3920574587394756,0.3731415354686094,0.34939600618575284,0.3278933470418979,0.31168852903041233,0.29166010142867527,0.2752840905775511,0.2585914697420022,0.23856674146025036,0.21986698699429752,0.20480854983526942,MI
0.6206181198896555,0.5792215907538526,0.5381186798919372,0.4980855009731492,0.4629323529450401,0.43659207065532357,0.4249924955069221,0.4067260820874684,0.3746794677705717,0.3409871895181261,0.3157595118188097,0.30642985923143573,0.300307661367441,0.27378133780342884,0.25191963513647264,0.2700254716111282,0.2688724952003091,0.2375449409134872,0.21549755716739616,0.21009973154767247,0.20108642170856605,0.21463674739775584,0.19669106649961376,0.15951726329074534,0.12129723362673883,0.08615823723566374,0.07751083890420107,0.10429465377002889,0.1393786217145332,0.17619222015567815,0.2149177687560343,0.2536811938881718,0.28704474756512965,0.31347906668244363,0.3343513065101543,0.3452661787511928,0.34317894709153174,0.3323931114179808,0.3259463543291947,0.3209749670381178,0.31287485599673914,0.3148155001795818,0.3234008163789478,0.3302283483736884,0.3114253028734034,0.2730233731079239,0.2319428924921536,0.18705178162014424,0.14187630090150227,0.10064999453213086,0.06370966207542605,0.06955360094972174,0.10783225072833513,0.15119709808574822,0.19336096798457714,0.2390990996806065,0.2850002269164541,0.3309008976094896,0.3763521757797156,0.41780586418995636,0.46246632945039046,0.5083616177176643,0.5542627449535119,0.6001638721893586,0.6460649994252067,0.6919661266610538,0.7378672538969012,0.7836836408404325,0.8246368635792573,0.8635621478546694,0.9091833110042898,0.9550822535716054,0.9987023887376513,0.9999999999999999,0.9569129477100186,0.9132083887565708,0.8710722636182185,0.8255098539996822,0.7834171746767872,0.7397308633156109,0.6969845410850565,0.65427289324364,0.6126779109379593,0.5692676978718435,0.5286661675804559,0.49060668535617,0.45963134020532104,0.4379822873371052,0.4232129061551718,0.4004637853847449,0.36993114514694836,0.33272437760258355,0.2962787133160719,0.25914955882337454,0.22118690248962458,0.18369445777879856,0.1464156325088548,0.11047343164417389,0.08054660359181409,0.08540751189341533,0.11799067062178847,0.15365792506800058,0.1901271915444417,0.2253134352353363,0.25289874873422713,0.2826017976396712,0.3028187260689963,0.31333356463568385,0.32055233133639016,0.32488375841500483,0.31625488169672356,0.30760658060324786,0.2952715687335392,0.2978208112960531,0.3058075183470237,0.3116107554393721,0.29365198828085004,0.2547195941779724,0.20910059674102544,0.16334810399610888,0.1211127571809586,0.07751627264000527,0.032793778747430946,0.0,0.011286760598078982,0.05226110722772104,0.09434467903457455,0.14006832123481083,0.18596942623062818,0.23171434704784488,0.27388679825918627,0.31755470009538045,0.3634297120360216,0.4093308392718694,0.4552319665077166,0.5011330937435635,0.5470335717205944,0.5924401863364847,0.6338566916533362,0.6785982127838838,0.7244944845447739,0.7703956117806215,0.8162967390164689,0.8621978662523165,0.907883109150221,0.9354802504796268,0.9078068681128645,0.8707061201525325,0.830090616321045,0.7887096310448393,0.7435090153804044,0.7016060895460366,0.6576130833183679,0.6117308480806253,0.566514140500794,0.5257005336019936,0.48588875562693545,0.4492699867064841,0.4196527495695005,0.40354110160459655,0.3864033383702149,0.36137194910071113,0.3302766235758947,0.29559524656589753,0.25778479626811723,0.21706247204394746,0.1785096585293604,0.14036061176461478,0.10462336708688458,0.06896615590700872,0.0467158594642787,0.0639002784039916,0.09891580861551319,0.13540480138047295,0.1710855269074092,0.20606089848533937,0.23805266810595493,0.26570485472726635,0.28865663565947686,0.30636008286887506,0.3075399749604083,0.3023256762854969,0.29329566191029377,0.2817556347312892,0.28203981792411525,0.28997257750843886,0.29944919759265365,0.3003089147351592,0.283117590094483,0.24331232087300692,0.1998357658602401,0.1576337319478347,0.11397186665553549,0.08096180736834602,0.038715406304863365,0.00321574778046696,0.012362755166624328,0.053746279338540814,0.09916818555141793,0.14066247443910884,0.1852530907042763,0.2311477233091398,0.27704605369741664,0.321684656951029,0.3582394902274423,0.39775078016003806,0.4422281014788959,0.48812175059014373,0.5340228778259911,0.5799240050618385,0.6258251322976859,0.6717260296030733,0.71731164997197,0.758948040530736,0.8032946768105674,0.8491865230988959,0.8950849528975316,0.9382980239673603,0.9375679229781057,0.8967706774828982,0.8541530198097694,0.8092363596794473,0.767906682033117,0.7229659436650496,0.6812325041515702,0.6370435315068635,0.593388141824741,0.551697373286354,0.5124324440813798,0.4816392322261932,0.46336498556019745,0.4514875838003526,0.42557571185011633,0.3947339361506724,0.36127729087185567,0.32507612320003343,0.2892828246518582,0.2517174956229109,0.21364823764851704,0.17630455804912715,0.13749838510601242,0.1140996640680717,0.12686232819977006,0.15868703919133487,0.19438326555258156,0.23476839513264558,0.271278194299269,0.30132870692487135,0.32349344981326067,0.34247244925865916,0.3459846516514413,0.3378096297417231,0.3300125298879286,0.3207046750830381,0.31727048971907834,MI
0.7755804871707348,0.781651150783738,0.7946063625400646,0.8087615480208097,0.8164575310601716,0.8203182651288512,0.8188792628406298,0.8171488501353312,0.8134208658524664,0.8109484776056695,0.8068137024188373,0.7958535961164983,0.7686273753763422,0.7343893988627667,0.7031216420634202,0.6707604080848601,0.6359474990529473,0.6011078806604855,0.5663876903792701,0.5352952065018081,0.5027468012328151,0.4679275035371445,0.43308788514468244,0.39824877473203746,0.3640320630811391,0.3338983058038383,0.2999061096870136,0.2650678896288796,0.23022827123641756,0.19538865284395543,0.1605490344514934,0.12570941605903121,0.09086979766656919,0.05603160314194458,0.022058513751082143,0.0,0.012284330849072489,0.04604885339946577,0.0808878622728714,0.11545262606417181,0.14593494038682123,0.17923597668153493,0.21406830915869182,0.24890792755115407,0.28374754594361606,0.31858716433607814,0.3534267827285401,0.3882664011210022,0.42310601951346416,0.4579456379059266,0.49278275038250485,0.5263317246335374,0.5516246076822293,0.5800834837937094,0.6136137809602407,0.6484490589211762,0.6832886773136383,0.7181282957061002,0.7529679140985626,0.7878013979181208,0.8211193926109552,0.8515905419209489,0.8861483136535688,0.920734185826275,0.9415289988015598,0.9358974586708948,0.9383436481676966,0.9496847881952224,0.9616006454170418,0.9722122322737479,0.9858694952461728,0.9925278691718642,0.9789468320192953,0.9590875956191947,0.9336236820992609,0.9082640124202706,0.8812187125249566,0.8548475787119076,0.8261169938966204,0.7992458551678743,0.7767826629821225,0.7483814070963543,0.7192595312264518,0.6892558993561976,0.6611387764035195,0.6311289879024796,0.6020055744439656,0.5729884554218464,0.5465592762082765,0.5247243157653239,0.49523850923545143,0.46517629878091704,0.4360520195085612,0.40799651930238445,0.38293725633550624,0.3771857920465832,0.3975554928072226,0.42507644454297877,0.4540667648832949,0.4830765053339249,0.512324553578262,0.543267610562778,0.5739071268929143,0.6028113172761972,0.6323300653982002,0.6653842829219602,0.6937929322289857,0.7203177956005486,0.7453324323843753,0.7682740934909863,0.7865460277412849,0.7971196512693086,0.8050184738126722,0.810591624902715,0.8140467765553865,0.8171964736493775,0.8172562444393223,0.8168706367722736,0.8138647603641758,0.8169943251748697,0.8172564588860447,0.8172473460251046,0.8155058097341519,0.8075708439748155,0.7971934378729721,0.7929976906184786,0.7999481010019522,0.8162866391439465,0.8279341682391865,0.829607650687334,0.8296124606612705,0.8292406970711337,0.8246401309279785,0.8206496611361591,0.81393660497787,0.8075217553200467,0.7852717459584503,0.755486197714781,0.7225244685036348,0.6876989982456666,0.6535439871320691,0.6234249075863653,0.5893563455839499,0.5545177651050607,0.5196781467125987,0.48483852832013674,0.44999920512839253,0.4156259519624922,0.3854348525701866,0.3516550741097326,0.31681853280433425,0.2819789144118715,0.24713929601940957,0.21235503557397664,0.18061616111612191,0.14874593922649618,0.1139589188960691,0.07912852521836142,0.046014593654317176,0.0163641690621191,0.002469072102591896,0.025162646568774788,0.0578152155392023,0.0926384291983188,0.12747804759078077,0.1623176659832428,0.19715728437570482,0.23199690276816679,0.26683652116062884,0.3016761395530907,0.33651575794555355,0.3713553763380155,0.4060874215183087,0.4373208901452693,0.4697231471637918,0.504535753461356,0.539375371853818,0.5742149902462799,0.6090546086387422,0.6438942270312047,0.6787338454236668,0.7135734638161289,0.7484130822085908,0.7832502530462656,0.8171223515840567,0.8472792842270374,0.8815938191358459,0.9164330777243939,0.9509736908307906,0.9698044061215043,0.9586791443104317,0.9536523108756865,0.9590639349583778,0.9689923703028482,0.9800802508150939,0.9919324871780819,1.0,0.9872998134240374,0.964769828106544,0.9411980214261364,0.9154938361037781,0.8884221433898707,0.8617047427311395,0.8355631811181996,0.8084800758334674,0.7798337203717562,0.7514971789512379,0.7215847256690663,0.6887469216621463,0.6595426886563095,0.6305315077642056,0.6010552113196054,0.5713845050022419,0.5415165034289816,0.512449371750704,0.4833584145257265,0.4533479414913486,0.4252513351034365,0.3997475152629896,0.3837346106632952,0.39486167551485163,0.4208192104871452,0.4492678919358132,0.4785317407784552,0.5082849542952224,0.5373355268119115,0.5663942883606153,0.5954932304567477,0.6255209290483228,0.653675611651107,0.6816386177258359,0.7114045573165239,0.7361711036218493,0.7579276769637954,0.7741872395028967,0.7865143865142001,0.7952787224922624,0.8022802577125501,0.8048703495015186,0.804900265993032,0.804900265993032,0.804900265993032,0.804900265993032,0.8049002659930322,0.8049002659930322,0.804899841585921,0.8041895562453947,0.793250283227021,0.7822536705361962,0.7817334802502028,0.7925195879512713,0.8082344623333813,0.818805670489563,0.8231585476115362,0.8194116576958854,MI
0.5998224758092825,0.5742367305646776,0.5686808208421861,0.5814872814256922,0.5856622890943057,0.5810274983722876,0.5741297075262246,0.5713656581585436,0.5771138510541081,0.5726879920328081,0.5699873935185711,0.57011911582341,0.5805884807813644,0.6070653450763073,0.6372220608992301,0.6632418239141817,0.6824138957817862,0.6776310753868664,0.6510447555562917,0.6252674247962209,0.5924305599252433,0.5595593894772295,0.528623517525622,0.5003028092481472,0.47637968762540694,0.4565925001342386,0.44356004251097736,0.44298761170557643,0.43781629682377754,0.41800319472100744,0.39024148806451286,0.35495622570903573,0.31694227429093913,0.2801069376574956,0.2389758224829548,0.20275295584323616,0.1612965013220251,0.12077001598676462,0.08417163019710339,0.04368137902754732,0.009900752760402254,0.0125768307674331,0.047797438731371655,0.08903578318217187,0.12517201389650967,0.16162077527964935,0.20092855870119508,0.24324331776673502,0.28557095933886756,0.3253391712516367,0.3625389652396216,0.40469157678837386,0.44693955518018624,0.4849199099321224,0.52383886261155,0.5661397687314753,0.608349017724813,0.6458998269341745,0.6852710762476908,0.7275879942138457,0.769929271022922,0.81077155978705,0.847187579897585,0.8890358132725491,0.9306469485190056,0.9668409350944991,1.0,0.9958381159751928,0.9634728650809445,0.9246989385720261,0.8873388107865468,0.8464444472663581,0.8101239174628982,0.7694347959663064,0.7332015708355588,0.6916509039716845,0.6493592528918641,0.6110374880513303,0.5880485412502647,0.585376779732991,0.5795650354443378,0.5839035582331402,0.5913502690657326,0.5777933290163324,0.5522836914493419,0.5593313218257399,0.5683613317125793,0.5733451644739034,0.5680972725300557,0.5642225003069488,0.5653386971237409,0.5616038772729484,0.5556360598942855,0.5511598842724132,0.5431083214224068,0.547572492523559,0.5733297926647041,0.6039760087732973,0.6290179981384323,0.6574446328106165,0.668522059773391,0.6541805038915811,0.6259053293573833,0.5958744080062783,0.566265004040607,0.5348626269098817,0.5075706734568994,0.484699691353504,0.4674883522362723,0.4531666438955133,0.4483138796472288,0.4369102625947554,0.41986851938471337,0.39482528660311456,0.3615964301730057,0.32622721656598364,0.28839250403822825,0.25046997341460964,0.21159356001580998,0.16931646942217238,0.12998587598587752,0.09240087522583451,0.05090693236304833,0.015353263199328393,0.0026377124133338814,0.0394036431539867,0.08163913641818232,0.11966987539808127,0.1564377607767461,0.1830441437565078,0.21944278936657136,0.26056049349760646,0.2968593292364341,0.3384822354177919,0.3802894017649274,0.41671043512843586,0.4575879604474966,0.49991180088942455,0.5396609750995693,0.5768781110174217,0.61903284119844,0.661378353854077,0.7035866869898664,0.7411331501637393,0.7805094814619076,0.8228265793364473,0.8651008780786889,0.9034772060499661,0.9415336488140904,0.9696927396409902,0.9604406416873887,0.9245444431982486,0.8824360679485943,0.8445984805338909,0.8055472135081201,0.7659949361065002,0.7286295051417957,0.6877382365233096,0.6514508426925862,0.6130248746784304,0.5853695340662093,0.5826417315581682,0.5748050788208774,0.5710626173576185,0.5782819267162507,0.5802160256732272,0.5557132266977989,0.5430494096656748,0.5544639625488998,0.5664695542843357,0.5699276471876336,0.5699662325927102,0.5693315089401445,0.5633171647857063,0.5618582680411623,0.5568400215014548,0.5542066118474787,0.5600717747774104,0.5800167313274325,0.6085180724876535,0.6328040255960423,0.6532726038916854,0.6451724939910668,0.6234727275791401,0.5924182691435993,0.5632036879398987,0.5326905469926495,0.5027872990172364,0.4727562688823004,0.4538470987332759,0.4431471045792039,0.43759699816018105,0.4394425430418383,0.42971057946730307,0.4116341800046974,0.381532741413378,0.3439825786993498,0.30178089654830376,0.26284669791491644,0.2248824965806704,0.18355263444818448,0.14732598828451093,0.10590552491378369,0.06656593159208779,0.029079302781081173,0.0,0.026123034109663212,0.06400814188187753,0.10232785642026732,0.13871801915032944,0.17783024901981181,0.21438067991984355,0.25603207166127007,0.29290590727020627,0.3330800137834442,0.37541256298632075,0.41688672373242097,0.45310689134447557,0.4945178548960023,0.5368619097130467,0.5789988117929745,0.616206284198717,0.6559803100002546,0.6983101410283323,0.7405574612012262,0.778527983925275,0.8174189125382838,0.8551037911466317,0.886717818985078,0.9236403638577293,0.9629853184615516,0.9985993316231587,0.9918708241346996,0.9582160396214354,0.9218589017913872,0.8839501662693305,0.8474897433055506,0.8062056798143735,0.7698561328229472,0.7288633865059897,0.6877924252758827,0.6515948630259214,0.6152050512809408,0.5995797326192855,0.6000302943468254,0.5942361254090096,0.5966427851937555,0.6074097538353638,0.5920991518532392,0.5643080280810764,0.5670166826094147,0.5806722836090117,0.5844541391673008,0.5783826895759776,0.5732916671435984,MI
0.5068170333723745,0.49698317037414386,0.4831194066894726,0.461538780630224,0.43653838341869955,0.4085845845786771,0.37608556184942166,0.3437611736741606,0.3127269975194533,0.2800717201930423,0.2456297216732588,0.21015423305349357,0.17355247023000508,0.14266951694556473,0.10836313302290712,0.07759411343643796,0.04995785981286227,0.02394474119502954,0.014345847909415399,0.026580719972462585,0.04302743184987201,0.05722167761699248,0.06898004555619108,0.08872488300418224,0.10479034482897154,0.11281802672547836,0.12376243329052361,0.14260085737658668,0.16434157984296238,0.19563263576437562,0.23119405906949297,0.2677265168705565,0.3037595794733208,0.34388665020665,0.37794096766647267,0.4169371696726223,0.4565100244464355,0.4903171259995365,0.5301797041142902,0.5687775578135699,0.6030776280093166,0.6434341095221916,0.6833652271915189,0.7171767678724958,0.7566861586829663,0.7973739594376723,0.8356206750160793,0.8699434720878834,0.9042188724136062,0.9371377039646525,0.9420988851835272,0.9121184183589557,0.8764336777308372,0.8426625730211597,0.8027981433197748,0.7659237216174142,0.7301066176567526,0.6906882074834848,0.6568777703966788,0.6175262065881493,0.583576967558121,0.5451091084615896,0.5155938027163607,0.5077109707179703,0.5076349294307425,0.507264746839168,0.4966681881768946,0.4738698182251506,0.46528331279956836,0.47757906269826744,0.4862397755689085,0.4899176368027993,0.48997303319164054,0.4928880029138403,0.4985446107918994,0.4947567534606825,0.4866642241759045,0.47684562268807773,0.47146737461377186,0.4629842328766043,0.45539068712929853,0.460853076149603,0.4643390624520749,0.47185106835241997,0.4797610130887844,0.4863674935164073,0.49262207856005014,0.4985514442644656,0.495856642446562,0.4785985493906133,0.4550028989066415,0.4203132497675326,0.389306014719621,0.359482328861799,0.3270197049700052,0.29314145198941977,0.26028749796240236,0.2286405986819655,0.1968920264275571,0.1639835583528746,0.13255165588702877,0.1042349169160286,0.07061953647817343,0.042795615772933004,0.01802851297985608,0.019920200744425687,0.03126806218363409,0.04459383252513027,0.058066143526127156,0.07107586830280432,0.08986626821517008,0.10390310030277616,0.12100091220706566,0.12932652339162187,0.1481688056395789,0.18044907454325965,0.2125672462440915,0.24537252448843194,0.2822223040092078,0.31746805384412147,0.3579236273364508,0.3936047906376712,0.42005732084362246,0.44798390546234335,0.4771816481382307,0.5172893240493495,0.5578167874130058,0.5928084977591832,0.6305546909571886,0.6712350906066533,0.7110295111130391,0.7448065682122846,0.7844828896461788,0.8234381978006247,0.8573732971183172,0.8921512382850108,0.9273039301631434,0.9365765030506676,0.9107453490036117,0.8757766714723283,0.8391634678988578,0.8051876919913561,0.7663225296185254,0.7314035289491685,0.6938054161546479,0.6591729211652477,0.621000797973366,0.5819108986806061,0.548096223866432,0.5222920265419508,0.5222761465991468,0.5130209945689805,0.5137207358655485,0.5122126256685222,0.5030669636279872,0.48036844747539575,0.4795527661551213,0.49802777828174505,0.5056713037159468,0.5009409376824574,0.5041331494588774,0.4989741844190745,0.49878358048767835,0.4958336764646374,0.4860234255068081,0.48915461319878806,0.4804277308164009,0.4727443357757768,0.47781483045900264,0.4858407676553149,0.49097770247785544,0.501217328912942,0.5118979923557356,0.5195813756526204,0.5210598744449428,0.5291404805142399,0.5317084108019496,0.518410011433837,0.4942698693311467,0.4663443037726762,0.4389373569581654,0.4063065157406094,0.37238760512875935,0.34144791038589717,0.30882842324477866,0.2743768755047089,0.24168170747040452,0.2076204884350068,0.1733903794228877,0.14160958085239028,0.1110436541791473,0.07387416669920222,0.044778794748206785,0.015594281722618675,0.0016556629001045486,0.0,0.007204397372386984,0.022149532464841304,0.04462016985497219,0.06015229501120967,0.07419930846854528,0.08872581871843654,0.10459473150735477,0.11658042803019675,0.13396259276037092,0.15990861558690272,0.1879565640982559,0.22178272792264186,0.26205217337808584,0.30274856034619324,0.3434161021879445,0.3805997350907788,0.4161207453324556,0.45632566011444275,0.49060242347859684,0.5292562404842844,0.5696556315655914,0.6041559971269597,0.6425089534446475,0.6831950418974937,0.7237554119368286,0.7591154742888537,0.7964705515851591,0.8371177699901546,0.8745795244535266,0.9097127509402749,0.9448823039574792,0.9806084116795615,1.0000000000000002,0.9815579198373883,0.9449404445950254,0.9096618703456578,0.8727475268766367,0.8371003815207387,0.7969602638125508,0.7671589678464457,0.7340380816006791,0.7002701737297694,0.6602992399340784,0.6236477424375937,0.5876817551823079,0.5522292590832607,0.5365123542613739,0.5393757919653106,0.5377173413812699,0.5410221068212604,0.5312941852526207,0.5141857353692998,0.504018394774578,0.5196595955019423,0.537305173163207,0.5310844842459501,0.5350724458646201,0.53471603843505,0.5255049379569274,MI
0.4829946076866709,0.4513611526517032,0.4150029849991945,0.37864005354113894,0.342240314220533,0.299104832455686,0.25869564909907306,0.22230115236178705,0.1897486565451314,0.15495605319131434,0.11872204466810876,0.08359452853788607,0.06198451199551114,0.03873284045331671,0.04299599666323983,0.05545320695841527,0.0734435313071562,0.0917225861423967,0.1100016409776372,0.12935910345776014,0.15179291745923473,0.16990496901769792,0.18807500798270915,0.2115410112802869,0.22477678131033807,0.24830423757667086,0.2765008832296818,0.31297667516044214,0.3468595731755726,0.38826227137814273,0.4308078869569809,0.48011703710666387,0.5257362392809015,0.5722287319020634,0.624962014027755,0.6656763868176552,0.718595707515794,0.7640132182196435,0.8107167613524244,0.8633264325075074,0.9041057669127017,0.9537920693357913,0.9849302443250618,1.0,0.9799607053628732,0.979380183572427,0.9769086782247709,0.9377854969618649,0.8966252068032157,0.8560253865361984,0.8117106017003088,0.7663098073201491,0.7278277761689669,0.699437829517803,0.6941533610503141,0.6838589723394493,0.6942432952928241,0.6886984339647304,0.6837665125931682,0.6948568998092775,0.6948820669175011,0.6878407891592229,0.6943196928520496,0.6812948988429519,0.6601702611565239,0.6345060193169241,0.6272060780262989,0.6321093487613734,0.6556099936668067,0.6734397447013407,0.6730261088453493,0.6614155311199359,0.6611478093218728,0.661147809321871,0.6611478093218683,0.6611478093218661,0.6611478093218635,0.6605578543040189,0.6477115776489879,0.6517695424069356,0.6593205164705243,0.6454853041860975,0.6441595713369335,0.644144530594775,0.6394690454312917,0.6275276472767088,0.6271329076629417,0.6194524054887962,0.6102651829052381,0.6101830953670819,0.6101816940482117,0.6078925371325465,0.5853449458123041,0.5612073210665378,0.5392620647840909,0.5079983234319694,0.48193353999164845,0.44657217501891644,0.4089454112134101,0.36263483890035886,0.3258292136425429,0.2895339501024754,0.2533174023037428,0.21710085450500927,0.18088555194604528,0.14636855433045692,0.1183568164415374,0.083012961171677,0.04816848322112266,0.025642533399087064,0.0,0.00035847650433540323,0.020903518892370077,0.03310611552667231,0.04741973316339543,0.06904583800504271,0.0850858517072326,0.10170494889438508,0.11986847452962834,0.14418261530251764,0.1676486605255576,0.18985503757008715,0.21227087562258262,0.24728249674890224,0.2836448547859183,0.3200281638609086,0.3585740395707826,0.4085601136482704,0.44984358197895036,0.5023934396730736,0.5428786163665666,0.5953797706809509,0.6422248458508575,0.6875599664770631,0.740856312657149,0.7813108873179697,0.8338763749221623,0.8802502133242252,0.9110302782522699,0.9456301178645554,0.9723332294523712,0.9794641706205303,0.9523167153512677,0.9329212793296486,0.9131088314693723,0.8744492413234544,0.8341539993801805,0.7929095135119857,0.7468928475763099,0.706510402127611,0.6657180476375903,0.6639716785389544,0.6771997610457046,0.6781358810485227,0.6781568346057147,0.6845753702732278,0.6935837165878445,0.6801735251173513,0.6760711147837952,0.661446303483983,0.6464807813137239,0.6281589537497316,0.6010043468275015,0.5977589129895988,0.6173597143208474,0.6493297702474043,0.6609659164773349,0.6611478093217511,0.6611478093217489,0.6611478093217462,0.6611478093217444,0.6611466930168817,0.6592417955799283,0.6452130667798532,0.6441595713368171,0.6441595713368149,0.6441595713368122,0.644124381300776,0.6369346716484428,0.6272641241063988,0.6271713333518858,0.6271713333518831,0.6271713333518814,0.6271713333518791,0.6271713333518765,0.627148791777691,0.6215531681001676,0.603784514512133,0.584906630123796,0.5584827067505929,0.5312343685041423,0.5024778732510673,0.4661327902397523,0.4193641064893474,0.3821071681181132,0.34574423666005716,0.30938130520200113,0.27305289819190026,0.23683679487929687,0.20163424519378736,0.16996273268480966,0.13776487454507436,0.10323720447830809,0.0749584460386119,0.04166006386301868,0.018590551871833227,0.030063482941201425,0.03792191671937717,0.05162663704128656,0.07314721671848279,0.09242845124055066,0.11070793698982495,0.13029847591343824,0.15677885240086376,0.17694589315280007,0.200156114735222,0.2218870369342243,0.24223846446156205,0.26852721153129666,0.3077047070797412,0.3357017951630188,0.38174985853320553,0.42401807165443595,0.4662061276209717,0.5160071348044579,0.5609934919851431,0.6081209149588545,0.6621699113886903,0.7045317230975603,0.7545960999289494,0.8080560400824064,0.8485475122624684,0.9010806193531993,0.9525332894458605,0.9841400226466459,0.9983436180552103,0.9848851144710338,0.9828681827993271,0.9631719611987646,0.9219615878817953,0.878724684074784,0.83209866430402,0.7867638468347198,0.7389946416249131,0.7287977856092414,0.7166331223081293,0.7121178299657784,0.7121155769979106,0.7154950369297874,0.7284484666197115,0.7290381051565618,0.7200069319611786,0.698124860198877,0.6934838056282375,0.6744439079362796,MI
0.7597804294584144,0.7950767261786201,0.8379180624010022,0.8816591819199636,0.92925551670553,0.9381542442233327,0.9015207357035112,0.867996753458182,0.8537530341759666,0.8617212922632201,0.8884735539595777,0.9160858828332942,0.9418346142342765,0.9676570542929962,0.9593684010118776,0.9251992704090811,0.8888639342994219,0.8511120843977825,0.8107307174826007,0.7717745045579795,0.728481640989073,0.6911883107194631,0.6714503723170805,0.6808831968310513,0.7028391319182917,0.714859867935303,0.7016023903941749,0.6797076508330832,0.6775683626957912,0.7000527788208898,0.7190884601144204,0.7241456120358599,0.7354478847788021,0.7315810388495051,0.6969310359442055,0.6439861088058499,0.5895335041308579,0.5388794126449806,0.4899861850907318,0.4356906481042958,0.38492505259804244,0.33613287165125694,0.28257454770168045,0.2353755514436443,0.1843750176946487,0.1439376804874103,0.14014400914723568,0.18304068636584947,0.23001319238436035,0.28344141579454407,0.33793903413616444,0.39229859207149065,0.4413593979572591,0.4918276494091759,0.546277268556219,0.6006862276903752,0.6503903235025296,0.6986242307997302,0.7414696559124022,0.7687353263421771,0.8078432341923102,0.853192948630415,0.8983734103250879,0.9410114611835291,0.950306743355874,0.918136561746088,0.8879961812326237,0.8830680362067543,0.896902535203537,0.9255667617905307,0.9544828150144028,0.9796039849963382,0.9760529505250483,0.9418487816139621,0.8979322507354467,0.8572638638605189,0.8178624817189585,0.7770605404651153,0.7379144799083758,0.6990443696863188,0.6642142822466653,0.6365661439673264,0.6376585103176583,0.6454058795240804,0.6215676695313846,0.584145000192109,0.5571811823263172,0.564885503326454,0.5850167953263578,0.6130165223907372,0.6303600925679836,0.6384220208871866,0.6182563283002983,0.5770829749448706,0.5284841605866047,0.47699583230135867,0.43121442072902794,0.3914381989588879,0.3399273398141224,0.29196306819615436,0.24024686351804092,0.18587574554472297,0.1364660129832106,0.08650679867531597,0.03771266520655048,0.0,0.010781126123647788,0.05507942109096031,0.10907390486396795,0.16357269505784677,0.21807164421808245,0.27257059337831835,0.32706954253855536,0.38156849169879103,0.43606744085902716,0.49039390772121283,0.5392256898872373,0.5898678323009076,0.6392970803334136,0.6772695859551571,0.7007679341819811,0.7378132069162305,0.7813299009180296,0.8246652011839061,0.8484688106321024,0.8102848179474701,0.7710127926180116,0.7433583400845544,0.740145046284974,0.7630134009833528,0.7915009358995996,0.8225458531438129,0.8524305255347316,0.8771845634278833,0.8743237803688094,0.8403700070668855,0.8040395224986906,0.7676765175844079,0.7299208329717551,0.6947564419450208,0.6576732384451452,0.632932802146042,0.6392209859811463,0.6636730243056909,0.6666430322045872,0.6407366901921782,0.6116775028478573,0.6076405228447771,0.6265099044934174,0.6447247861874869,0.6582249922194111,0.6583784799340405,0.6331362078579009,0.5886215605189825,0.5416597763823175,0.4878347013117891,0.43802254453210787,0.38833253947455526,0.3339245180757503,0.27983147883923254,0.2320676921945758,0.18009035753665203,0.12857765547507782,0.08113732327586187,0.04214546164217248,0.05252569166072285,0.10234025885479969,0.1543769739707842,0.2020956407077451,0.25617167399933705,0.31067062315957383,0.3651695723198095,0.4196683511589484,0.47358729366446994,0.5210250731769627,0.5735141524981088,0.6279846654225195,0.6793005371176314,0.7179048055335683,0.7536049695563701,0.7907295690344921,0.8240927138886399,0.8633889766379602,0.9070071428050531,0.9548700014526342,0.9581289134802172,0.9225382076164911,0.893220404288969,0.8844614369206193,0.9015753983490765,0.9264133012865253,0.954240494542966,0.9847138867560562,0.9999999999999999,0.978563246459235,0.9417039975049769,0.9013258543286579,0.8624349267489803,0.8204635707651099,0.7798940764835084,0.7355230109904657,0.6960242696498699,0.6625841811423122,0.6428723558320527,0.6498556823557481,0.6611780745580033,0.6398865677979172,0.6128103025185979,0.5966303300920178,0.6155431804691253,0.6353937200897787,0.6592011425166274,0.6740467108494358,0.6697922941431477,0.6443777410799915,0.602489152605992,0.5571233609989553,0.5081522730285418,0.4538041815829178,0.4017929737779907,0.35404763347728363,0.2999525240897486,0.24545367357381587,0.19095526092503412,0.13725197327460903,0.09014093797895162,0.04359038515196545,0.029763980228807774,0.06491351734732109,0.11699955510391347,0.17147301467882914,0.22333675864963098,0.2711977266339408,0.3253273940595319,0.3798263432197665,0.4343252923800035,0.4887814508601841,0.5393853593729164,0.5883208168714421,0.641873127759485,0.688958640483737,0.7365000281316737,0.7706264392954015,0.8053454163397594,0.8485988731918267,0.892232771490458,0.9354562354347377,0.9410316644181792,0.9063588417572676,0.8803065138539944,0.8756557000249477,0.8914584051072375,0.9135929916767539,0.940097409395871,0.9588318697110932,MI
0.4527397437788452,0.4308940032704527,0.3997662554607402,0.370986881587831,0.346020522484767,0.36176258428353725,0.3831161560510743,0.3736043478329576,0.34657378898557667,0.30937530988080963,0.26483369971506976,0.22541331207157222,0.18726032167158158,0.160571770248491,0.16067115540528953,0.18969496075127723,0.23154551595045159,0.27046146881192423,0.27921067890227946,0.24516248858359568,0.19717252464228063,0.14653473094437652,0.09516478951009155,0.03979439672033447,0.014267459197823351,0.0564227785288367,0.10997403463211786,0.1607871820173863,0.21318456983806122,0.2669264211809639,0.3224534558553429,0.372074849392829,0.41493917797756885,0.47052429113136607,0.5216789700549516,0.5787696739091792,0.637432185291479,0.6889862559913449,0.745455644163667,0.8038190198304598,0.8549256478020593,0.9120193473994673,0.9648784129824435,0.9904013669827867,0.9542681076981019,0.9036876927891715,0.8471161301087213,0.7961754225683038,0.7409226925588048,0.6893828147426793,0.6371059473509368,0.587849136564766,0.5405152566681737,0.5008457426262152,0.4878113490965674,0.47796452494510633,0.4661378639363738,0.45035011842859185,0.4309698846857928,0.4136874670153883,0.3909545451790395,0.3608683506322825,0.332213584601017,0.33060165077670134,0.3552623547589404,0.37063010179429723,0.3553887588351776,0.32477063258935046,0.2883132745284418,0.24669307713541766,0.20373604291724967,0.1671150328477713,0.1430188203359508,0.15379144131780653,0.18893280988687056,0.23155586010032492,0.26067202325874206,0.24769715132777326,0.20258718688805466,0.15165735617926002,0.10026349224548636,0.047797689667387955,7.944675131765777e-06,0.014276802609608286,0.055636543088603885,0.09399625395159439,0.14702225083470233,0.19921079193787117,0.24998678921994166,0.30661985260795266,0.35750922860559986,0.41540826635619266,0.4741556795402684,0.525945743164731,0.5821044737094312,0.6409949795075454,0.6934173455863455,0.7487948381288412,0.8074863547690119,0.8591924209118393,0.9153062026215784,0.9659027762097616,0.978695547671447,0.938473325430218,0.8799892191052505,0.8259333867135212,0.7725130842037484,0.7202609355356411,0.6674706722082204,0.6163780302655013,0.5658813490420624,0.5227181657005531,0.5038285051492231,0.4940398157578445,0.48183748906378865,0.4720163919382554,0.4565787470403746,0.4383887479156843,0.41431600365403765,0.38478269941280874,0.3528129035976255,0.33557046364897714,0.35759913146218847,0.3780610224042431,0.37872615690713873,0.35550149277314036,0.32185481402301597,0.28322253893784066,0.23608437592853937,0.19706815293066282,0.16895727889507772,0.16416589329231934,0.19273990056247237,0.23750894345021867,0.26382860566609767,0.24484127452476057,0.19922891390605946,0.14966028090839179,0.09887313159739652,0.04491613070185285,0.0,0.01281217870247131,0.0632009823420836,0.11407807375537371,0.1683559685810665,0.21984697032048728,0.27232665478652995,0.32717319474962236,0.3859544198419276,0.4380569554924041,0.4938281335263206,0.552758490716641,0.6055414306340596,0.6605261932313851,0.7192850950706724,0.7712718300488244,0.8271853197136751,0.8857764703321394,0.9367647059292623,0.9770145659987617,0.9655369071321296,0.9191823831851544,0.860642788212902,0.8016230896588472,0.7513899538224362,0.7131844545605941,0.6602573635021085,0.6094175851575874,0.561059860581391,0.514723320393818,0.48595824166410195,0.4817234078071737,0.47456192423021704,0.4610969708532524,0.44530950121807056,0.4259612340299006,0.40826631845271866,0.3766409093880019,0.3454859408339952,0.31908252426251327,0.3174608588003409,0.3360396347923995,0.3512038508034072,0.3366934363742826,0.305698271893865,0.2673636015383216,0.2273167733988557,0.1834501639439896,0.14650153721566084,0.13188890168308154,0.15130118428295103,0.18793766083760932,0.2338723592144829,0.27211411697486154,0.2772874939022034,0.24180145301876532,0.193428679689861,0.14208702806096496,0.08975513487230447,0.038438800133943296,0.03317721706712584,0.08000448842762631,0.13432758885744023,0.18560990009374234,0.2383222044475677,0.29278310608148983,0.3476701606132768,0.4004993944479156,0.45936290157564064,0.5133429999961228,0.5670842780335421,0.6259660380962777,0.6790335662003937,0.7337223489576998,0.7927959232267958,0.8498419603336207,0.9010308359127057,0.9589532182083329,1.0,0.9898841607899351,0.943159583297962,0.8894019179660493,0.8303606541436386,0.7715043265457946,0.719288789025649,0.6651932393991782,0.615386668926805,0.5683451996048197,0.5236458235631454,0.5039180515750974,0.4975317759446347,0.4858161700857333,0.4732652895998348,0.4566908003487262,0.43951676442434984,0.41639986741539414,0.38545290358707973,0.354815629398582,0.3349937253760549,0.3498549328212941,0.37162690951455435,0.36751517815189905,0.3391539389256468,0.30113496832222353,0.27146129515840833,0.2583746065026651,0.22627687205655778,0.1865156943739812,0.15638691179631548,0.16371018990563346,0.19462700173276448,0.207667161568595,0.2288371007600074,0.26108719198876074,0.2855543887392713,MI
0.6628695065320915,0.6707896981540402,0.6748207034543923,0.6798475557083641,0.680627755573125,0.6806292820187168,0.6814209083459655,0.6864045468910329,0.687854002027696,0.6896364032714082,0.6916779994219509,0.6933564052123851,0.6908397093332361,0.6924197150198375,0.6933870051040201,0.693388788892795,0.6933849399473324,0.6917862983948042,0.6826094267240994,0.6717737203304537,0.6693687870440463,0.6695949504585972,0.6700331157163666,0.6836310167271804,0.69737741990636,0.7049249079362794,0.7061463983809741,0.705666951378308,0.6946923912763978,0.6681289587535348,0.6409353612367596,0.6185759846492138,0.5989567046487161,0.5707739791718325,0.5417747781374234,0.5168356686596074,0.48977296165281087,0.46065899792477033,0.43153493442030527,0.4024108709158402,0.37328680741137504,0.34418915204405903,0.31796399029268124,0.29224130125909326,0.2631708250375339,0.23404676153306886,0.2049226980286038,0.17579863452413863,0.14667457101967363,0.11781203750256436,0.09332180061901119,0.06567704101076649,0.03660094401489028,0.01111635940709721,0.0,0.01752000104538004,0.04314230973925909,0.06924135696983424,0.09833463056381153,0.1274586940682766,0.15658275757274176,0.18570682107720676,0.21483088458167193,0.243954948086137,0.27307901159060205,0.3022030750950671,0.3313271385995323,0.3604511231878608,0.38927909550433143,0.4137082000336921,0.44144644162293906,0.47056718447783846,0.4996912479823034,0.5288153114867686,0.5579393749912336,0.5870634384956985,0.6161875020001637,0.6453115655046289,0.674435629009094,0.7035596925135592,0.7326837560180242,0.7618078195224898,0.7909318830269547,0.8200559465314199,0.8491795558604529,0.8777357253392415,0.8960606141571357,0.880124252170799,0.8518804053360263,0.8277589976478432,0.8000998853162822,0.7765320722363325,0.7566224112823225,0.743684991265195,0.7383773915740919,0.74140785283759,0.7444587254934925,0.7481141795898587,0.7550905676463047,0.7595273300133893,0.7606760146072933,0.7502058521611523,0.7358621742052402,0.7198952050753042,0.7033080696810163,0.6836877331755613,0.6638657089179179,0.6444473180437997,0.625013989876928,0.6044133045642615,0.5887014082684865,0.5895476785726543,0.6032022530769412,0.617770159048429,0.6335296233145726,0.6521203556334596,0.6651785008147242,0.6742643509278361,0.6802101682080504,0.6873691887334916,0.6931248987938745,0.6934633456947084,0.6970884311981014,0.6997467683949068,0.6997690605368221,0.6997690605368223,0.6997690605368225,0.6997665083176523,0.6985923036760575,0.69376268868706,0.6920661198272939,0.687224301958451,0.6812780430236758,0.6672926623852946,0.6563571897042779,0.6523849141935572,0.640441641316184,0.6380674356494851,0.6523033932751869,0.6687249509313424,0.6741961657908782,0.6742477665240454,0.6737988774702903,0.6630540534103446,0.6365949635811807,0.6083567189503254,0.5841878139007632,0.5556120158598161,0.5264883888871914,0.4973647973763811,0.4689970214503089,0.4448720084550885,0.41637170532763285,0.38724834300888494,0.35812427950442033,0.3290002159999548,0.2998761524954901,0.2708230949527179,0.24525401891702742,0.21885359128125131,0.1897601701216492,0.1606361066171838,0.1315120431127183,0.10249690356108332,0.07744849129871367,0.05572366228635017,0.053002148256110326,0.0763720173762304,0.10546552240125362,0.1345895859057184,0.1637136494101838,0.19283771291464863,0.22196177641911402,0.25108583992357875,0.28020990342804414,0.309333966932509,0.3384580304369745,0.3675820939414391,0.3967061574459046,0.4258302209503693,0.4549542844548347,0.48407834795929944,0.5132024114637648,0.5423264749682295,0.5714505384726951,0.6004772644998715,0.6258032787351133,0.6524614566877986,0.6815665208465362,0.7106905843510007,0.7398146478554664,0.7689387113599311,0.7980627748643967,0.8271868383688616,0.8563109018733266,0.8854349653777922,0.9145590288822569,0.9436830923867225,0.9728057575717786,1.0,0.9964752991140617,0.9730387604114177,0.9461934986662017,0.9282009957658317,0.905099134511516,0.8764920574465846,0.8520539483584502,0.824658733726056,0.8008959840517738,0.7805454060736106,0.770487568007376,0.769962822069892,0.7721167246800809,0.7790644714352972,0.7826484801275932,0.7827033717430565,0.7803770335556128,0.768377129123295,0.7542777408983854,0.7370690559908468,0.7210709952708536,0.7045066726029039,0.688054017311478,0.671979667701216,0.6520869635860496,0.6292571609484732,0.6098328277751022,0.5984419381154689,0.6003450358429305,0.6132757781143763,0.6340854628162444,0.654183794289781,0.6694415509133185,0.6833052669303981,0.6921729850683287,0.6955021767864504,0.6996486462836555,0.6997690605368299,0.6997690605368301,0.6997691559877766,0.7001089227030433,0.7028135345782334,0.6999129637904442,0.6997690575305022,0.6994722201341439,0.6947733083634979,0.6930575960135683,0.6882827468035972,0.6870117718539555,0.6870085172487936,0.6870085172487936,0.6870056014125419,0.6852830827899277,0.6720990813032526,0.6628709075603927,MI
0.47668053239538155,0.5048832466119264,0.5545109645468815,0.596340659619746,0.6366026840205508,0.6883458946514138,0.7471429736108113,0.7796559996413226,0.816041132830577,0.8639035453255977,0.8372561672760161,0.777387278010349,0.7274391960946751,0.6668186885328633,0.6090100908368714,0.5574956535102413,0.500211511091341,0.4486375758995589,0.3947918005752431,0.36447384928251436,0.32308434488834514,0.2732599430851126,0.24380929362640913,0.19871299581098745,0.15110123263493014,0.13253331054911976,0.14848854507521647,0.12376479259344819,0.09611205941488032,0.10480795339051818,0.13336087947569597,0.16155879955682417,0.14016871261662267,0.1072657974578326,0.0761356969916922,0.04209233023826231,0.020054153109103634,0.007676249531795687,0.0,0.023104284802824893,0.056674731834663206,0.0979346539911865,0.13550544830969358,0.17579676866887217,0.21728616656192612,0.2587402723892911,0.3015015639430305,0.346629793172776,0.3846303362325689,0.42792863476312126,0.45973542359386066,0.476053369572492,0.48213774930248343,0.48253184538280136,0.4662660714529072,0.4732209015140545,0.4739935545472185,0.4616797766480989,0.4376590781086782,0.42813326889027925,0.43606560421970997,0.4734652073185166,0.519804621160759,0.5599795833418528,0.5724191587803786,0.573457153469958,0.5827190753836309,0.5912943518292204,0.5910691941495347,0.5834773714857966,0.5707479262048221,0.5746275093042219,0.6100282507963573,0.6594502357966872,0.7055860508949641,0.7365356133609389,0.7860171960396678,0.8353923292202547,0.8783615702957959,0.9165693462091018,0.9669355106662967,1.0,0.9552687640429132,0.8931327184552047,0.8311304233806083,0.778315901915545,0.7221988295538373,0.6695363691534721,0.6140170774669578,0.563877621884119,0.51030932273164,0.46022773909723025,0.4129990426094827,0.36991661286683275,0.3351369635538024,0.31363272743945236,0.2905188576500941,0.26032903412582753,0.2393674765475402,0.2132688201600792,0.18219776685282296,0.15110893453140717,0.12395660552361099,0.12082705044403852,0.1422639792688738,0.17321378740585613,0.21279580196689407,0.25088128391703846,0.30107306335423534,0.3489876562696126,0.39052253673265236,0.4319562255423115,0.473267363009954,0.5104492284267246,0.5472702775615454,0.5785652089099673,0.6068227109383204,0.6136191838747038,0.6118466111364071,0.5990149205503017,0.5810775304714162,0.5489976051978336,0.5176670322412629,0.5088145568071951,0.5343387290348076,0.575005171642375,0.6205516568801461,0.616704548043824,0.6136430921349616,0.6084659089451545,0.5984246967504885,0.5981827728480091,0.5981914505809831,0.6020785637325998,0.6350038518503869,0.6825150874815016,0.7272118052826975,0.7575895436423923,0.8061622506685424,0.8600628668106225,0.899529862662678,0.9387862249411056,0.982120328844458,0.9519740746980463,0.8911851877929302,0.8410240517858782,0.7814754971029516,0.729303798856292,0.6725553082310509,0.620531212975671,0.5667357373973512,0.5172702583486166,0.4739710791504428,0.44337753653174383,0.4003566651905235,0.36726441832075896,0.33616517454627104,0.3054002678811414,0.2803266960611297,0.25178145637801963,0.2268166737938535,0.19616303075346586,0.16756562530601293,0.13974201973483957,0.13485642684895582,0.14940841934163762,0.17634696819009843,0.21142717379001175,0.25783761063172195,0.3044141740594286,0.3452207320714189,0.382368929009564,0.4229656870530829,0.45992427616052867,0.4948644800992752,0.5318298489535103,0.56537840917749,0.5954135198487327,0.5961127317014574,0.5836175583372261,0.5736125396604606,0.5665754485113026,0.5485950991304342,0.5177657505144393,0.49329482869763197,0.5056700963809946,0.5460944796675724,0.5866388782880829,0.5843987496180842,0.5696525113909177,0.5579049699573604,0.5601666101250311,0.5525843452403518,0.5517203508595312,0.5456084964454697,0.5461490383260994,0.5796838103928939,0.6263304759179023,0.6742600871670636,0.7039552499310191,0.7486455971309947,0.8074190940936186,0.8527859938631503,0.898444832659425,0.9452834289410026,0.9393887117108992,0.8866939030381742,0.8318365853752945,0.7777174976951144,0.7171439403474653,0.667131883743874,0.6071623634277654,0.5558139436213256,0.5021100065461384,0.46414572155691625,0.4273115257944955,0.3814712379827174,0.33973082527229037,0.30362816313747354,0.27246597676217643,0.2444846341461253,0.21801936425916768,0.1921231669427188,0.1635300638124768,0.13106664396405154,0.0997887276312146,0.08789378799137681,0.0906156636903579,0.11016676041287043,0.1466306715994481,0.19172716627225483,0.2294135628497158,0.2707821700219335,0.31002764540073713,0.34855827832232533,0.3865147384769805,0.4188126184859966,0.4649137962824068,0.5089024442312087,0.5431400545151153,0.5691995851927811,0.5822268438910139,0.5827054298456251,0.5798219698665488,0.5648488562815155,0.5392552807694484,0.5115427661459786,0.5115546494641756,0.5473706368588647,0.592652468956254,0.6238866828981138,0.6110329577126663,0.6022324984972376,0.599587956059263,0.5876808379270404,MI
0.0,0.022226299633485658,0.04604083802644232,0.07234293829823568,0.09943641039975581,0.12508355072383082,0.15024548883330002,0.172808612577936,0.1952961878683661,0.22009827671337945,0.24131891661821814,0.2674755173713461,0.2938318425739106,0.3190977362755991,0.3374545542413099,0.35673678550339516,0.3776318288799696,0.3972790785286031,0.4139926017223585,0.4345832479627616,0.4504427315314268,0.46166368586165984,0.48808104050742585,0.5211182386035436,0.5601323256255433,0.5978731731307811,0.6327464223562909,0.6741968405543806,0.7084743949801433,0.7468823748333178,0.7853047050792459,0.8195936828131616,0.8611534838595081,0.902944063833018,0.9410659580498233,0.9669784707241356,0.9950243427444325,1.0000000000000002,0.9772560800762589,0.9406851458669345,0.9059403105717256,0.8669196801814707,0.8333431234417812,0.7934580819050907,0.7604008718809647,0.7195959481056577,0.6853849214470897,0.6560504378678582,0.6466033400828928,0.641069272737665,0.6352830641744556,0.6282829860026802,0.6180169751690534,0.6131181577736862,0.6124607847914112,0.6036668068189359,0.6019500157974391,0.6019052705991255,0.5972024385635282,0.5909018853567747,0.5908094338318144,0.5908094190535182,0.590670051039516,0.5837446978466436,0.5848891054276115,0.5907285027465661,0.5908094338318035,0.5908094338318013,0.5908116854753125,0.5927892276046007,0.6028423829559957,0.6122800762509526,0.6130864441496735,0.6130869346347352,0.6130869346347334,0.6130869346347314,0.6130869346347294,0.6130869346347276,0.6130869550969782,0.6133438777396669,0.6212333268035988,0.6242163101679965,0.6242262983701692,0.6253558879114136,0.6368811723632677,0.6431574864385285,0.6394826283726629,0.6474746601574013,0.6564800336830754,0.6518389602154202,0.6440168341121415,0.626466305790147,0.6029781542195027,0.5751409438027131,0.5422520837145772,0.5080125424037216,0.47646859474317793,0.4403160169825737,0.4074642393156609,0.37110887148661686,0.3374470890279069,0.3048593620224658,0.2716614978602092,0.23346554751355852,0.20032115305902765,0.1635811931143274,0.13201776634315587,0.09933291078486572,0.06697655789141321,0.036587963916572264,0.012876684879599809,0.011331915242766666,0.03316641393546749,0.05540046746140259,0.08096359800356034,0.10620108511909354,0.1307250696934028,0.15999021678060377,0.18998018796129124,0.2179028751737908,0.24491490239913682,0.26718711930035144,0.29390829701346965,0.3153547873436573,0.3348515186267327,0.3557490427766452,0.37655883456439776,0.3934760879220982,0.4126877120226755,0.4285643845954623,0.44210579338373646,0.45291367838731467,0.4746789070973034,0.5064878493221512,0.5469314529259748,0.5822440267843609,0.6195439479446314,0.6605113866099428,0.6935532856700468,0.7337745239258984,0.7725899954075868,0.8065713101354606,0.8479331298262067,0.8831905008962295,0.9203077320372752,0.9534801497742074,0.9782775200655844,0.9904213641417872,0.9693109275951646,0.9365192760499224,0.8971855814531782,0.8629607660354142,0.8244623215009119,0.7861453142406385,0.7517841608872617,0.7108824134452358,0.6780084960778034,0.6459996575276521,0.6375799325701563,0.647428834036802,0.6568514980682529,0.6576414583889547,0.6575932623865217,0.6527150973185047,0.6466179962342458,0.651873321141428,0.6621476855401083,0.6686801708092487,0.6687806803896539,0.6687808071419412,0.6694338335027199,0.6781283491607515,0.6799167866053946,0.679919437043472,0.6799194370434702,0.6799194370434682,0.679919437043466,0.6798420871372417,0.674762838443244,0.678197754021653,0.6799160711705377,0.6784140050409697,0.6665277223354045,0.6519450898367936,0.6305022523579937,0.6029166445227281,0.5750189319669456,0.546960295505706,0.5132107134854185,0.48166422308757917,0.4495487131523497,0.4163599535858238,0.37759566222943297,0.3373425459115822,0.3043178319058928,0.26582771171366315,0.23288358654153862,0.20018421730983604,0.1662102615579486,0.13037235218096987,0.09810248188906723,0.06790837708587438,0.03803328142773643,0.01237330595479147,0.0085107491588714,0.02866212777593713,0.05393365003250228,0.0762675236509247,0.1028085169416153,0.12858606938149997,0.15142421549839313,0.17893595765076453,0.2026531672739138,0.22930265933036464,0.25552477232981197,0.2793469842819356,0.3029250740233107,0.3238396404377155,0.34473938114507763,0.36434500250864876,0.3841397426014519,0.4020535551711266,0.4209831139639626,0.43516786897280424,0.44906367817710247,0.4640500371772738,0.48598092599849063,0.5143578813565668,0.5556840674930494,0.5944750529352876,0.6284768785302306,0.669841229606903,0.7050706147501573,0.7424600286524579,0.7840470490862732,0.8186605647959173,0.8566510130091392,0.8924707557025437,0.9238003778732693,0.9518794697765343,0.9756153478144929,0.9758581905727495,0.9489715051590728,0.9134562504557702,0.8771019719380273,0.8353377661745449,0.7936075579158677,0.7574190466839321,0.7210535210540858,0.6840184783407224,0.6629813360934593,0.6576704422749553,0.6576419305565091,0.6575425724516759,0.6513196728104591,MI
0.9240611726473391,0.8919452712351441,0.8513879399908435,0.8150774914846404,0.7766365411034482,0.7409748573082156,0.7012692873505746,0.6632109179882562,0.6262582187698238,0.5892854986339116,0.5512381833725011,0.5099513089119714,0.47052338021220863,0.4587024714763197,0.4611754094619367,0.4560194996483431,0.4455295448636296,0.43464986330154076,0.44293964191704527,0.4515467986189652,0.4492221474160316,0.4508483688106937,0.4413001080167751,0.4284601294546624,0.41455384760391234,0.40198333464535896,0.4002246175934585,0.40835003643097356,0.4255923209886785,0.4396059302728581,0.4484058656640886,0.4483170470562996,0.4318520926254048,0.4066103749262262,0.37818842162537214,0.3464175090625088,0.3133508851482596,0.2802667880687342,0.24621557234845715,0.21115076444762915,0.17148511622814433,0.1373197980258376,0.10424305756272512,0.07121204514023927,0.0401138463690629,0.012357506657253325,0.0,0.02289754283017198,0.050326690160260035,0.07449337423802627,0.10017954354394332,0.12385579002971325,0.14811163086003631,0.16894870502002446,0.19134873609997394,0.21030220760400353,0.235290850258149,0.26554614974818525,0.29791805035927843,0.3335058032160161,0.3713398847885936,0.4074845320465803,0.44653220318344156,0.4878429056603584,0.529167378366215,0.5704909550648207,0.6110552947870145,0.6464874878752922,0.6867978370569248,0.7281203528562017,0.7692316308218152,0.8055415917326154,0.8444397412678859,0.8857432229473341,0.9254415779391165,0.9610802194159869,0.9955834086535948,1.0,0.9702262882072776,0.9395863308620895,0.908861387981152,0.8690999830183972,0.8311888139725083,0.7943224928843822,0.7584946536367023,0.7190899521262524,0.6777730695158692,0.6365118652208164,0.5990309753058387,0.5614230193394467,0.5224502589782307,0.48644334171920045,0.4570279570415603,0.45340274546144155,0.44803958693527335,0.4424350362764795,0.43497517808890107,0.43789216425260635,0.4450250418762203,0.44629326673803416,0.4510441051613101,0.4473249194900073,0.44184233182301824,0.42854718897330524,0.41506687595969716,0.4059658351716795,0.40030442606521843,0.4034022766904686,0.41947261971541705,0.43214362893154123,0.4408699788019166,0.4430323378155627,0.42854001547034537,0.4030368803290596,0.37349210887344464,0.34279143702711234,0.30847511781334735,0.27561346546277643,0.24383627216017656,0.21034214295659637,0.1757733679860214,0.1377347568490479,0.10506667343794052,0.07251318063456147,0.04340663912839504,0.019233217845815,0.02416335298447414,0.047867986660545814,0.07721128886105333,0.10159563841275254,0.12714937502286938,0.15074388887667034,0.17183574188886275,0.19429927560514648,0.2141144190928339,0.23653593169912357,0.2653539718976585,0.2957203968425499,0.33012012851377315,0.36804277959046083,0.40347031186347126,0.4431741270427101,0.47859001413914415,0.5189440871551296,0.5572733147126743,0.5940854620571623,0.6352756390768854,0.676600104133309,0.7179245768391658,0.7592490495450226,0.8005735222508801,0.8418903197133294,0.8812811107361493,0.9171181098104426,0.9538368378900768,0.9826581783812667,0.9782612430466486,0.9497284717504832,0.9220962568495097,0.8855457532269098,0.8484775024979709,0.8082079258031933,0.7727880817822637,0.7323993079925126,0.6955481652646014,0.6586552043872933,0.6231004657975925,0.58231149259236,0.5409875768424768,0.5001409830401764,0.46922387005857535,0.461021802387267,0.45040224244844596,0.4313577489051279,0.4253968554777301,0.44258911273350376,0.4605931111740884,0.46518003000872055,0.46465122616111665,0.4645656270268508,0.4608287631924761,0.45622845238263143,0.4587058698145636,0.44994006629167327,0.43665694499407537,0.4193170059791782,0.4029066457230508,0.394202939555923,0.39476592306538505,0.4017433054967694,0.4199372757193802,0.43233121575844824,0.4380525006670464,0.4353575683531734,0.41659398457829133,0.39142691943689134,0.3623282917476873,0.337721767080297,0.3090860803003348,0.2730056180951155,0.2381195239666838,0.2041456765753349,0.17190106813092676,0.1384752997895442,0.10611368122740195,0.07568827274654744,0.04621259449412185,0.022850448119368982,0.0333828959633079,0.05758694674605913,0.0828538287384808,0.1050238940965369,0.12931398195399813,0.15316618954328787,0.1764285250738089,0.19698355755765906,0.22676223522972938,0.2521839494695082,0.2745854858590824,0.2945401722841752,0.2950513206776211,0.3062501556733894,0.3154925435469631,0.34679349417548333,0.384244460122271,0.42072003312431505,0.45934957151111777,0.499531067161455,0.53501171833806,0.5756354637483352,0.6169593258393937,0.6581678674864926,0.6950152296812655,0.7332971214747663,0.7745878174242806,0.8156854273127199,0.8519335111469071,0.8907315259166986,0.9271731095422138,0.9616326021795716,0.9697127894832105,0.942853172615451,0.9094540278933496,0.8772240543883527,0.8362172014785683,0.7963412649192401,0.760727254535229,0.7201384607623955,0.6839374528670052,0.6459772202439817,0.6106476674297527,0.574242515067054,0.5362597532155036,0.49575609776502194,0.46324515896354135,MI
0.20360124565022275,0.20360124565021875,0.20360124565021387,0.20360124565020854,0.20360124565020365,0.20360124565019877,0.20360124565019388,0.203601245650189,0.20360124565018456,0.20360124565017967,0.2036012456501748,0.2036012456501699,0.20360124565016502,0.20360124565016013,0.2042543630627014,0.2181569757063091,0.22056886153008293,0.22057185613557584,0.2205718561355705,0.22057185613556562,0.22057185613556118,0.22057185613555585,0.22057185613555141,0.2205686270340239,0.21806274121333535,0.20208380303472273,0.1870634276040808,0.1724964571985006,0.14651274878960852,0.11468711180127844,0.08948775554879163,0.05798271071507344,0.03154137387251854,0.007674264759293337,0.0,0.0064073216791857845,0.022951032308367925,0.046704110856243375,0.07133268516045277,0.08919817937063668,0.11201526712609677,0.12258977034553808,0.14477583671617023,0.15317417645181308,0.1664915931442219,0.1696551072062733,0.1696600246791724,0.16966002467916752,0.1696600246791622,0.16967476883088795,0.1753386786373805,0.1877203824955873,0.20686343665828444,0.23182445619543746,0.2667008777471791,0.3020577806060354,0.34938487740003943,0.39902947188716986,0.44820780684702743,0.4850733809877146,0.5310072496405955,0.5806288691725077,0.6239347119139445,0.663135530481429,0.712619733092513,0.7622608123052133,0.8074746498370655,0.8448530224011894,0.8941980709588013,0.9338147224483984,0.9495387001106148,0.9345968023631621,0.9007331176524702,0.8531758403798073,0.8035289641634917,0.7539711117215924,0.7125436425636642,0.6715223725318018,0.6219101562625151,0.5722628016659139,0.522615447069311,0.4729680924727093,0.4233207378761068,0.3736733832795047,0.3240346980922095,0.27901744924210314,0.24136255665937556,0.192054575378529,0.14240722078192647,0.09276449604601966,0.04847589777782835,0.062441409585005214,0.10029357774884806,0.13910972970862412,0.18183516080623985,0.20380459138165774,0.21799151430919572,0.22040447811274833,0.20993689009416494,0.2036204834336064,0.20360111719599683,0.20273427493676754,0.1861422443562719,0.17188875419738325,0.1907827264838784,0.2034111694254359,0.20360124564994075,0.20360124564993543,0.20360216500628425,0.2072035395341243,0.2200101929082905,0.22057177886610768,0.2205718561353467,0.2205718561353418,0.22057185613533692,0.22057185613533203,0.22057185613532715,0.22058366214311187,0.225829067635257,0.24208007142267718,0.24778428907198657,0.2376225340061806,0.23816424990469542,0.25048569113597363,0.23919702085663186,0.2375428190078508,0.2375424666207202,0.23756550670827714,0.24433420409115847,0.24572891929615714,0.23757535813206543,0.2375523714765282,0.2425130976280978,0.2543054114865986,0.2545130716923514,0.25455391888931533,0.2640084748762068,0.27141161451827145,0.26660598159734716,0.2548187423783981,0.2545130771060946,0.2545130771060893,0.2545130771060844,0.2545130771060795,0.2545130185389408,0.2540609262684508,0.24105746649897908,0.22295297506309852,0.20273491152677936,0.17439722691022919,0.14738388597673868,0.11549014544536851,0.0867601493625827,0.05713482808084036,0.03229679344296388,0.008315387236158767,0.0002534103263758247,0.012009878649402062,0.029762257115903967,0.050446782823912795,0.0706946225265832,0.09560308192494205,0.11715523281151219,0.13673116216647463,0.16102911380237472,0.16957934207577186,0.1696872127343183,0.17715845834696253,0.18650390342475642,0.1866306351642617,0.18664468798800105,0.19220793881022935,0.2034204893692375,0.20831110243025552,0.23168270009397762,0.2632381849034915,0.299870751956425,0.3399744628364525,0.3813588669311847,0.4179135208217599,0.4641223754154713,0.513742105955513,0.5566713707777886,0.5962392196623818,0.6457355623554655,0.6953740490882194,0.7402113087009115,0.7779195373121639,0.8273543815761375,0.8763745367046938,0.91227714234609,0.959295315679106,0.9971121100798088,1.0,0.9718494452757289,0.9263092536086392,0.889443679467949,0.8402653445080936,0.7906179899114898,0.7409706353148873,0.6913232807182879,0.6416759261216844,0.592028571525081,0.5425662210616009,0.5040260570649058,0.46004237406897763,0.4104097636241044,0.360762409027505,0.31111505443090204,0.26146769983429863,0.21182034523769921,0.1621729906410958,0.11258304599719882,0.07812728089736032,0.10498906812857411,0.14768556733889726,0.1826913638889467,0.21229308704694283,0.22050170773258504,0.22057185613507224,0.2205718561350669,0.22056567238362268,0.21690718362806427,0.20399412017006213,0.19484975557552398,0.17456147240068942,0.1900695959680747,0.20339258120937753,0.20429065763393606,0.21841428583940425,0.2205695181184022,0.2205718561350234,0.2205718561350194,0.22043541232990194,0.2107963429984161,0.2036263597210919,0.20360124564956816,0.20360124564956328,0.20360124564955795,0.2036012456495535,0.20360124564954862,0.2036012456495433,0.20360124564953885,0.20360124564953352,0.20360124564952908,0.2036012456495242,0.2036012456495193,0.20360124564951398,0.2036012456495091,0.20360124564950421,0.20360124564949933,0.20360124564949444,0.20360124564949,0.20360124564948512,0.20360124564948068,MI
