0,1,2,3,4,5,6,7,8,9,10,11,12,13,14,15,16,17,18,19,20,21,22,23,24,25,26,27,28,29,30,31,32,33,34,35,36,37,38,39,40,41,42,43,44,45,46,47,48,49,50,51,52,53,54,55,56,57,58,59,60,61,62,63,64,65,66,67,68,69,70,71,72,73,74,75,76,77,78,79,80,81,82,83,84,85,86,87,88,89,90,91,92,93,94,95,96,97,98,99,100,101,102,103,104,105,106,107,108,109,110,111,112,113,114,115,116,117,118,119,120,121,122,123,124,125,126,127,128,129,130,131,132,133,134,135,136,137,138,139,140,141,142,143,144,145,146,147,148,149,150,151,152,153,154,155,156,157,158,159,160,161,162,163,164,165,166,167,168,169,170,171,172,173,174,175,176,177,178,179,180,181,182,183,184,185,186,187,188,189,190,191,192,193,194,195,196,197,198,199,200,201,202,203,204,205,206,207,208,209,210,211,212,213,214,215,216,217,218,219,220,221,222,223,224,225,226,227,228,229,230,231,232,233,234,235,236,237,238,239,240,241,242,243,244,245,246,247,248,249,250,251,252,253,254,Target
0.8957615674857804,0.8338511269349431,0.7641283886433134,0.7218645102943597,0.7105831616233726,0.7116745838764502,0.6993992664604196,0.6777642362910525,0.6561861750434514,0.7001260854069984,0.7397391131802924,0.7484634744202139,0.7684961703682909,0.7683272509690342,0.7544516743696588,0.7320762319990233,0.7151586323154353,0.707566278955547,0.7021753347162654,0.6934748709312752,0.6860205769777039,0.6929895534125348,0.7004040569590586,0.7199605703986562,0.7224620386528606,0.6823839890475836,0.6341085493597165,0.5741475009993531,0.5181626165187656,0.4602987047075531,0.40520296655255184,0.38880699202486,0.41896893011519265,0.4663230816762509,0.5034771517823899,0.5412006287736797,0.5746289112005238,0.600025987004372,0.6130756034387272,0.5974115038979164,0.5524041576893501,0.488143727515562,0.4188725484597424,0.34982964698068186,0.2941218977990563,0.2848154390446531,0.35570942118799387,0.4379665992745023,0.5195640539060293,0.5934786438760618,0.6733537902806868,0.7532672728283187,0.8271421848541669,0.903024051928317,0.9254988315949837,0.8668213184298477,0.7949902930724195,0.7281288683955931,0.6971194318393197,0.6869752677122061,0.6833468152214508,0.6797692119179548,0.652276628009812,0.6295389096190149,0.6632329607477832,0.6734376013638246,0.6705302135215041,0.6710429299254426,0.6667493007702965,0.6615042169832115,0.6535345040924829,0.64973046153511,0.641739140831892,0.6385440598008056,0.6374588427360031,0.6288221903805671,0.6300576970347154,0.6332554536533446,0.6381419414786187,0.6339152256795113,0.6037706903177122,0.5590667945579231,0.5042318419719163,0.4469038181225111,0.38673521952415535,0.346728549687475,0.362779570558021,0.41381254144904145,0.46711563074138396,0.5241781971998907,0.5911917290223387,0.6575918885880456,0.7037415542220158,0.7251069939329282,0.7332289127375771,0.7330653359623227,0.6986029979439197,0.645846506215147,0.5815701686055839,0.5100484782566406,0.4392983377695532,0.3675409022805527,0.32568203903271664,0.3845337341935495,0.46671951238164544,0.5484463558908803,0.6152187686329749,0.6795098662734116,0.7531800001561484,0.8208578341982253,0.9021030073880141,0.9747946427431775,1.0,0.9434483754670078,0.8709266972071728,0.8017722127064246,0.7587998489415555,0.737039742945286,0.71848798485785,0.7139171236013215,0.7217886936380813,0.6912588029799118,0.7013420903045717,0.7271682898287932,0.7163597694567363,0.6986094917743939,0.6787935169822219,0.6581098703290851,0.6378393573055587,0.6480152158803267,0.6692755063884006,0.6831522487281871,0.6716993017898869,0.6388489479522828,0.6518222591284311,0.6714372614786783,0.6786818236107839,0.6927143653649064,0.7112537492477058,0.7343669701609916,0.772052008658239,0.7610170923377377,0.692668778854415,0.6105777337917608,0.5297217722819365,0.456124220540745,0.3751853677113499,0.29305663108601454,0.21737848789588532,0.14017440598366115,0.08618667458332863,0.12315393931942498,0.19649833205155653,0.27001639312095005,0.34514436661997183,0.4172389580079685,0.48654520839899273,0.5581989277523118,0.6252844790084733,0.6809778706195802,0.7020777966298222,0.6922352226748023,0.6672109814382696,0.6117452380322841,0.5391999039491242,0.4770679362639678,0.4235044080546577,0.3719261618265908,0.3268698921231983,0.29936512802766346,0.3188598506138567,0.37153378142727256,0.4280741470363725,0.48345148820037154,0.5387494542152051,0.584062409481162,0.6005974415290287,0.5985010652287317,0.5913015723931558,0.5839783307276623,0.59438516149135,0.5989352603218037,0.6054826372723425,0.6104773837796611,0.615782574420811,0.6220905927464875,0.6276059684377797,0.633697202846699,0.6338484683255738,0.6346795430678851,0.632320549898759,0.5942404580334355,0.5818003152122739,0.62071304396272,0.6446279118149805,0.6456905359789218,0.6517171548260936,0.663115038235693,0.7008874639191514,0.7047216964529324,0.6285856825265057,0.5462365043931097,0.46387658849375457,0.38151667259439903,0.2991776300984752,0.22000216982704823,0.14561699193251276,0.06418579426416748,0.0,0.007663764505323911,0.07449275442508818,0.1471979120982858,0.22028755640603936,0.29531063561824467,0.3675464098145149,0.4411554754369398,0.5130747518473744,0.5610579778571274,0.571824811908699,0.5508627099766166,0.5214103117155073,0.48274292253971196,0.4445394033063177,0.4014819579682174,0.35991938784603605,0.34711837431480985,0.38076774566531246,0.4337202059273828,0.48985237667568016,0.5453655602343603,0.6058187157519088,0.6597065393175279,0.681586925121221,0.6692297467924901,0.6560378642110825,0.6520981466867217,0.6501115879625341,0.6624085769352042,0.662982044864886,0.6730600673293079,0.684142207616603,0.70575828367198,0.7241886878118313,0.7217840250546224,0.7116914566370345,0.6981096920849565,0.6505292010238926,0.604193805637222,0.6036044146456185,0.645959230300654,0.6662007169163957,0.6706489178279991,0.6771471002420084,0.6872272313043277,0.7279969271301399,MI
0.26687791053545906,0.275243814710902,0.26439666770388204,0.23310138381051315,0.271460071267863,0.3688382522349736,0.4648582221223707,0.5542032301449522,0.6530358953142184,0.7526459106869647,0.8508686655225408,0.9383887258993711,0.9917073219001238,0.9368065739464781,0.8390730903449861,0.7439612306343677,0.6548153886976178,0.5705085244522423,0.5150446924097931,0.5115036294517488,0.5025885550070681,0.5087005512239595,0.5121813118184559,0.5013946548645531,0.4718136490840288,0.42892371193652545,0.39509020289375707,0.40924616015870097,0.4567716502213899,0.4750627157284435,0.47167280740377615,0.4596072681640613,0.46096964289903264,0.461512280529663,0.46151286033932815,0.46153089437172135,0.46611373543284396,0.4848975462733871,0.470388804625558,0.4495738428433267,0.4619648349572043,0.48552675195192707,0.5000069963879779,0.47471579964302135,0.41904784876019985,0.3531750938664633,0.2756729250123504,0.1978859728249489,0.13259834821604466,0.08262863261412345,0.09579133294232411,0.1404905019676872,0.17652510715542213,0.20740750984305745,0.23076810674376969,0.2559290687860969,0.2666407190730733,0.24759399569328666,0.22398248985239455,0.25464844972737266,0.35102389041010484,0.4473648210567629,0.5364966819672672,0.635217304590109,0.7348290538025921,0.8341503078143244,0.9251174842368286,1.0,0.978860531200874,0.892535302846023,0.8018125216681509,0.7128149391326906,0.6202613576146412,0.541395372720316,0.5029801892381078,0.5008942034238837,0.4808719688617651,0.47618450067348217,0.47420067002867805,0.45476576199079943,0.42182596722992205,0.4000845990718096,0.4143274790416318,0.4529621240388235,0.4747491248777558,0.4737265473302066,0.4750244021187462,0.471386456022985,0.4715081748113783,0.48138312812193185,0.478281718830428,0.4847141069420511,0.486557734203382,0.487123412872434,0.48652260489902277,0.48729612320718774,0.49290527455065414,0.5160367152112819,0.5037637184204775,0.45831654706570824,0.391165090648812,0.3239508071276558,0.25118832767845367,0.17663066880590383,0.10795351846610268,0.07274487542265007,0.10101763246714368,0.15383970710589656,0.189924911877831,0.22082578395367358,0.24566439801432516,0.257361409791216,0.26069926995365655,0.267232785939703,0.3117126581055554,0.4065140304889252,0.5056505433188563,0.5958062975724223,0.6907263918756241,0.7902925899335536,0.8879054606361434,0.9677783292236484,0.9732655293043901,0.8864557294198461,0.7946842094000752,0.7040668821796032,0.6176678543664162,0.5389374993083416,0.5037497210095658,0.48353492339572846,0.45878102429400736,0.4511565025812865,0.4733876963192083,0.5447119014580748,0.5993900718966034,0.5294447935260007,0.4405707598239297,0.3427421663082346,0.27678794312069277,0.2463656897312405,0.16022047524818106,0.06270754469517614,0.003499959631801719,0.0034068135032474522,0.0585679756153783,0.15551779251458075,0.2370069533568624,0.21174816658127282,0.15139258447393145,0.07073756539306775,0.006239289022692329,0.0,0.03889806684009889,0.12797523761781138,0.19220633092601647,0.2170728045900545,0.2128161661960113,0.1942098906101899,0.16267358345368121,0.13033329239819835,0.08384321441296327,0.03228221328304892,0.020278795184415443,0.05363131561992329,0.11177573382950978,0.18396321842489183,0.25851802267507384,0.3313310305594248,0.4043373666095591,0.4556504250392459,0.4598453733816519,0.44294115841390314,0.44099683479914287,0.440992590924528,0.44099259092453424,0.44099252625795016,0.44062286826887487,0.4314600848549608,0.4216460138512681,0.42654977944110994,0.4310439504917243,0.4364743202118002,0.422881336452968,0.38158436762927783,0.35205908835051014,0.3523855175896471,0.38099302078488373,0.4160034915359643,0.42772739291271744,0.4388111229334406,0.44438638804670116,0.4545136556439706,0.4528623127675653,0.49025447012373435,0.5619441096611961,0.6284402838054626,0.576209930566772,0.47726713168924606,0.3797158131587417,0.2910869141806742,0.19522889895876538,0.13489847578595393,0.1549563641849292,0.19877551413178907,0.21643406872652005,0.2074812822513139,0.18273611929763023,0.15789095522090912,0.12267851844214173,0.08240385166405684,0.04346017777507161,0.037803175130942,0.0801000439627888,0.14476829959873383,0.21861569367329503,0.2927401114633712,0.36277071491516155,0.42250384801881813,0.4496312729736398,0.43173859639872036,0.41362315417651585,0.41344836523106343,0.4273459885306492,0.4237907599839943,0.41843810013022553,0.4167856971324042,0.4155794275223843,0.4251610643213435,0.4195890614554951,0.41215609641124296,0.4203862902688891,0.424533481489477,0.3969696429630618,0.3525386818438023,0.3413797367819309,0.3689216333154013,0.4088476264217391,0.4497895210876419,0.4613626089034426,0.46522124531449505,0.4585398627144035,0.4626410415351434,0.4702486310518501,0.4935632389972664,0.5707943924721923,0.6298724951784234,0.5647666413515391,0.4655197227411967,0.37056574535518694,0.2805218845115234,0.19237908458365505,0.17038345147637735,0.20828598973561574,0.22178118261773072,0.22336234802281352,MI
0.6381333321078033,0.6826528041784643,0.7156521107680551,0.7362012710589982,0.7180971659522966,0.6379506850693013,0.5363535303246239,0.5529242323696155,0.6667253176795089,0.7804325547739381,0.9053190754209743,1.0,0.983202401126015,0.9178863743572063,0.875030732284563,0.8914544134205231,0.8864513059275101,0.8445035303526969,0.8612935816718368,0.8570473173782474,0.8492174946529518,0.8515358997553393,0.8504135461889382,0.8380669967610439,0.8238113515356562,0.8226787678068863,0.8226782310175862,0.82267823101758,0.8224471286382995,0.8122518286038862,0.8030612011249261,0.8029663062890968,0.8097404757338551,0.8221723957554739,0.8228814272829124,0.8326339344284195,0.8375614426532603,0.8038010899881587,0.7456161071623977,0.6684092119436422,0.5817118859583523,0.4945432866692787,0.41228940353342614,0.3949525489127188,0.44523966770833523,0.5014618278155369,0.5541180413366846,0.6080627509430241,0.6543741311038529,0.6808379806664506,0.702116444885915,0.699527523106096,0.6496068343492847,0.5515691726881458,0.4802996747216626,0.5651092861102267,0.6786987668594486,0.7834986798870078,0.8760531909420659,0.9615623781133618,0.9375409374559713,0.8704854407049192,0.8465996719922644,0.8692338568361802,0.8432881441375777,0.807190310223092,0.8022528214105558,0.7892939872094873,0.7831713038370545,0.7831536509389525,0.7878525369026197,0.7980720144615989,0.7965472504925328,0.801072236621069,0.7973792019372641,0.8053907138668834,0.8204847916426128,0.8226741959465138,0.8226782310173606,0.8226782941690365,0.8232472210615809,0.8356606708155003,0.829737900034575,0.7824277853550101,0.7155948634936546,0.6372673158405466,0.5488761305374412,0.455012428932704,0.3783017914333997,0.3183536541274048,0.3422512281793515,0.3995013134065748,0.4500516593251005,0.5075951907322267,0.537366277434673,0.5744484645547985,0.6030783266236859,0.6184203889616509,0.5905453805641963,0.5093455712298427,0.4095937415269768,0.406770776087241,0.5161675522471425,0.6365298491263514,0.7483390588012728,0.8409563721215365,0.8201669512149796,0.7533673144051094,0.7160522071700339,0.7025940171792984,0.6737060098568324,0.6426905322704903,0.6381185715237776,0.5929866740126668,0.5139092940767407,0.39298584005297643,0.2702094834881166,0.1999999810457278,0.20848112517062445,0.2869663211297757,0.41116759327720365,0.5261209736660879,0.55603555012619,0.4712762006077629,0.3465535555936694,0.23527336264039578,0.19591931042569888,0.2175103291613576,0.3125334038839851,0.43773957303383026,0.5415099289210938,0.5819964499060761,0.6304768190165868,0.6401303348322802,0.6522847424037761,0.6899102100612629,0.6975238137703395,0.596780701203889,0.4804429780662387,0.35698259885876693,0.24866674538272715,0.1533610663060312,0.040780787392648676,0.0,0.08410767533208796,0.19822398038879507,0.3090892908167282,0.42454147364004013,0.5229979501015007,0.5532195330594938,0.5312146004109368,0.4922142261044318,0.46490490408717156,0.40976803743655665,0.3574579296707667,0.30356108731716347,0.2543097770852505,0.2542306079008312,0.30752120944985295,0.39024429051569953,0.47005049953644695,0.5612842350457727,0.6457238442538751,0.7194466083485374,0.7701272591208683,0.7742673762089471,0.7620324933161955,0.7642915898406906,0.7570644003252784,0.7619543133982742,0.7622975473940969,0.7560042150558419,0.745417432021144,0.7423881521803959,0.7441381839581442,0.7236470708612339,0.7349842120033716,0.7344628037077312,0.728801348776273,0.7354365901393711,0.7391005336256828,0.7483478818081597,0.7423509747707255,0.7746052316637826,0.793252282419354,0.781962155588984,0.8063466910700479,0.8213974958529637,0.7245653602263995,0.5992680003230451,0.47328207262954436,0.3521482409933081,0.24020875378661222,0.1269453909460605,0.07750936817639698,0.15410391979101234,0.2652224679780444,0.3812000921780121,0.4919820511435349,0.5961231624600107,0.6356029200550628,0.6297866387284254,0.6000892959158217,0.5506524317315313,0.4980878093141743,0.4405109324473355,0.38913833273201304,0.33878665457358714,0.32606437106253106,0.37083024429421974,0.4474998989095593,0.5312852572831086,0.617385673831921,0.6984793815455084,0.7610715930173253,0.7839089059947248,0.7752422366667946,0.7629804970799383,0.7555270993032721,0.7554458238430501,0.7554458238430559,0.7554471570034651,0.7569766260092021,0.771481482375266,0.7675183211730334,0.7690359043724619,0.7751678526683223,0.7754920410914306,0.7860441499165973,0.7948664119682971,0.7949940986713213,0.7942010902213981,0.7735553285561427,0.7760544222007351,0.8210157990299458,0.8143715572870871,0.813896199586472,0.8437341118735531,0.8586365925152148,0.7634768071371991,0.6469702353948987,0.532225054225786,0.4072989939343685,0.2946039437988568,0.17529486752240242,0.09809707191579875,0.15831574602357845,0.26796841024095386,0.3830351088592341,0.4936185813327971,0.6018063523138375,0.6666135649064233,0.656478890206619,0.6175355728366845,0.5704959040840119,MI
0.23835489789130881,0.23009356768197264,0.2125659763422223,0.22702997174159356,0.27615486750894824,0.3292237726563294,0.3757748068483868,0.39912401868220093,0.3813666740126793,0.3608148914165419,0.3815054881323494,0.45273367886080873,0.535617129737509,0.6203015419504359,0.700727333406552,0.7819179839712549,0.8617225573038485,0.939514374133646,0.9656790140836133,0.9029242701439997,0.8239617015097942,0.741709689225484,0.6590720713242129,0.5796292471193261,0.4951971429544768,0.41052072230306136,0.3302271972147044,0.24861330873562681,0.16384193323053386,0.08873597395184696,0.09727142840760372,0.15127045798016003,0.16915893573736884,0.17912353126259983,0.2000693074487292,0.21803389204549162,0.2209353078390981,0.2302173817229285,0.2189019233767271,0.19306699687994722,0.18033246800991076,0.2034354726889842,0.24207677317935405,0.2940260145405349,0.3411496860968293,0.3583785462334752,0.33812785844431126,0.34681284652268984,0.40809292171225464,0.4824848131466386,0.561483220667073,0.6409180723933652,0.7230826671058603,0.8025742962065499,0.8847495658143143,0.962685278308381,0.9999999999999998,0.9400474265240539,0.8613953359092206,0.7783061173996406,0.6941865198705637,0.6178696154346939,0.5493954987928427,0.4814510717288687,0.41007654330945287,0.33222635185227856,0.24896984416194545,0.16672593987694717,0.11953522501112057,0.16426419412029136,0.2009389458142783,0.20569512543411284,0.2020104550345565,0.23271212661835294,0.25265038900374615,0.25835919063994295,0.2489260041129211,0.23831558262645958,0.21772657470151024,0.23691449265246933,0.28348699663689136,0.3341172545367914,0.36741303042474827,0.3674893074450285,0.3574168735628096,0.39199846340170463,0.46004543325744773,0.5372754633700738,0.616171129450114,0.689286754947863,0.7621284317686845,0.8429566836504734,0.9234229629535771,0.9986992001209762,0.9912241573908454,0.9180871428740238,0.8350758966797278,0.7532817066703856,0.6731555600886863,0.5885793748634673,0.5070620022493715,0.4266803516640587,0.34203910655107217,0.2601831939369461,0.18100372035031942,0.136573260575803,0.18782341028267058,0.22416250367135437,0.2165623812805717,0.2078181136683117,0.22691411194192113,0.23937476963210647,0.2540681328327672,0.26564605442428446,0.26192260373320186,0.2566294296328835,0.2333760720444784,0.2507701364385513,0.2913399359255431,0.33537256286137285,0.35436291222008554,0.33634403452757655,0.31138540973141593,0.33138249858778646,0.3942678788632421,0.4709966423445162,0.5497559262777234,0.6319024988705855,0.7120530821560496,0.7935820615457019,0.8736654879036645,0.9495828447703645,0.9691904900912307,0.9010985795785269,0.8331210334173462,0.7691018712847106,0.6856984382340803,0.6008384003024849,0.5176655003575499,0.4404971237755577,0.3657199554782167,0.3042054566085455,0.2688123243842584,0.27539056977103304,0.3040811792811453,0.3114175932214469,0.2755083220091299,0.22590763571437944,0.1916382455865442,0.2057742959073705,0.22206511204887658,0.23361123057391642,0.2185661316506795,0.21275795698861932,0.20762497465974694,0.19109537006438782,0.16251906045219666,0.17141578910450428,0.17791133825964,0.1322351038809355,0.07150725580663342,0.04612146236878312,0.10632616142332374,0.18524437785166126,0.2678364744252153,0.3526653029018916,0.43532106955497696,0.514772231157308,0.599200766620569,0.6803245957185868,0.6962286402216422,0.6268195926888596,0.5440685766115818,0.4628947311006657,0.3903595290394961,0.3406219382500906,0.32102295167245676,0.33360347251297195,0.32582009526983047,0.28016087248158894,0.22989728032601042,0.18963014384191168,0.1841409258493334,0.20183706200942142,0.21884312795686722,0.22159593639657005,0.22033342763874209,0.19334200890274356,0.16611434702510497,0.17041004874085552,0.16483592347082343,0.11200323535202683,0.053111264707538686,0.04065532147471962,0.1056298147627992,0.18752040121547453,0.27183566011202465,0.35114526609959795,0.43401862776126765,0.5186090016276208,0.5985714741241048,0.6805684045740046,0.7630453097594119,0.7837501121591173,0.7116818184858764,0.6322352439275243,0.5478435139789368,0.46631791382521204,0.3928026037663792,0.3286552284894204,0.301057516599609,0.3150222930123878,0.3136466316548925,0.2712153389958125,0.21722700871442968,0.17073064855993136,0.1467926037854388,0.1459397120028274,0.17093049072736832,0.17995614220654765,0.18164717381314377,0.1740527225561601,0.15733791611330838,0.1321140915065515,0.13570709879317966,0.11429981137760992,0.05406032379960024,0.0,0.00019146988023632794,0.07105391163398078,0.15509511129930997,0.23556821714874943,0.31698926510491887,0.40178724235077,0.48656169410899475,0.5676773068617653,0.6484320422898964,0.7274307174750192,0.7251154636178214,0.6506278197984876,0.5680789437268907,0.4884889383838884,0.41046034483862326,0.33876478869382454,0.3071779260387313,0.33163930487093607,0.3525908616218145,0.3515307791885969,0.32352124520614933,0.27007772559775733,0.21533629671886656,0.17468162766368422,0.1800442135753999,0.19829755652700776,0.20730559342202715,MI
0.25700578407917885,0.1877778543637545,0.17224601206784662,0.2420869702415107,0.3477269465635553,0.4761450848947266,0.5968516896611327,0.7010102004879633,0.793846902193498,0.8908495576034801,0.9558248089716033,0.986722869956842,1.0,0.9420934131192125,0.8823959215320043,0.8151362605399903,0.765895783878995,0.7226345364548763,0.6709031443859317,0.6774638960753832,0.8059466154442223,0.9270888871105365,0.8679220928178211,0.7125533963617645,0.5371242875271047,0.375434328597688,0.2943143020306236,0.3376952154431656,0.35376862244175555,0.38490093302839945,0.4322414784184412,0.4998394886609212,0.4423716066184191,0.31809008180287,0.259480407283168,0.2894439659794248,0.33722475862842316,0.3425836743491768,0.34270032921975435,0.35569987726303776,0.38978293128217434,0.40137692696238414,0.4366594392167258,0.4231428321870174,0.4380755984027127,0.4049543330528902,0.40961580704675793,0.38474790870120223,0.3742253379965579,0.34660799608988047,0.3425990433574899,0.3425927010350396,0.3405059892981459,0.31278910535701154,0.2677511096296854,0.20080454006965898,0.17012387673200102,0.2412004673542807,0.36476271223062273,0.4816121200861083,0.5998833822339709,0.6931199863117872,0.8036410650581738,0.9079985851533383,0.9679823375577135,0.9574430008482127,0.9119204028986454,0.8640990649739884,0.7789360322517522,0.7209059023783793,0.6971027897871886,0.6485673748771879,0.6140628205780541,0.6227145363204833,0.7146557162092986,0.8717505642600178,0.9668296839927457,0.8976848307781227,0.7386450757799032,0.5596592758177081,0.39534676792483747,0.26350125780509526,0.29875964541804656,0.3114657893731021,0.34197498035138896,0.39441346807444155,0.4386556079765622,0.3809991788323659,0.2876238030509217,0.3010908069253082,0.3405803594400849,0.3633819783049175,0.3444353562086926,0.35957209806290535,0.406262220205754,0.41404250409168597,0.40534838049162314,0.4059810033401732,0.38694151629460105,0.36941651372587714,0.3778168573642411,0.37816287678505045,0.36276513897747,0.34302429291894754,0.3387032095618663,0.3126143302763982,0.33249935592725866,0.32736586659556277,0.3161089404526223,0.2684300689011776,0.2064875225874765,0.14909103275402913,0.1762486567347974,0.27264639275069147,0.37712234928612975,0.49966546478854745,0.632555315407477,0.7321433160635094,0.8320245326871012,0.906101850103199,0.939123768824432,0.9137039380055034,0.849806558518118,0.8028896789636759,0.740551331940031,0.6927536956778582,0.6586105799809685,0.6059794314461984,0.5637620156944028,0.47964148489995395,0.4933540153834217,0.5397453525544744,0.5871546753914672,0.6351138486291408,0.6900681742535388,0.7499096371228697,0.8035576945796024,0.8148741756278124,0.7373040152400909,0.6424428239965012,0.5377852184151708,0.41613800209695384,0.28912613033045087,0.17234215608462566,0.07758360840625134,0.01512231750312143,0.042043275879597,0.09860334461961617,0.15412008340798877,0.2006278046390939,0.21807732265915636,0.1960104697884857,0.21731166044677952,0.22146172232768713,0.24112803341370004,0.256591455331062,0.25651108094022934,0.24158998381012786,0.260184369245418,0.2717530166682405,0.29144762922192324,0.292495167472719,0.2843441463082952,0.24915627698106846,0.23632788691101503,0.2387983415584598,0.24090662233377547,0.20435201475205744,0.17852952523181642,0.17264860557691186,0.2597312863548451,0.2999058255001339,0.24522976423352372,0.22068309437674305,0.19367211167592124,0.137595942114201,0.08785519816959741,0.1683818604371119,0.3302305104806793,0.45676695614414875,0.42287337661792,0.46695110145352015,0.5083214796118964,0.5467091948575993,0.5628853540666583,0.5964665017206423,0.6513310868584963,0.7246867090121896,0.7893650844482236,0.8324711981435264,0.8391398150200073,0.7939192369808987,0.6888088591440908,0.5828819979815192,0.4705835861792709,0.3530970970567484,0.23337130856550825,0.13092816185898393,0.03397630042743227,0.0,0.0627199279877999,0.12633208745370883,0.1944238394803124,0.2206186343898935,0.22500959530512077,0.23316581934058256,0.23418374316475266,0.22822911232335663,0.26088476697459306,0.26528605462764077,0.28235186257698786,0.2945774577205613,0.31928133033873607,0.30714299950648893,0.30652861353628236,0.26643225955203587,0.24694880109453266,0.22231691139410792,0.2209598903126766,0.21285795092226145,0.19835691266180255,0.14366193183579057,0.13169349524555773,0.17374313729440427,0.2845273395001806,0.3030432420797604,0.2609832506134966,0.2566450543492449,0.23902671486533844,0.15684768127888393,0.09142308721651915,0.163342715598632,0.3190861521252035,0.45585031106895535,0.42327430904553154,0.4775168499497511,0.552353361807679,0.5990468064098957,0.6377039639795505,0.6865827791873009,0.7542711419622519,0.8040814540349492,0.8576914869105332,0.8762849872349365,0.8157192798765847,0.747484745263546,0.6449784501725029,0.5312878705007842,0.4150386095349967,0.294346998817411,0.1953319273698888,0.08724215987949258,0.04459650361754619,0.06566062692033015,0.12262558732920503,MI
0.4276303632008833,0.43204546004744104,0.4732601943028074,0.49827297029862505,0.4993410172694124,0.5094829048145164,0.5257286145573481,0.5633973333429463,0.657621267587801,0.7751857017174881,0.8871248118320652,0.895158782309526,0.79940211794854,0.6781752807761978,0.6092989047960575,0.5616897640904752,0.5580020718318872,0.5392194116148885,0.4773247137185286,0.42049773568195414,0.4541999996536856,0.5083974359862675,0.5271685710001948,0.5353013618451263,0.5101010971144198,0.4509789572340419,0.40728887749239817,0.43421998182046107,0.46965280383115404,0.48857857502351676,0.5096496047073886,0.5254824425679354,0.5476225151487659,0.5991160773267827,0.6996897152997801,0.8065890645047493,0.9224373911201775,1.0,0.9350267732387763,0.8082340496839708,0.6981092972498377,0.6145173986264694,0.5798813187180731,0.6093441798356798,0.5848421298068662,0.5276406350820437,0.4743711467924445,0.5116525590705612,0.5571331402413473,0.5613989998047333,0.55190050330499,0.5226543777578065,0.46145899241126775,0.4257653016443568,0.4573813776128226,0.50322670283435,0.5324463578961711,0.5562760928521073,0.5679679914828517,0.6100794786612846,0.6973778958151011,0.8125759034537907,0.9035525590663895,0.8574582614419333,0.7418352890433231,0.6240662877160319,0.5916923936632106,0.5866133527048114,0.5731646283230334,0.5166810849892856,0.4520136113094191,0.48032066220864733,0.5433831131817146,0.5656447849001012,0.5759668175936281,0.5610364814074691,0.5131046271756636,0.4624150593248011,0.44796736252942315,0.4896524006534855,0.5311630246322396,0.5445895289400631,0.5664835037777673,0.5976003857827825,0.6798327939862405,0.7844762435980495,0.8376681348499724,0.7719425778432663,0.6659158114033477,0.5960232292919843,0.5781776612736982,0.5679011450691878,0.5211574236468084,0.45931670146732007,0.483632216759847,0.5480373185637526,0.5747249748650147,0.5688401288679024,0.5553848182569925,0.5107213860861068,0.4679437585345352,0.49570430182852787,0.5421205375676199,0.5671331698564002,0.5907255757210934,0.6067311014487062,0.6563391831571086,0.7519486201298196,0.8647602935784162,0.9250962037150945,0.8533122193947351,0.7324473116312431,0.6371618953441627,0.5875799688742349,0.5957746123486296,0.5825495512616019,0.5261862387535094,0.45952724677871304,0.4643780138088056,0.525070689029695,0.5577971484309887,0.5575680800103844,0.5052580334259322,0.42717054327138326,0.41058104643878757,0.35680037431962885,0.24901808617431964,0.11799877250694024,0.012220644145650272,0.005795964609647708,0.09982232476772523,0.22455660632756125,0.28267872688806595,0.2104214388969008,0.0812481371468845,0.0,0.0002949712663049553,0.08241934611168844,0.21271419162076333,0.31964426816038616,0.37508306763337096,0.437000214759387,0.4707474611105531,0.4610049474555544,0.44836639798330635,0.3717264260099218,0.4123887579798562,0.5330889095387508,0.5899071998435996,0.5129127649958614,0.46671909822346525,0.4453384540025356,0.4306135964688629,0.3990860006886172,0.3512785108407077,0.31226906966256385,0.3318160226687459,0.3876249886200025,0.4304281081683903,0.44044356246680794,0.4304735517414735,0.38354484045385284,0.31174366036162393,0.2818178520386385,0.35523354360084447,0.425515314005803,0.45732145689350956,0.4333798796834909,0.38334886588438444,0.41103162439701313,0.5223514305274644,0.6436859614884951,0.652253143317711,0.5481757226551291,0.47422327665779784,0.42371616793336786,0.4027922825756103,0.39144837244258657,0.3766304398786273,0.33641150174789347,0.3082535371334547,0.32304570571353475,0.3815194772726853,0.4206030713166746,0.4276104250952728,0.4024554779664604,0.3482366759752633,0.3093897207623666,0.36475221720893725,0.4218794318975503,0.45163933593189753,0.4245526606461394,0.4517841163158036,0.44736513814739043,0.5336199811840698,0.6377637584908116,0.607687130882328,0.5247116880125988,0.4411728803526076,0.41163642389154775,0.39751034072845304,0.4037279986204223,0.380885418903409,0.3446508218583606,0.305828656941197,0.29104740262175355,0.3360495953217648,0.3860571404681825,0.4174186010349725,0.4303058515704481,0.4059401648526868,0.35069550116570936,0.343087353583837,0.40374986277653546,0.4632455767924286,0.4761078959625089,0.4680794015787271,0.42350141844415035,0.48728279843255073,0.6015968765289035,0.584203337648574,0.4832261730985614,0.4233702763671743,0.3919605279745735,0.3713104558717144,0.35517105076998323,0.33386420039083076,0.29146673636059184,0.27098279906660405,0.31133470220875337,0.3636301347029778,0.3870684612255175,0.3908069476399447,0.35951305316386684,0.2905114907525852,0.28232201388717515,0.35703264930750533,0.4147104761585707,0.4429890071570233,0.41360813112228056,0.41001989231476266,0.4533079034720835,0.563537213111319,0.6848416557943304,0.681720772594149,0.5685480833150569,0.46791550111233615,0.39757503037299813,0.3731189688480341,0.3677571454591364,0.3631418151179009,0.3566411258286779,0.3238032275293041,0.294442823643708,0.30242033403682145,MI
0.6560135501772795,0.6474682274433072,0.6694570105765174,0.6887729887127052,0.7007024020835537,0.7098866474554195,0.7278764839069716,0.7340955370788049,0.756300504690878,0.7969725397221388,0.8545636576572595,0.8896323020365484,0.8778410213576184,0.7987461019817017,0.7021669588919774,0.5939255537899033,0.48090984548883053,0.378728939198393,0.26405121861449343,0.16389059302178177,0.10636444495489172,0.1223085031188269,0.1593956151407756,0.20158438431393222,0.23903753877265954,0.2626992588195569,0.27961855882243114,0.30383869211687253,0.32933987162104517,0.3301534232599632,0.2706031064475565,0.1976238506498782,0.23460138682952625,0.3379297499209315,0.44680721120176115,0.5542141191263501,0.6597590231472652,0.7456111822993545,0.7302445954342387,0.6364301827084833,0.5421715222709902,0.47312766377721527,0.4834719122227078,0.49829497910143505,0.5042244784563623,0.5047225659944545,0.4969540554176035,0.505519930783433,0.5351042732216018,0.547073820426959,0.5507638044363521,0.5477451612984172,0.535976676630344,0.5206284832759747,0.508896882769716,0.4978143530040873,0.4682602248579446,0.40966288885063973,0.34684926553334794,0.29333752281787273,0.29438668298660975,0.33383302492330946,0.3826335005420147,0.43367971958756435,0.4818860951293753,0.5289026296965327,0.5754981124114575,0.6149172288562332,0.6573339357163399,0.6707704797593066,0.6513534352560844,0.5789531238458525,0.5592938870940047,0.6474800781012053,0.7604637915467936,0.8626091026025287,0.9651570424769513,1.0,0.926869125245875,0.8309142999133803,0.7703674946069525,0.7537352452287824,0.7379206777041705,0.7397136085887239,0.7264314628398294,0.7022407804449804,0.701655861832108,0.7169003591359897,0.7100727781447391,0.6979109538575887,0.6489720568031854,0.6195706959252547,0.6115075269668657,0.5949311261735,0.5838396311007923,0.5613329490805414,0.5144489193666004,0.44401101937952214,0.37360954713806116,0.3101628281874844,0.29843057522634586,0.3307693614223477,0.3759940345193806,0.41541652436993104,0.4487772691390335,0.46064368635085895,0.464999609145222,0.48489519175523776,0.4823951225710412,0.4321966473561063,0.3570260492738129,0.4043398565791967,0.5150644679947982,0.6172321281098911,0.7285813988708849,0.8234059511489682,0.847193629164773,0.7757238318941004,0.6840347264824405,0.6621941392586268,0.6533314256194469,0.6405918529245174,0.6310911341741972,0.6121533624834679,0.590017252544746,0.6116004805497322,0.6301867474269534,0.6091657202756244,0.5577871138730073,0.5349314363729971,0.533051049936442,0.5199882161064235,0.5350645484089109,0.5492153394109054,0.5722715985512656,0.5836672246351853,0.570741101716941,0.5917025043199744,0.6499149937523852,0.5987906118687536,0.4955174422688349,0.38604511144253983,0.27933902000259225,0.18272988184136407,0.1458197420370566,0.2115261755561879,0.3068921453723106,0.38325468508698757,0.40500928902101263,0.3865165228040568,0.387829125543639,0.39042592606982707,0.3564309427224619,0.3174645685508888,0.27362363828334324,0.23370518177914512,0.20838756681798243,0.22938947246671626,0.28444162891773095,0.35259435543377693,0.42709121907343484,0.4733084269670589,0.49308863552595383,0.5088242750060425,0.5212544851629688,0.5373416548595586,0.5853542887261285,0.6217886377285731,0.627484924661533,0.6222122309539921,0.6110463107901101,0.628400817950991,0.6434038076327981,0.6472534302110544,0.669074267617062,0.6869691618662173,0.6949951622954358,0.7437174162292552,0.7711506238645627,0.6677506741323129,0.5562764453043605,0.4547275202788863,0.36551760251238186,0.3614175443205214,0.4433099817948216,0.5302620534511298,0.5809329778917895,0.569285485474051,0.5290969614652625,0.48916464249463587,0.4525894074438326,0.3987598114744766,0.345520204068158,0.29556380290112916,0.2514888487931217,0.2134282421698117,0.1948588305307064,0.2244701316379496,0.2777227844655643,0.34025185322610785,0.3992586734981418,0.42022694967118435,0.43331499988107547,0.43993404192080865,0.45180921569593435,0.4459232568012843,0.46132002921907755,0.4554400105144696,0.4250771806993563,0.42507228745624337,0.4272728440447744,0.42814019933090064,0.4227541473984302,0.4168802739715298,0.402856912357489,0.4287382379115052,0.4834315634016755,0.4311999706460865,0.31707635185186955,0.21398022351874246,0.10618181251351633,0.014590705353077826,0.0,0.078538555943517,0.173078476726912,0.24088985434976884,0.2405356067008979,0.21147927805924605,0.19848544861643536,0.17227985297179327,0.13688603827519286,0.10364605720833486,0.07638127323762545,0.04129914963351888,0.03393220791608176,0.06727075560122708,0.14221319588213666,0.24637597652774312,0.362642935272782,0.47914341257726134,0.5915716999255065,0.6936254196122582,0.7854389821878724,0.7909715168085718,0.743012637354195,0.686559418511191,0.6602293927616993,0.6363225096678433,0.6369231258309993,0.6222901074507794,0.606958708784469,0.5978029732400314,0.5752593253867109,0.5576545660397882,0.583521867446005,MI
0.23835489789130881,0.23009356768197264,0.2125659763422223,0.22702997174159356,0.27615486750894824,0.3292237726563294,0.3757748068483868,0.39912401868220093,0.3813666740126793,0.3608148914165419,0.3815054881323494,0.45273367886080873,0.535617129737509,0.6203015419504359,0.700727333406552,0.7819179839712549,0.8617225573038485,0.939514374133646,0.9656790140836133,0.9029242701439997,0.8239617015097942,0.741709689225484,0.6590720713242129,0.5796292471193261,0.4951971429544768,0.41052072230306136,0.3302271972147044,0.24861330873562681,0.16384193323053386,0.08873597395184696,0.09727142840760372,0.15127045798016003,0.16915893573736884,0.17912353126259983,0.2000693074487292,0.21803389204549162,0.2209353078390981,0.2302173817229285,0.2189019233767271,0.19306699687994722,0.18033246800991076,0.2034354726889842,0.24207677317935405,0.2940260145405349,0.3411496860968293,0.3583785462334752,0.33812785844431126,0.34681284652268984,0.40809292171225464,0.4824848131466386,0.561483220667073,0.6409180723933652,0.7230826671058603,0.8025742962065499,0.8847495658143143,0.962685278308381,0.9999999999999998,0.9400474265240539,0.8613953359092206,0.7783061173996406,0.6941865198705637,0.6178696154346939,0.5493954987928427,0.4814510717288687,0.41007654330945287,0.33222635185227856,0.24896984416194545,0.16672593987694717,0.11953522501112057,0.16426419412029136,0.2009389458142783,0.20569512543411284,0.2020104550345565,0.23271212661835294,0.25265038900374615,0.25835919063994295,0.2489260041129211,0.23831558262645958,0.21772657470151024,0.23691449265246933,0.28348699663689136,0.3341172545367914,0.36741303042474827,0.3674893074450285,0.3574168735628096,0.39199846340170463,0.46004543325744773,0.5372754633700738,0.616171129450114,0.689286754947863,0.7621284317686845,0.8429566836504734,0.9234229629535771,0.9986992001209762,0.9912241573908454,0.9180871428740238,0.8350758966797278,0.7532817066703856,0.6731555600886863,0.5885793748634673,0.5070620022493715,0.4266803516640587,0.34203910655107217,0.2601831939369461,0.18100372035031942,0.136573260575803,0.18782341028267058,0.22416250367135437,0.2165623812805717,0.2078181136683117,0.22691411194192113,0.23937476963210647,0.2540681328327672,0.26564605442428446,0.26192260373320186,0.2566294296328835,0.2333760720444784,0.2507701364385513,0.2913399359255431,0.33537256286137285,0.35436291222008554,0.33634403452757655,0.31138540973141593,0.33138249858778646,0.3942678788632421,0.4709966423445162,0.5497559262777234,0.6319024988705855,0.7120530821560496,0.7935820615457019,0.8736654879036645,0.9495828447703645,0.9691904900912307,0.9010985795785269,0.8331210334173462,0.7691018712847106,0.6856984382340803,0.6008384003024849,0.5176655003575499,0.4404971237755577,0.3657199554782167,0.3042054566085455,0.2688123243842584,0.27539056977103304,0.3040811792811453,0.3114175932214469,0.2755083220091299,0.22590763571437944,0.1916382455865442,0.2057742959073705,0.22206511204887658,0.23361123057391642,0.2185661316506795,0.21275795698861932,0.20762497465974694,0.19109537006438782,0.16251906045219666,0.17141578910450428,0.17791133825964,0.1322351038809355,0.07150725580663342,0.04612146236878312,0.10632616142332374,0.18524437785166126,0.2678364744252153,0.3526653029018916,0.43532106955497696,0.514772231157308,0.599200766620569,0.6803245957185868,0.6962286402216422,0.6268195926888596,0.5440685766115818,0.4628947311006657,0.3903595290394961,0.3406219382500906,0.32102295167245676,0.33360347251297195,0.32582009526983047,0.28016087248158894,0.22989728032601042,0.18963014384191168,0.1841409258493334,0.20183706200942142,0.21884312795686722,0.22159593639657005,0.22033342763874209,0.19334200890274356,0.16611434702510497,0.17041004874085552,0.16483592347082343,0.11200323535202683,0.053111264707538686,0.04065532147471962,0.1056298147627992,0.18752040121547453,0.27183566011202465,0.35114526609959795,0.43401862776126765,0.5186090016276208,0.5985714741241048,0.6805684045740046,0.7630453097594119,0.7837501121591173,0.7116818184858764,0.6322352439275243,0.5478435139789368,0.46631791382521204,0.3928026037663792,0.3286552284894204,0.301057516599609,0.3150222930123878,0.3136466316548925,0.2712153389958125,0.21722700871442968,0.17073064855993136,0.1467926037854388,0.1459397120028274,0.17093049072736832,0.17995614220654765,0.18164717381314377,0.1740527225561601,0.15733791611330838,0.1321140915065515,0.13570709879317966,0.11429981137760992,0.05406032379960024,0.0,0.00019146988023632794,0.07105391163398078,0.15509511129930997,0.23556821714874943,0.31698926510491887,0.40178724235077,0.48656169410899475,0.5676773068617653,0.6484320422898964,0.7274307174750192,0.7251154636178214,0.6506278197984876,0.5680789437268907,0.4884889383838884,0.41046034483862326,0.33876478869382454,0.3071779260387313,0.33163930487093607,0.3525908616218145,0.3515307791885969,0.32352124520614933,0.27007772559775733,0.21533629671886656,0.17468162766368422,0.1800442135753999,0.19829755652700776,0.20730559342202715,MI
0.8198604555530553,0.7768171543476485,0.7576836737489063,0.7728833333031748,0.799086854199148,0.7847549271819407,0.7809941343422209,0.7657246416336319,0.7729183536495305,0.778919305842775,0.7857548312449889,0.7948329645103491,0.8097556350152562,0.7930561655100872,0.7852220810713442,0.7585654975055054,0.7344617001765521,0.7014950762555789,0.6566420914379665,0.6124289991762726,0.6266780497293729,0.6866813835059238,0.7557389268869403,0.8227645750759123,0.8842182613040432,0.9431708563066168,0.9806086606707536,0.9885918025501146,1.0000000000000002,0.9918527352002007,0.9488441488470982,0.8787403238733302,0.7929672338328142,0.701731224481595,0.6159422443416382,0.5178180165942285,0.4300289958143344,0.42498219076105337,0.5123424123072582,0.6062875139553479,0.7018944329293093,0.7974123563705697,0.8789135526168763,0.8854794333023122,0.8617695481785816,0.8413686964485263,0.861354871087719,0.8674267315325832,0.8388973096945056,0.82416949143021,0.8218788723815493,0.828707155966266,0.8233893932798433,0.8217823298058258,0.8274986896910119,0.8304568815959918,0.8152434426053874,0.793990305276685,0.770109138741865,0.7361368725453141,0.697563292032015,0.6554381084115695,0.6464227661973327,0.6992495040408218,0.7671573336461222,0.8346879910237781,0.8954999089996203,0.9473277098755675,0.9677889854979471,0.9683497995238228,0.9673355735043481,0.9467273958914821,0.8840040049926638,0.8050350522617842,0.7173289671158891,0.6242397453178354,0.5243205869100847,0.43084393879042016,0.3554510126970334,0.39124932181802463,0.48584668606960535,0.5838994086834528,0.6778526214703164,0.7722701825991882,0.8383853915296735,0.817927582823087,0.7791748106435803,0.7663005506038039,0.7700203567039374,0.7961625124725338,0.7672740234761657,0.7504708889100902,0.7559812635268324,0.7482165875223672,0.7486833251863139,0.7547506414311893,0.7700228342461368,0.7727025732285207,0.7701208397986747,0.7572370799151444,0.7353805939955287,0.7056851003944884,0.6675833458815112,0.6265737516294736,0.6036114741885263,0.6500667603364023,0.7151105720730995,0.7815283125558141,0.8478771306527733,0.9103896532152349,0.9454180158315404,0.9550517710991191,0.9667141079233577,0.953942985282193,0.9183620071140075,0.8519958122886144,0.7656347612573027,0.6765654252468527,0.6096435132698763,0.5188732424322018,0.4143268066200252,0.33821435105516096,0.25815694347016405,0.20919896652310377,0.25670120445432354,0.3164392273692205,0.36789348676076483,0.45926148584805415,0.5569259831949716,0.6511113272569327,0.745967558213257,0.8299469530060104,0.8921276993778304,0.9117665643220734,0.9059463405391959,0.886325169539963,0.8463248547361688,0.7767248898049204,0.7093564919721158,0.6449205612669304,0.5846275811102013,0.5441874601186727,0.5587686188831975,0.601944180713492,0.6403795183351588,0.6705041398578035,0.6916461382641328,0.7157332216243588,0.730861937306426,0.7226975408346823,0.712068283277189,0.7002369240132846,0.6958885655672098,0.7052662296546275,0.7030145182274812,0.6984653863479091,0.7214419328748731,0.7111298805105724,0.7140978550053914,0.7281458695233234,0.7327753500751395,0.6547824431477236,0.5613144692997236,0.4604122667493391,0.36745559507827763,0.2753704927744758,0.18371971984249735,0.08311741791890737,0.0,0.01292896425711132,0.09973071462378358,0.18546938236483101,0.2601022858917774,0.33241282225563107,0.4153489440308611,0.5137226452114596,0.6088903994018942,0.7064677213164858,0.7992213618604092,0.8775174073619578,0.9111278816907291,0.9214090859752597,0.9260731094391634,0.8961396045058942,0.8400918838072406,0.7791114233396443,0.7118675278188096,0.6415866513642821,0.5979560085228111,0.5966398565367343,0.6324813763405148,0.6725108895594476,0.7103933204426716,0.7370063715374002,0.7625997948406995,0.7792676363701678,0.7807410117886604,0.7684934500197602,0.7698199780879065,0.7749658719751336,0.7803092905286626,0.7825528671637703,0.7889801608916167,0.8013033449796729,0.7884009665580936,0.8001973073894721,0.8227006473472549,0.7960294588925032,0.699223209218202,0.6054286328294325,0.5086687816674351,0.4152604356903542,0.32248912428674825,0.22928325113030357,0.12796239416007826,0.07732707248343673,0.14302130013827763,0.23586685955962117,0.31660812548087347,0.39972011765585136,0.4897844176413393,0.5915904068135094,0.6858565332428619,0.7830421383879875,0.8668506861729768,0.9320367974996178,0.9574169420303578,0.9420440168430082,0.9206823772652781,0.8885939770955098,0.8286190342578845,0.7632994170442073,0.6921307982447786,0.6277386559830715,0.5718754335829053,0.5460801416364942,0.5755501989385683,0.6238079687850038,0.6653504808816455,0.6940788674653018,0.7196752149378589,0.7373859076520357,0.7528806809907651,0.7471007941025498,0.743244728656532,0.7349256686543184,0.7307278560865618,0.7186772599664095,0.7228051453610942,0.7356609257826829,0.732873732691014,0.7080720012208082,0.7063678172400303,0.7184348552234037,0.7135863877951081,MI
0.4341857459128542,0.49292289107926046,0.5597947140197814,0.6356415173075971,0.725413856558079,0.8170522856855504,0.9041769848786385,0.9413236009026111,0.8758491259257053,0.7774038295745183,0.7048682123423651,0.6762125951145024,0.664940537305369,0.662139705690042,0.6417018963384897,0.610257528708052,0.5972196883580445,0.6069557942158201,0.6451731140391834,0.6588869536207691,0.6549234765712113,0.6611497193473823,0.6590941799058496,0.6557221437596754,0.6321982991904329,0.6024175613714953,0.5687020708644532,0.5131116491241701,0.4480385353617897,0.38019769094097033,0.31165534493312985,0.23922299846549921,0.1743358218283657,0.11883653725801868,0.09988441356255207,0.14589840505821705,0.20606909222747238,0.27256364430815894,0.33559565520709245,0.3871154091455702,0.44295920163505786,0.5158474991621158,0.5910358309353334,0.6639392719087576,0.7447364250346837,0.8353771797910288,0.924906890235327,1.0000000000000002,0.9869344300475216,0.9001743122410757,0.8094601208083712,0.7181976554876088,0.6661327866315758,0.6629114323664769,0.6571526820315359,0.6506956078537092,0.6202267209652896,0.5863278668069525,0.6001300482580365,0.6586241133345438,0.6802063259297462,0.6677548778218652,0.6523357205315066,0.6272409590881074,0.5979792931728409,0.5431254489065174,0.4833469175607712,0.4206569972074792,0.35369837604419163,0.2834107908953565,0.21620843583924287,0.15279233854655838,0.11529934214560433,0.14416716997639956,0.20347726645366482,0.26789482304035794,0.3294230994536089,0.38480543692670977,0.43842001563899413,0.5075427769311822,0.57558426797428,0.6488321648734721,0.7345229793611956,0.8182334097650827,0.8589859667272284,0.8027932810225955,0.7276828131355673,0.6479199548315722,0.6384895175161074,0.6494268579626155,0.6421837998017448,0.6437344457479026,0.6127935967329179,0.5760711705926538,0.5660081109128339,0.6046664359721767,0.6345703585117255,0.6346929815741842,0.6388395000355567,0.6257732603972117,0.6017612198403348,0.5718414198616346,0.53916142137531,0.48216146636367063,0.4148522381708506,0.3526016967733139,0.2848742803669324,0.21319506482999961,0.14090030658391028,0.07851352187298644,0.04919098400061972,0.09653052146197649,0.15551032651207053,0.21732896529060763,0.2810087582448342,0.33910916266930946,0.3934273674651736,0.4509289559194498,0.5185999305500915,0.5863309085172739,0.6628705254022929,0.7391565951427272,0.8198352874277461,0.8209693206935091,0.7359755364283542,0.6558754345667765,0.6357776277793643,0.6342185621800327,0.6268514372814875,0.6009895733067523,0.565705833678334,0.5599950591062048,0.5423174713112615,0.49760879928815993,0.5038721386055964,0.5509545287830593,0.5760901835453323,0.5824493787172236,0.5730586162726474,0.5474678913367261,0.5409404463317007,0.6130239810608804,0.5899060439339883,0.5188278731973883,0.4575136999937153,0.3926182878946143,0.33245764562417235,0.2817431261263954,0.2202070271229173,0.15500127714184875,0.0926618631520193,0.03343802244558769,0.0,0.013816171938372923,0.06982040647764842,0.13902771141748071,0.20771504237534288,0.2761277937099831,0.3424966196324124,0.4113967902017064,0.4768470196797201,0.5205974078729827,0.5513040538807228,0.5754276215429319,0.5830617720529492,0.5806130159265435,0.5833956555649882,0.5625933401551906,0.5201071761764255,0.49822073935582956,0.5197466741478396,0.5595621190639941,0.5905257486862385,0.5871456695450263,0.579496589207608,0.5362875378962657,0.4752787289330198,0.49720343997129013,0.5882085138818407,0.6163420666215982,0.5522824890557867,0.4856133440067001,0.42176322493094376,0.36235146260180096,0.3067332002016354,0.24629293385645679,0.18337944514986515,0.11693146171146207,0.06779374758511336,0.06449629327698991,0.10434722191819557,0.1655447875289131,0.23688135866095794,0.3071319123298484,0.3701101185083078,0.4329458159014321,0.49847685372272843,0.554399036405185,0.5825385517644979,0.6003725856999955,0.6208960582858387,0.6269245684225024,0.5799907713649735,0.5427921585266,0.5406982736509722,0.5756243276545783,0.603799332491566,0.6098358902391776,0.6126578584797386,0.5805531369145653,0.6114748220707826,0.6783613517963769,0.7680432604173102,0.7647116504387574,0.6803631209589815,0.6053204271570489,0.533238999043552,0.4623337732551456,0.39624238297406467,0.33468940865413255,0.2829022157179193,0.2229032723968587,0.1543386014890813,0.09640400864513121,0.0507217270641922,0.048234033720966796,0.09334996705858511,0.15288569835349985,0.2261881599510842,0.2933844019853791,0.36033518265433906,0.427984145534986,0.49365768436269275,0.5458793343030124,0.5722565527325616,0.597670617714636,0.602292710181562,0.6075094532808001,0.608006316297969,0.6045551982370017,0.5735758275935947,0.5495500476358008,0.5390669752173685,0.5589583991031344,0.5966887074950293,0.6149880882905834,0.6078750217092617,0.6109709823791507,0.6420045283901257,0.6857492796159048,0.6208942289188595,0.5463484241542462,0.4839226725588952,0.41829522260999075,0.366168431278578,MI
0.6381333321078033,0.6826528041784643,0.7156521107680551,0.7362012710589982,0.7180971659522966,0.6379506850693013,0.5363535303246239,0.5529242323696155,0.6667253176795089,0.7804325547739381,0.9053190754209743,1.0,0.983202401126015,0.9178863743572063,0.875030732284563,0.8914544134205231,0.8864513059275101,0.8445035303526969,0.8612935816718368,0.8570473173782474,0.8492174946529518,0.8515358997553393,0.8504135461889382,0.8380669967610439,0.8238113515356562,0.8226787678068863,0.8226782310175862,0.82267823101758,0.8224471286382995,0.8122518286038862,0.8030612011249261,0.8029663062890968,0.8097404757338551,0.8221723957554739,0.8228814272829124,0.8326339344284195,0.8375614426532603,0.8038010899881587,0.7456161071623977,0.6684092119436422,0.5817118859583523,0.4945432866692787,0.41228940353342614,0.3949525489127188,0.44523966770833523,0.5014618278155369,0.5541180413366846,0.6080627509430241,0.6543741311038529,0.6808379806664506,0.702116444885915,0.699527523106096,0.6496068343492847,0.5515691726881458,0.4802996747216626,0.5651092861102267,0.6786987668594486,0.7834986798870078,0.8760531909420659,0.9615623781133618,0.9375409374559713,0.8704854407049192,0.8465996719922644,0.8692338568361802,0.8432881441375777,0.807190310223092,0.8022528214105558,0.7892939872094873,0.7831713038370545,0.7831536509389525,0.7878525369026197,0.7980720144615989,0.7965472504925328,0.801072236621069,0.7973792019372641,0.8053907138668834,0.8204847916426128,0.8226741959465138,0.8226782310173606,0.8226782941690365,0.8232472210615809,0.8356606708155003,0.829737900034575,0.7824277853550101,0.7155948634936546,0.6372673158405466,0.5488761305374412,0.455012428932704,0.3783017914333997,0.3183536541274048,0.3422512281793515,0.3995013134065748,0.4500516593251005,0.5075951907322267,0.537366277434673,0.5744484645547985,0.6030783266236859,0.6184203889616509,0.5905453805641963,0.5093455712298427,0.4095937415269768,0.406770776087241,0.5161675522471425,0.6365298491263514,0.7483390588012728,0.8409563721215365,0.8201669512149796,0.7533673144051094,0.7160522071700339,0.7025940171792984,0.6737060098568324,0.6426905322704903,0.6381185715237776,0.5929866740126668,0.5139092940767407,0.39298584005297643,0.2702094834881166,0.1999999810457278,0.20848112517062445,0.2869663211297757,0.41116759327720365,0.5261209736660879,0.55603555012619,0.4712762006077629,0.3465535555936694,0.23527336264039578,0.19591931042569888,0.2175103291613576,0.3125334038839851,0.43773957303383026,0.5415099289210938,0.5819964499060761,0.6304768190165868,0.6401303348322802,0.6522847424037761,0.6899102100612629,0.6975238137703395,0.596780701203889,0.4804429780662387,0.35698259885876693,0.24866674538272715,0.1533610663060312,0.040780787392648676,0.0,0.08410767533208796,0.19822398038879507,0.3090892908167282,0.42454147364004013,0.5229979501015007,0.5532195330594938,0.5312146004109368,0.4922142261044318,0.46490490408717156,0.40976803743655665,0.3574579296707667,0.30356108731716347,0.2543097770852505,0.2542306079008312,0.30752120944985295,0.39024429051569953,0.47005049953644695,0.5612842350457727,0.6457238442538751,0.7194466083485374,0.7701272591208683,0.7742673762089471,0.7620324933161955,0.7642915898406906,0.7570644003252784,0.7619543133982742,0.7622975473940969,0.7560042150558419,0.745417432021144,0.7423881521803959,0.7441381839581442,0.7236470708612339,0.7349842120033716,0.7344628037077312,0.728801348776273,0.7354365901393711,0.7391005336256828,0.7483478818081597,0.7423509747707255,0.7746052316637826,0.793252282419354,0.781962155588984,0.8063466910700479,0.8213974958529637,0.7245653602263995,0.5992680003230451,0.47328207262954436,0.3521482409933081,0.24020875378661222,0.1269453909460605,0.07750936817639698,0.15410391979101234,0.2652224679780444,0.3812000921780121,0.4919820511435349,0.5961231624600107,0.6356029200550628,0.6297866387284254,0.6000892959158217,0.5506524317315313,0.4980878093141743,0.4405109324473355,0.38913833273201304,0.33878665457358714,0.32606437106253106,0.37083024429421974,0.4474998989095593,0.5312852572831086,0.617385673831921,0.6984793815455084,0.7610715930173253,0.7839089059947248,0.7752422366667946,0.7629804970799383,0.7555270993032721,0.7554458238430501,0.7554458238430559,0.7554471570034651,0.7569766260092021,0.771481482375266,0.7675183211730334,0.7690359043724619,0.7751678526683223,0.7754920410914306,0.7860441499165973,0.7948664119682971,0.7949940986713213,0.7942010902213981,0.7735553285561427,0.7760544222007351,0.8210157990299458,0.8143715572870871,0.813896199586472,0.8437341118735531,0.8586365925152148,0.7634768071371991,0.6469702353948987,0.532225054225786,0.4072989939343685,0.2946039437988568,0.17529486752240242,0.09809707191579875,0.15831574602357845,0.26796841024095386,0.3830351088592341,0.4936185813327971,0.6018063523138375,0.6666135649064233,0.656478890206619,0.6175355728366845,0.5704959040840119,MI
0.6462025240219026,0.62937098655949,0.6140040878147021,0.6063056200958431,0.6162233263134335,0.6215678451252283,0.6166276722814238,0.6120615258203982,0.612394975186337,0.6157985075375992,0.6151893835346608,0.6152176316545895,0.6092115660098077,0.6038557056924986,0.6032117571882482,0.6070194216916812,0.6040268303092663,0.6010600344271183,0.59302540943634,0.5709148754684595,0.5401779031802597,0.501549692451858,0.4596168516567519,0.4156812681304277,0.37339561427956225,0.33260239567946326,0.29091947654624606,0.24848989822768652,0.2072224833626446,0.16674958256955552,0.12642337099818912,0.08595488274879526,0.04590089031972111,0.020433812081127822,0.03450836304812399,0.06654203197992303,0.09630595724965307,0.12587856268634834,0.15628325807515386,0.18893740951704696,0.2189683166777181,0.25376886550298383,0.29207397930804324,0.3330504222125137,0.37901154431142203,0.42251083181313054,0.46590058738168716,0.509852041607184,0.5529787375048502,0.5803932167628699,0.5888808697595839,0.6148811557956447,0.656637728995818,0.7011442407020848,0.7474344731093069,0.7933876561178638,0.8396728764225628,0.878221021998037,0.9223765975041308,0.9711929629804862,0.9999999999999999,0.9743813005602188,0.9306235608319994,0.8869796012946322,0.8509792506838413,0.8081942534298793,0.7695817685133642,0.733684464845152,0.7056535301731769,0.691143022933499,0.673770899238061,0.6590956150568398,0.6354074221979841,0.6320461670996814,0.6429069759377536,0.6383921174064177,0.628669192763268,0.6190036771269131,0.6077062062210806,0.5940084895460321,0.5864450283327892,0.5888538232210171,0.5894534228967968,0.5983060094935352,0.5987301086431022,0.5871039236781189,0.5755678768357325,0.5694805091138283,0.5742501537718744,0.5701339699256723,0.5500554364491458,0.5197175631039223,0.4860051192170308,0.4496670910019146,0.4108196989664765,0.36662655527741816,0.3273967202661775,0.2908735115790707,0.26079106771176863,0.25165936778386655,0.2768588552930755,0.3093239761590072,0.34397243406816025,0.3796582522521932,0.41174786792054996,0.4408714296991313,0.46929647464378055,0.4975577368598726,0.5195290243033278,0.5418292364570313,0.5624630527990547,0.5787599918161731,0.6095934273795941,0.6525349442515588,0.6971375508648455,0.7416629892483545,0.7899321546787762,0.8346413341555404,0.8801618205602545,0.8920896833349555,0.8520287930349907,0.8065480132397705,0.7691520109548541,0.7412315365404768,0.7138660900609884,0.6994322785184043,0.6826468991546794,0.6621396452779919,0.6445930416129967,0.6525870546644094,0.6604075403111748,0.6579494554936421,0.6542409500722542,0.6372942898991102,0.6349791819809613,0.6370070916583427,0.6338862018456338,0.6166781437974985,0.616999027326182,0.6376132269352085,0.659516502086471,0.6784337719079437,0.6922665259420243,0.7125789464466988,0.7414182814710973,0.759830985383917,0.7248084508239346,0.6804900379901025,0.6361275451829586,0.5927174145534287,0.5615254684991325,0.547604596067378,0.5286547763611545,0.5061984231844004,0.48362550048211206,0.4574800589936566,0.42739333610841845,0.39708859720288125,0.36567231720339255,0.33178077199594946,0.29480363770869744,0.26261863358335824,0.23528060353795133,0.21941776506985888,0.23401507873515537,0.26204255619277295,0.2972854680692072,0.3388325972196562,0.3780974577689328,0.4181388926661902,0.45546592403788944,0.4909249966346517,0.5239560349332443,0.5507996591031478,0.5510078823502403,0.547515270178862,0.5561081022875086,0.5663147377548302,0.5776169195491071,0.5768307180389215,0.5704208573394242,0.569563687137547,0.5709134224258615,0.5799076087540783,0.5941482674809547,0.604351507529738,0.6124995629378654,0.6226521641754804,0.6168171535219608,0.6053524274296816,0.6183540070284507,0.6416209425648186,0.6573146852279576,0.67470854755078,0.6898089514076745,0.7147182874366017,0.7490020113977466,0.7851135646388939,0.8077954163759514,0.773395793635495,0.7273328676320346,0.6809086979248175,0.6322426877715196,0.5924088283023367,0.5684600431581291,0.559181513902648,0.5285119815470577,0.4839860628534144,0.44103912671140055,0.39852111552931624,0.3553141984993612,0.31540356143241066,0.28267643188809577,0.2420169313278031,0.20721529136984873,0.17688113868316624,0.14629817255322597,0.1135860000834229,0.08399835547163026,0.055416205466927715,0.024979421289657577,0.0,0.003807381285311884,0.035687686154638354,0.07288871317756629,0.11125094959310322,0.15056266756558312,0.19179135366175593,0.23310402516117057,0.2746731127208516,0.31754175928989425,0.3631085514525485,0.4049639377758607,0.445877381467371,0.48644969007596595,0.5257835103000424,0.557597924896258,0.5793802747929001,0.5831836864878249,0.5863534775097655,0.583194470589279,0.5801041890861477,0.5880908178086871,0.5916521560010505,0.5950603064694714,0.5918423254359179,0.5920872044424684,0.5946811896918122,0.5959991126010632,0.5990299040522701,0.5966593886807144,0.5843566749594588,0.5916895608231777,0.6086791313113425,0.6249458105207722,MI
0.4206112306678833,0.4206442072512293,0.43001638137397147,0.4011700773489688,0.31906654762809006,0.23192007177469076,0.21031802752009754,0.2922971351697603,0.3868119742775389,0.49062972311756026,0.5957861269760372,0.7000884291866194,0.7967651156172904,0.8981473787761434,0.9864983988035758,1.0000000000000002,0.920156782393516,0.8257584564434108,0.759197780400571,0.725752687332996,0.6950480257456813,0.6688857762053642,0.6871499091514097,0.6870044133467308,0.6896278942527927,0.6895071259760479,0.6901580845599578,0.7094398995773579,0.7338122040942354,0.7102382159042369,0.6352104006072172,0.5570834411483299,0.4801476492251129,0.40524777113684163,0.3426896747190198,0.3213071994214518,0.3287486918411071,0.3109427158529001,0.2318508616240229,0.14994313157787276,0.17507279739850645,0.26441683879943456,0.3602031184574701,0.45628881121255715,0.5569570000895419,0.6538951781393683,0.7546819080680274,0.8498221156988996,0.9104297999891469,0.8577563648827693,0.7654882694968921,0.6802499312661785,0.6553414928912533,0.6382778145215438,0.6203555312717655,0.6467151998243652,0.6697710762112228,0.6982137713290053,0.701068238096296,0.676318840945034,0.6923462464506767,0.7331775392038742,0.775889895257752,0.7728262483865744,0.7201370229037212,0.6478871297184112,0.5639988715900714,0.48842515820322663,0.42309702699833807,0.3824781967041273,0.37342739203697284,0.3576862285741158,0.28824284938549005,0.19662876127161355,0.15819405923021268,0.23626975653591376,0.3321104792007874,0.43118465745081824,0.533116891049118,0.6300888694079043,0.7326824032082924,0.8286274094017287,0.9135333156460981,0.9046799833987846,0.8174119064598802,0.7187624510841928,0.6568926407451265,0.6661003822301133,0.7304120128558693,0.7965851775567698,0.7898990930994965,0.7699390426224653,0.7858249127292358,0.766167554363826,0.7448271589097561,0.7336494519562688,0.7579011147732959,0.7916490272444798,0.8047082293098111,0.7698069154411795,0.6983434053463513,0.6203721374936453,0.5418367234257404,0.45579706340192283,0.3956448936314627,0.3781877290634803,0.387152554595386,0.349095821057706,0.2621751316443304,0.18316237048900863,0.2103764169745903,0.30189134289373487,0.3986070624423932,0.4984100321214586,0.5997504521577905,0.6972191890218304,0.8019021660445957,0.9060497303327122,0.9734648811619746,0.9269902435742867,0.8372533649775697,0.7530381051991617,0.713988909186176,0.6939519847842572,0.660082905001232,0.6419137141580469,0.6377954869170355,0.62010284813994,0.5927680553833952,0.5560786711346579,0.5310518836199236,0.5480998387005254,0.5745044072421719,0.5934509042085492,0.5915455930593687,0.6240153858092745,0.6550534189551314,0.667186211896486,0.7203832323082919,0.7640892775134309,0.6866977886137213,0.5831604652906421,0.4868011480102148,0.3860025986886788,0.2892761411916627,0.18655786027376453,0.09191010848927106,0.018208699125825678,0.0422567027864047,0.12731493539014238,0.21955058875435718,0.30023224117689207,0.31922399792947886,0.3169410519950362,0.3475840081451833,0.407195298996174,0.481914510738229,0.5650919510841699,0.6431280018881973,0.7132410949309655,0.7521637987446883,0.731641338916128,0.6948027876141267,0.6842029330107653,0.6961348665044034,0.7188420964733997,0.7161430317580957,0.6952499905673097,0.7194458884709489,0.692138079046128,0.6272342431562212,0.5804283334102514,0.5913229375864879,0.6507527237692698,0.6934076993565903,0.6172808686735463,0.5151870921940396,0.42343637605363726,0.3476172061092202,0.26642723535985624,0.17252379131576157,0.07918578328098991,0.005032245095100807,0.03624350710403057,0.12313977223458594,0.21688330665301736,0.3013983116488341,0.3221022310303303,0.3330944696634799,0.37143825771423367,0.4275423102019822,0.5039533052160918,0.5898616408441113,0.6660774242798102,0.7161113872187641,0.6857995002781416,0.654917824882091,0.6275944540803156,0.6298988758442159,0.6504519544051142,0.6259376351384451,0.6175462042995734,0.5823508305138432,0.5541044331131886,0.5766899836262303,0.6055738592947397,0.5933921337685297,0.6209002976984654,0.6845431343073012,0.6401660203105515,0.5423429983979378,0.4435728414253939,0.3469767892640194,0.25023976452229624,0.1577934632767124,0.06506813112137366,0.0,0.044338095836332414,0.14130412183928276,0.2287008610458714,0.27364993905281776,0.26763647131778345,0.28513677074159993,0.342255022820374,0.4114527107052406,0.48977278758867193,0.5706328125036133,0.6496919352130786,0.6869408521967586,0.6656075820889169,0.645342594363113,0.6329789814874556,0.6281096717985741,0.63179069179059,0.6397948506685733,0.6110209600805596,0.6204544921453115,0.6603696815983622,0.6890371734707734,0.7211928593737194,0.7510318801103095,0.6794408876632103,0.5796141981476834,0.47849837616436486,0.3816649394564764,0.28608643965121017,0.19190958605398056,0.09200554355002888,0.03600639502164116,0.09073347369666562,0.1820189506261014,0.2634474359184862,0.33584703249893066,0.3615073362120764,0.3570459687698613,MI
0.4632760577695332,0.4638200429066126,0.4729238134927152,0.4735614056730806,0.4723089346158602,0.46986299454020086,0.4675790282883683,0.48056509705598405,0.49957535939493436,0.5156260503367811,0.5014849982962462,0.4640506018382151,0.408785495338571,0.34753269499069983,0.2750960512218441,0.20398461557890935,0.13864745606552376,0.08518253289593325,0.045598537313079834,0.071174258280025,0.11445856838317425,0.15239539765290777,0.17764123798043308,0.20370841254246397,0.22546327048844184,0.2463656971979904,0.24869391607369673,0.23838140390698515,0.20358746622774548,0.181372949363245,0.25121143116149725,0.33175877915455576,0.414658030885362,0.5038620374889966,0.5931395367053627,0.682416838429182,0.7710922512959053,0.8498609231779048,0.9344914045962867,1.0,0.9791339938600925,0.9046335515798116,0.8242079183453135,0.7467212006822548,0.6619288485742212,0.5847078972037965,0.5107198792463441,0.4715472132208607,0.4633879058468957,0.4632684224132815,0.4606620489809017,0.4491395169289851,0.44750028808736664,0.43511268386419566,0.4020054486455269,0.3708762988638945,0.3651487985099573,0.3983333383233649,0.44141457408113105,0.4611920424843432,0.4625306499442816,0.4578855460604352,0.4700640988909237,0.4684152884884707,0.4699811003303074,0.4720070859424168,0.4648871750439869,0.4761038903969399,0.47857991388144283,0.4786216587910559,0.4826026059420716,0.48121614667480994,0.4864742856670685,0.507759672051296,0.5299412461907069,0.5319939779913572,0.5003943408812206,0.45143472936612117,0.39199275637202735,0.3272390852980456,0.2541429933175796,0.18678692712292966,0.13066080825554582,0.07823741595899047,0.061614292678422444,0.10126296467253404,0.1422640335461134,0.17756050618427643,0.20517203110838889,0.23466521364089887,0.26087799226062325,0.2769700010133156,0.2751828017379099,0.25938731388909586,0.22196915243565885,0.22720470436026918,0.31060448800099616,0.3997157856958493,0.4810121822723237,0.563237042588737,0.6523977019550347,0.7416752011713998,0.8309343638332738,0.9163500586040167,0.9815582366799962,0.9712238747320026,0.8960674462325362,0.816848220134792,0.7342358988455668,0.6567778783898004,0.5760749050898268,0.5054997856546848,0.47574563172645057,0.4640465143805357,0.46254025901063933,0.4516377487191434,0.4479819992744729,0.4474724154148513,0.43338899595324154,0.4043459327568617,0.37634474737569334,0.3645945953383576,0.38992173114353745,0.4324639628129838,0.4475700621562231,0.45157979044650975,0.4509255448992011,0.45390374899883534,0.46246693909615066,0.45557211174574785,0.4623332353399836,0.4632748317964732,0.4625663269385982,0.45174653001454734,0.45350501898797146,0.4595628406372434,0.43287924468312067,0.4152048050431043,0.411241078229319,0.41122237286808305,0.4112223728680888,0.41122237286809415,0.41122237286809993,0.41122237286810526,0.4112223728681106,0.4112223728681168,0.4108317341702552,0.39446419961605317,0.35646033607168537,0.32044189281311297,0.3108190767862591,0.33322481905734813,0.3601539161441978,0.38830847573053573,0.3986876133038346,0.3962916275529862,0.40553907906612086,0.4111774609307628,0.4135621072753626,0.42519077787731385,0.4351136595406313,0.48434288238616086,0.507584290645974,0.4306495982063323,0.3447089899998903,0.26654031602210315,0.18128525989561517,0.1309333669056576,0.1508570773379203,0.19730006505105324,0.22700982331756192,0.23259728076683928,0.21920789357625292,0.19155766369075122,0.16241123281825898,0.1338817927309135,0.09653002334354754,0.05252453345654784,0.013609632607543887,0.005222163826596571,0.037615084149009714,0.08648886790674482,0.14897997120052153,0.2183229188050677,0.28021993992470007,0.3475874649684596,0.40849169654672135,0.46059464146628937,0.48092227535441223,0.4671893607884363,0.44236309524007567,0.4332520637887032,0.43299112368642856,0.43460773522915597,0.4273423241634893,0.4294700738916988,0.42960487741866293,0.42654981392656,0.4265317923695222,0.42565407700370006,0.4175906401397187,0.4140995344128058,0.41123736877047934,0.41069412080687373,0.39548306363034724,0.354442698723203,0.3230864483753111,0.3198405082547162,0.33701438961692975,0.37784526381658123,0.40222413260186674,0.4035636585495217,0.4068987095142904,0.4121593009835469,0.4233712422022138,0.42655221514123154,0.43189215626710187,0.4689083719093876,0.5328538402241869,0.570111739256363,0.5011668465669485,0.4120028755515128,0.3227365328750684,0.23684458507104633,0.15897574767715872,0.09099182296625097,0.09854039602263676,0.14222817299442392,0.18599632103656072,0.20287305494028995,0.20125084832456563,0.17986667571770987,0.15282529612742524,0.1301348199911767,0.10164001788371069,0.05844782207478172,0.017765158702439443,0.0,0.022769957326318035,0.07311094988917421,0.13643797834196292,0.2054916028157625,0.26947584225220833,0.3351516449458165,0.3953577586816328,0.44552065846977085,0.46421730318656396,0.44878899097365776,0.430069759535221,0.42654642153478317,0.4265322331913888,0.42653223319139455,0.42649105760462547,0.42165497830687215,0.4221770826696667,MI
0.5631169086144601,0.6132883147641977,0.6566256621740907,0.6982131111967878,0.748368656515872,0.7845810308576846,0.813712733261788,0.8450700926547974,0.8311716504187308,0.8588941395646765,0.7998712954767173,0.7001776081176523,0.5762793730097346,0.4617193268037294,0.4163023022803376,0.5168531457076062,0.6197381227293359,0.72454631239476,0.7614761344857586,0.6517455961898255,0.6051892375062424,0.6230765198584685,0.6407037645171672,0.6032546470183702,0.6013941893183503,0.6593681499173227,0.6640906611713637,0.6815586128557065,0.6461209241053618,0.648749576617873,0.6609489834471454,0.6631797174937342,0.6859628138815514,0.6856230609436231,0.6708477785039948,0.6687875765538056,0.6494514685171398,0.6723748998705457,0.7173918791254668,0.7731369275757984,0.8265267047086731,0.8745351980768579,0.8746379234382529,0.8610478533857231,0.8812671721481644,0.8944411952601854,0.8931126620116743,0.8340959395069483,0.8258632376072459,0.7686394052713839,0.6635722896507978,0.5601662352618835,0.4425696212477961,0.4262147662632021,0.570743374801304,0.6830740158271,0.797545733309728,0.8883383010132357,0.8376971862179552,0.7825201002737119,0.7552247744673064,0.7743130300056329,0.7883751498609373,0.7001804047637421,0.6641197784271968,0.698943058648096,0.6988796243796855,0.6774802422549175,0.6844499543354203,0.7530918726019165,0.771097066558279,0.7769266282461693,0.7481834982844706,0.6579709427703815,0.5923727541134234,0.5635070824165584,0.5845080613929694,0.6565058999633928,0.7302070923058173,0.8138603502147745,0.8875632131619202,0.9384084571451643,0.9766593664095415,0.9945509180280077,1.0,0.9724588967486794,0.9227232302756558,0.8269321370344311,0.7945418537932669,0.7734690180259411,0.667408849586252,0.5551765703249076,0.4428381279661311,0.3506980159446904,0.42011591442215934,0.5419402964252473,0.6430862150979726,0.757199934740858,0.7856580247161205,0.7760966324203142,0.803966673115684,0.790478382611469,0.7785102027777722,0.7134036267693338,0.6930216307988681,0.7569057817126357,0.7877918559770984,0.7713053768375859,0.7500346683658696,0.7387263036720073,0.700419405201627,0.686944725697737,0.6856521992041396,0.6808726254732385,0.6864881131767309,0.6409407048368392,0.6200066155030672,0.6223124000125395,0.6793521507159008,0.7395267839080324,0.8056785757808749,0.871456634516468,0.9149760514278924,0.9084418657269628,0.846175629439994,0.7729179468058378,0.7552292361722648,0.7353028533780561,0.6843646711591225,0.610123609190782,0.5452458747096935,0.4852258770000599,0.4505899232376489,0.4643684934914898,0.5121040816018514,0.5237398967155924,0.5378130723859478,0.5356530443478853,0.5772268069753581,0.5895140972140958,0.6112357072397403,0.6481419295188635,0.6269390509829238,0.5782935545541648,0.5408358963955999,0.5515889375605276,0.6045880219767241,0.6449692397787707,0.6378507203067167,0.6124930635651387,0.582531460822362,0.5249472211564115,0.4066381875853402,0.27103368965076324,0.13020363357100528,0.025478023616606116,0.06417342890145772,0.2169819720824746,0.35574110400056114,0.4573888653852931,0.566878196593148,0.6158362047824966,0.6641403225875955,0.7561258332059335,0.8200801778454654,0.8361968999902603,0.8325094823221972,0.7964233604588902,0.736301703614326,0.652170463446379,0.5786870409515821,0.5060783551395547,0.435117807195768,0.41094150444350674,0.44046686133197444,0.481363863588828,0.5551241235002609,0.6231583587185128,0.6259746951900285,0.5966701528988239,0.5419343578175155,0.5269980684246498,0.5328106726731869,0.5464661336995471,0.5246039193442265,0.5091924033431301,0.5610961480478611,0.6147614201719245,0.5948034779633167,0.6396391519648112,0.6723850361414723,0.6502259442091489,0.5586568607435138,0.42760096754542154,0.2866844950692773,0.13744419611647363,0.011498395269528672,0.03287196807278825,0.16391435693646628,0.3087762722442804,0.45307071419932843,0.5515103096956615,0.6535792023105556,0.6488034730346115,0.6944061427802897,0.7428471938897108,0.7240307038249814,0.6816791413520118,0.7129639002074803,0.7217973112497322,0.6794746955018898,0.6581651886129825,0.5913351547881716,0.5506874668925574,0.5169784138102278,0.5015995714792041,0.5243311726869742,0.5461444332690304,0.532861185190419,0.5118809509644144,0.5195699420404623,0.5043710709609881,0.5194656824861008,0.5442923239701463,0.5261831231982352,0.4803934157686438,0.4052691598487206,0.4259060790181657,0.49899888812058446,0.5029698931675188,0.47298888732911415,0.4496353289223878,0.4038945998852155,0.4331425736350534,0.5086634756517778,0.43683567119816935,0.3243602768324738,0.20548348734830135,0.062161250324948014,0.0,0.08804065506118874,0.2310541238466124,0.3801620263908996,0.5155149016121312,0.6384117163338701,0.6786160397952861,0.6881316996329616,0.683258986944093,0.6541323644801684,0.6374681211424011,0.6047896378790147,0.5496008528462095,0.5104001117301316,0.46160847598584986,0.3998897960905561,MI
0.7360287987885732,0.8116164347423744,0.8345391756027292,0.8284783707050023,0.8017586069533458,0.8083882435889747,0.8299395600169381,0.8009157702011684,0.8135853759492413,0.833432282284913,0.8327399267443472,0.8561403006100043,0.8104221816019272,0.7281515477134368,0.6244882098219398,0.5507919081600807,0.520925931567068,0.6073354009497276,0.6873008206702167,0.7817308178426865,0.8217201370010372,0.7982290522553166,0.8216183653926654,0.8037639328068753,0.7954978591713875,0.7794142128066612,0.752432938673465,0.6577918577365036,0.5301789965351569,0.37684194617885947,0.3152863179907994,0.4588034449932161,0.6148822620399041,0.7754003581185742,0.9040445774632371,0.910914722837644,0.8145311147100429,0.7608573639340408,0.6576401117639419,0.609481603552064,0.6678733844740199,0.7213261900455032,0.7520619066277385,0.7462291287501079,0.7609402813712443,0.7729190976264135,0.7921585148328063,0.7518740789127447,0.7564025312917941,0.7568546657883264,0.7729376443418117,0.7645916938683985,0.7571884651967054,0.7551013825420094,0.6723579309708052,0.5651705937977383,0.4786598218775291,0.513187931961161,0.6041154237149637,0.6845768519572406,0.7455832161197344,0.7407333767331155,0.7912931884496883,0.8120628050030607,0.8586261399041657,0.8715116942050711,0.8361929191270274,0.7962205794630268,0.6883147355620949,0.5527148114991345,0.5713326411746067,0.7214942427008051,0.8689293967230096,1.0,0.9970765527986147,0.882830594325994,0.8045104271083598,0.7127689681411669,0.6671904494472791,0.6864311413074429,0.7480488185936416,0.7409305764987444,0.7257805630573841,0.698161982839375,0.6798825041302834,0.6473690959634597,0.6228132488036398,0.625239636176528,0.6229806712951014,0.5897171652221553,0.5839449573136255,0.6260155343209028,0.6509061494686987,0.6392708105653409,0.6200708090198814,0.5689803833231268,0.45968916133543924,0.4771146206771899,0.5549382390073436,0.6495595135425507,0.6776271784207513,0.7023726888375084,0.7424234980358744,0.7414240100933824,0.7272523087622789,0.7668370550409165,0.7247348495719086,0.693837128048016,0.6269287124449567,0.5198432185958994,0.5579414703465924,0.7098297590676088,0.8413273274039277,0.8603393039199725,0.7700833811494405,0.6796985264066135,0.7195607911500614,0.623106049551847,0.49829161194258464,0.41563752498636397,0.2471005274249367,0.07590473369172157,0.0,0.03964484505594834,0.18973472660961743,0.3660546367914015,0.4196267948073773,0.28641017466559626,0.13197830155329893,0.019653531772044985,0.030542601444484507,0.15583611169515166,0.29468576132037994,0.41949284959238486,0.339729026964108,0.16148279724147807,0.02791935277781077,0.012048020841325169,0.10064853182684397,0.2758311528781263,0.4352231939769311,0.5056394154763675,0.5535632488747169,0.5432605260101484,0.5971673401149937,0.5771901728556745,0.5601433709455987,0.5467759253033133,0.5629839041691547,0.5099509393641615,0.4561021283046669,0.36398930247965566,0.31724136063362707,0.3531271664632625,0.4696956291764778,0.4931344279402099,0.5021658384352872,0.5192684444739744,0.5079025254831251,0.45470774348908716,0.3867900336398602,0.4272883325530801,0.46955059560718215,0.48386494863538054,0.5030705298263269,0.5336751488130069,0.5615800665891912,0.5748374262137697,0.5776151096594733,0.5916888811596843,0.6143162254523284,0.5702672888682843,0.49597604811646434,0.5220025252803548,0.5227539645809056,0.6188348465335833,0.6737862785462143,0.7551142027968751,0.7329786665571989,0.5825296169628649,0.4388867095876572,0.2990378357299126,0.2776093224259597,0.39461863107210116,0.5516256237267338,0.6839503117159591,0.6909570762831265,0.6654303735709544,0.6942174926696696,0.623955713497681,0.6517577981284823,0.6268292850429278,0.6070889357496583,0.5587921971587537,0.4660594344694129,0.3661392904703846,0.3354211326603562,0.3149357837048128,0.42119531861323356,0.526641148109678,0.5726894175362789,0.5846218791991991,0.613601117928404,0.6330099422113475,0.6006315479756106,0.638882351749162,0.5917690832099076,0.6220174426310168,0.6302340696235698,0.6541285638255561,0.6290558804417223,0.6328303469792429,0.589718367278695,0.5592958779244572,0.4925238943771175,0.4950032112902516,0.5626295941045134,0.6371214335652065,0.6976467487824429,0.7655546808533886,0.6534774987888978,0.4956673799545408,0.34248680851630153,0.19934453469178104,0.13089326182274297,0.23133609439845193,0.3863574185840988,0.5360912448656521,0.6100592552760666,0.6323706703563001,0.6707018154472069,0.6453236533300499,0.6273863614449331,0.5731980709110376,0.6197966803318993,0.5896395172621425,0.49910024585718826,0.4050864360720867,0.39401901540955775,0.4328785750081421,0.5388217840445924,0.6452455388157112,0.7057765015344302,0.6939664119345341,0.6917159526721592,0.676712501085631,0.6474550864475974,0.6581036288626159,0.6380951745172769,0.6342403743706058,0.6774791420706814,0.6467679835078055,0.6778064884983275,0.6864813306250257,0.6061520458922152,MI
0.4323130906537447,0.48962194831248684,0.580810358113208,0.6765025075907682,0.7637415772160581,0.86548731046395,0.9560982277701688,0.9550658178222102,0.8630316350044418,0.7464887580581694,0.6361065628010976,0.5290209241513057,0.4232687482233075,0.32999339248894266,0.29916131753795083,0.35827158552112826,0.3912300351458353,0.3734154882329985,0.37635226613649,0.35561084568654344,0.34054140037285396,0.35544990633868867,0.30536122704718993,0.2844372077342734,0.2943225860589238,0.32569371905450195,0.32268090434079877,0.3172726552107594,0.32308136235513585,0.30811368041089215,0.2857846014798273,0.2998560433362121,0.3011456095828895,0.2979281658411481,0.2902363855852106,0.2803472736272461,0.2628866793705287,0.24101319197049165,0.2645343291284945,0.3098402368176263,0.3450381261389057,0.3769680653285552,0.4021414313066689,0.41383565140206535,0.40944057150837,0.37212947055319834,0.35342123792018443,0.3951969367437127,0.4923987955764786,0.5845898478646268,0.6787575231158343,0.7710482833329158,0.8666879272465686,0.8879518584305464,0.8025736647494255,0.6959569940087702,0.5864369150844406,0.4800508801690997,0.36862177284116315,0.2587696855468917,0.15866304799887576,0.1605791784020827,0.22582684817835696,0.22244823011499504,0.21574163634460186,0.22204696412735192,0.22454916386668478,0.24131716332177744,0.23527874254464365,0.19510065777423335,0.18297311137830574,0.20828287077644259,0.21046995760573362,0.2218731778064229,0.23836562502251502,0.22846381409439642,0.2064938698686758,0.18662703676984682,0.19407203127826955,0.18004084539937848,0.1412728192696,0.1229365249363199,0.13534369558633408,0.18135756409177262,0.21776018101401817,0.2361239840748448,0.2605544434939322,0.30184646644489144,0.34452028289836223,0.3865465639753016,0.4110641763365015,0.4001280017952511,0.39049254960796675,0.3730518572284387,0.39831588654479866,0.4808011092777029,0.5777988524516635,0.6755026133573292,0.7757390044202181,0.8742191165519162,0.9686005580335806,1.0,0.923466655030706,0.8192646641706935,0.7143556431865901,0.6016390700382996,0.4932015167838002,0.38414929050457847,0.284520575757194,0.29181527353890235,0.35697643595083584,0.4042145496543239,0.4429892026345752,0.4533589406338776,0.45142008106778375,0.44756701921996855,0.43222917473695377,0.376165870344467,0.3259813867323218,0.33034960751370557,0.360049710760189,0.36298161290328146,0.35012528663109466,0.36884530291922735,0.36789200368502595,0.3646014731281806,0.35138890487125174,0.3326883911072138,0.31698466765240374,0.27220332473837106,0.25530048529187965,0.2691307519917201,0.2902914128856664,0.3106901841732057,0.3016104704907767,0.28442388734068924,0.28325277055457043,0.2904734973736227,0.26483158996633627,0.23674815414619887,0.2710808728669081,0.31673194018359485,0.36483699968582783,0.373671161435964,0.3687571037277326,0.3709999520897318,0.337086385725927,0.27291723207986296,0.1774712673590173,0.09254843946499447,0.08413018964010499,0.16732015889570517,0.26868896323631297,0.3791771224016962,0.4830888406637257,0.5988093630859894,0.7165629946316434,0.7947125220702693,0.7301954448818528,0.6295159261108889,0.5308170184845822,0.4387399348551204,0.3590456702683271,0.3031956924099739,0.2930347658279553,0.3121283349094095,0.3220553545835987,0.3336162848179529,0.2959344991028874,0.2488318981420976,0.20590462363938888,0.17679166850956873,0.1552528583870676,0.13171977454619954,0.08637597348083581,0.038611856005986045,0.03774046227310146,0.06344084199666966,0.0934839627099775,0.12098756397329025,0.1256066922791259,0.12165898876453651,0.13996358126314057,0.1579860454222044,0.17542908709877603,0.15126974874412502,0.1422850434094869,0.1336698935937961,0.09419996515182483,0.11150314162304076,0.14403896612276634,0.1722755097577897,0.1531411956369686,0.15181795534959308,0.15218463206614263,0.15807616391775348,0.1067719860518892,0.020632934221521904,0.0,0.07506264394415352,0.18587629349711143,0.30378139156456774,0.4129099861857455,0.5216507004486384,0.6330680354646314,0.6795282025979645,0.6044482345385029,0.511315131324908,0.41946410043795757,0.3357857857668032,0.287473534205652,0.2759543258809316,0.31299303950137203,0.3465395893009102,0.3371666687457524,0.3160358381146149,0.2851651097596717,0.2596478650161287,0.21816935173022944,0.1794293966444802,0.1760783913900239,0.19360982789688075,0.21771832773081057,0.21452065081901406,0.22599901496547892,0.22571395414110373,0.21761668050159066,0.23446212034011893,0.24929625406454647,0.2539988330194145,0.24604220916158015,0.2550117875521152,0.23255092130644472,0.20695722276577433,0.20816946513454893,0.2535284335811241,0.26810239923745716,0.28194946342728633,0.3003734182287654,0.3064386793876275,0.29632770380662565,0.2142111285083237,0.12674640690030614,0.09168772301625916,0.16499823176772876,0.27822075051334805,0.38829342749037643,0.49559560051932827,0.6014251312341634,0.6970106661163613,0.6718584931180778,0.5793403501409133,0.4917529240045573,0.4116720254534365,0.3621043469794696,MI
0.6808125348066772,0.7076879037647904,0.7152881415307523,0.6908494244622004,0.6753004864044979,0.6401516616675752,0.6166361081505768,0.6529884250265993,0.6698667010083664,0.6223923375437398,0.5476583426956853,0.469536094137884,0.39324180972740674,0.3269468109975281,0.3004037614799967,0.3743324917083616,0.460080196723342,0.548435050269937,0.6333893514485632,0.7098074522058556,0.7959566957076732,0.880344507839398,0.9255008119215201,0.882930948735324,0.8174039556719869,0.7735592338675149,0.7308997930035469,0.6829293114435128,0.653790681465439,0.6443650648698568,0.6350678025609798,0.6000597441049204,0.5437411035822878,0.4802946730714671,0.41690504946046214,0.3672657006559038,0.3853882761005135,0.43989874747220015,0.4842255128143397,0.46652277403633124,0.39445839800017957,0.3162445170234508,0.23821324394649468,0.18104887668935798,0.19748001023023842,0.2808216705348624,0.3721299096367571,0.4635265234833722,0.5547767696853428,0.641639093332187,0.7286257532595323,0.8131882467290096,0.8630319046013261,0.8264279212412592,0.7654370851948947,0.7368438014906787,0.7071900313053135,0.7137723517164672,0.7540524973107244,0.7636388532891042,0.7745426948099231,0.7911376076187152,0.7633261834591555,0.7114098500924887,0.6492201113102102,0.5841869531992249,0.5505545839735281,0.5880558115312223,0.6363106201092567,0.6486408204544408,0.5951633823341597,0.5211641596935553,0.44231456421643,0.36498004189441347,0.2982459643376195,0.3001397043892723,0.3838311363258625,0.46885682935212725,0.5585809462755204,0.6497543528852733,0.7361440474504447,0.8239362360754646,0.912516210170424,0.9915089626980994,1.0,0.9332580668792348,0.8659386607898155,0.8174659957269784,0.7821208868412418,0.7437568641682689,0.7464611384549907,0.7559870181166336,0.7307584899341192,0.7092736399377862,0.6780651410899342,0.629822454748533,0.5656107943284888,0.4994497449015386,0.4355881716900668,0.38446950217958664,0.40129041658511866,0.44914656739428327,0.4564504404260933,0.39902860780439,0.31860094539768824,0.23951938471102985,0.1696380221246897,0.1315457347221597,0.1905240770956923,0.2800983915654732,0.36503884205260817,0.45536321054271867,0.5467565197429082,0.6381219188062578,0.7267591012224609,0.808934604346149,0.8432774147462815,0.7957097106108587,0.7340170196524164,0.7021909881018519,0.6706377368275395,0.663103407381363,0.6874386751460245,0.6945802184172637,0.7158000882638699,0.6990885956761296,0.6708833829283932,0.6585953596517352,0.6288583295817408,0.6156643485814856,0.6591212585341134,0.6888129071842185,0.7241819006151003,0.748820107906235,0.6823249729453179,0.5932326348947997,0.5077163179569198,0.4188450357382877,0.327526476747917,0.23944219283465473,0.153420320494145,0.06692981616181803,0.0,0.028978920501988914,0.10265520720635612,0.1647357041029759,0.23075095217165187,0.30715385658236294,0.3821444595795759,0.4232844075648433,0.3863568775725864,0.35140419619803664,0.373507975345471,0.43148329083685477,0.4981159201305553,0.5665413824510596,0.6253571415871441,0.6686988033651938,0.6921740456113586,0.7190369026649418,0.7260761803035641,0.7002488955032088,0.7223346411222215,0.7644013215049511,0.8017665103350576,0.8490211770420805,0.8803831371014853,0.8135451606633827,0.723120563335162,0.6377364658348842,0.5486489463646173,0.45777897084497143,0.37237118832081684,0.28358690998701974,0.1977049095908895,0.12626216943831192,0.14416138704138837,0.22229173657763568,0.2979887274249896,0.3657836157700106,0.44301430622895965,0.5216527262408414,0.5913173404582631,0.5998029836986257,0.5537044144817233,0.5193573346476329,0.5485381471059655,0.6098712034894255,0.6726877647154613,0.7300919292336784,0.760373356180093,0.7409283285025346,0.7321094707883676,0.715389358683905,0.6717407735888813,0.6631877767292805,0.7024131702029682,0.7289040672647321,0.769345575728892,0.770868345137948,0.6955092845033904,0.6094622581162322,0.5216681007855425,0.4306696897937551,0.34480733325432167,0.25637613474625154,0.1665448896105296,0.0824741791178939,0.024460909735777303,0.06498836432369737,0.13767493395373986,0.19933819626847715,0.27601029857004133,0.35858777896914396,0.42900705587833443,0.44148104744642935,0.3876647715453264,0.34038487244987337,0.33352213817536913,0.3808553455593947,0.44421736405960865,0.5111676084409681,0.5679065864554699,0.606005250798111,0.6185844260568704,0.6285113136705375,0.6408323353082236,0.6900198976623168,0.7359622663243092,0.7774534355746082,0.8302563078570236,0.8223140541613073,0.739562484431923,0.6512360058393117,0.5653717322690003,0.474636602810549,0.38879673018268346,0.3010027394917919,0.2163736885251294,0.15155597706224289,0.1839514550077027,0.26043357225506114,0.33101186620576095,0.3990316043988861,0.47754522724347137,0.5601817227611975,0.627511320168365,0.6237533609365361,0.5856602038630977,0.5931321664303003,0.6313652982969146,0.6627389607835458,0.6886513646342195,0.6768390202554694,0.6455479462056691,MI
0.2792728424409612,0.2524859549699221,0.2530923403225678,0.3109809139825954,0.3736632239609674,0.42963054368671805,0.464608116975332,0.48819609854703416,0.4874330542214007,0.4546307298456995,0.3988309608515903,0.3870237815904467,0.4655729814448073,0.5479631798611424,0.6151170262149097,0.5887874429192592,0.5082178695317132,0.42560452687836947,0.33953718728558147,0.2822010285842975,0.30727031314731756,0.33869757892344454,0.33769067574021094,0.32912810611134735,0.30860577845584736,0.27772273997301866,0.2481624437448453,0.25828291146272697,0.2581479907246689,0.23058995951814376,0.25531655622504257,0.31681194467502105,0.37566082109088805,0.42897637172346603,0.4651204782983587,0.4880147555969947,0.4871792282310088,0.4528054124620524,0.38573132442371616,0.39115204029628337,0.4731344251145384,0.5538036686239576,0.595188908226991,0.5411357128234708,0.4579345905972392,0.3722167229440707,0.2876783256221682,0.28658167147113733,0.33162496021791044,0.33749954873898047,0.3239081880687955,0.31727418002658836,0.2944298100435554,0.2620203037637572,0.23468069840694405,0.24580108097336617,0.2395894436622623,0.2542382349332144,0.3115917430255333,0.36983743797573987,0.42115540670493545,0.4493635543559116,0.4646883088015319,0.44203039992927917,0.3928683032593516,0.3413533301606593,0.3826719569549981,0.464119541390968,0.548396875085644,0.5763787755095622,0.5106962686656205,0.4286107925854392,0.34249070203576926,0.2662606591120815,0.26261206813920235,0.3063989651793635,0.3177425659941464,0.3110756700819082,0.3003765120780737,0.26907641970718355,0.24600873766797648,0.267114318646529,0.27701290110085974,0.2723757026321316,0.32136368273226834,0.383953726560208,0.43349580263704657,0.47544614393206985,0.5035432771046098,0.5151738150881398,0.4851349125847848,0.42856993454066195,0.3864410413726149,0.4406412206529746,0.5293075632559445,0.615046232961695,0.6348903650752054,0.5692262566959669,0.4847733078483729,0.40061576386624353,0.32684587119204767,0.3299523884608002,0.3589297065664667,0.36850813922225445,0.357359922817275,0.33183416603681826,0.29320224662340966,0.26658462034410846,0.29446550554192896,0.31862469114535874,0.2984832050902462,0.25043518879289994,0.19046152104740233,0.12051889993566656,0.06406287237329034,0.07603854268867782,0.12982774294099908,0.20169111005167073,0.27270574536655445,0.33530572584049656,0.3895347200696546,0.43729103510690437,0.4843749523038532,0.5091182514135657,0.4908942212639127,0.5385522968907159,0.6246838955290459,0.7094661560973197,0.796204734896744,0.8836680296444361,0.9638084506858282,0.9999999999999998,0.9444195978383976,0.8632648910416185,0.7828570809538891,0.7615046220224826,0.814665339251009,0.7753284250056753,0.6887972564213156,0.6047271485818013,0.5172309209724528,0.44044727195493594,0.4193538549419016,0.4559367250313582,0.4417651880930633,0.395989844750984,0.3445164280742721,0.28661432834016076,0.21983232150565457,0.15034422037120665,0.08082761452530063,0.016491169402331973,0.0,0.04877219862462989,0.11870020956072347,0.18277566542996326,0.23987559064688457,0.27040297803751945,0.24516359732781523,0.21845867577573208,0.24492691253872945,0.28831267539223715,0.3178049594160026,0.3191732302953647,0.31270768157032314,0.2661628227695598,0.2048656797815549,0.2205650681336313,0.2895457875225689,0.36768575889172683,0.3953355760070274,0.333779164091085,0.32148954536133245,0.3714814885324591,0.43315366222663276,0.46380689181156964,0.4485797000025118,0.41281241985376105,0.36515692822145374,0.30583923189580386,0.24368418436489914,0.21670559638098075,0.2332654912378278,0.22376912366137724,0.20437682544519675,0.225713661397692,0.25628565963915495,0.2720205568700387,0.27852144919285404,0.263424539466073,0.20388543909756618,0.15270376042595535,0.18474367323014307,0.2571727124835341,0.334696982985907,0.31634008211526776,0.27633259232050866,0.30419367459757374,0.358177891727276,0.40797953395992637,0.42092822131206487,0.3955722064420131,0.35213968730484946,0.29036517255022365,0.23029248610030062,0.1927298655544143,0.20147775337826812,0.20339485402617008,0.18416418082690744,0.20951588833904267,0.25131737306517943,0.27477883469544495,0.2810454998084617,0.28963216899856614,0.27432849675593696,0.21120779462484718,0.17813134397062869,0.2272978204944862,0.2974266928961229,0.3129478804869281,0.3270960584983502,0.3867941632765304,0.43263204043548975,0.435658207157261,0.4132291764902132,0.3663225312227829,0.30596789552857784,0.24325956544707572,0.1917035655072863,0.18145922281992988,0.2130056931622648,0.21732812466635454,0.20576518024947488,0.23258174423509614,0.26241914445104864,0.28145100673406187,0.2984435972797952,0.29182053274156106,0.23582073492835054,0.1793658008163137,0.20854260516580148,0.27812115891270617,0.33507070652716564,0.31321517117633535,0.3360813562925389,0.3981929216503708,0.4401965158386092,0.4421448108305952,0.40995962985834233,0.35734765586101336,0.30099257636497123,0.23889592043362207,0.1940935269656292,0.21051755332930822,0.23531729675813162,MI
0.8957615674857804,0.8338511269349431,0.7641283886433134,0.7218645102943597,0.7105831616233726,0.7116745838764502,0.6993992664604196,0.6777642362910525,0.6561861750434514,0.7001260854069984,0.7397391131802924,0.7484634744202139,0.7684961703682909,0.7683272509690342,0.7544516743696588,0.7320762319990233,0.7151586323154353,0.707566278955547,0.7021753347162654,0.6934748709312752,0.6860205769777039,0.6929895534125348,0.7004040569590586,0.7199605703986562,0.7224620386528606,0.6823839890475836,0.6341085493597165,0.5741475009993531,0.5181626165187656,0.4602987047075531,0.40520296655255184,0.38880699202486,0.41896893011519265,0.4663230816762509,0.5034771517823899,0.5412006287736797,0.5746289112005238,0.600025987004372,0.6130756034387272,0.5974115038979164,0.5524041576893501,0.488143727515562,0.4188725484597424,0.34982964698068186,0.2941218977990563,0.2848154390446531,0.35570942118799387,0.4379665992745023,0.5195640539060293,0.5934786438760618,0.6733537902806868,0.7532672728283187,0.8271421848541669,0.903024051928317,0.9254988315949837,0.8668213184298477,0.7949902930724195,0.7281288683955931,0.6971194318393197,0.6869752677122061,0.6833468152214508,0.6797692119179548,0.652276628009812,0.6295389096190149,0.6632329607477832,0.6734376013638246,0.6705302135215041,0.6710429299254426,0.6667493007702965,0.6615042169832115,0.6535345040924829,0.64973046153511,0.641739140831892,0.6385440598008056,0.6374588427360031,0.6288221903805671,0.6300576970347154,0.6332554536533446,0.6381419414786187,0.6339152256795113,0.6037706903177122,0.5590667945579231,0.5042318419719163,0.4469038181225111,0.38673521952415535,0.346728549687475,0.362779570558021,0.41381254144904145,0.46711563074138396,0.5241781971998907,0.5911917290223387,0.6575918885880456,0.7037415542220158,0.7251069939329282,0.7332289127375771,0.7330653359623227,0.6986029979439197,0.645846506215147,0.5815701686055839,0.5100484782566406,0.4392983377695532,0.3675409022805527,0.32568203903271664,0.3845337341935495,0.46671951238164544,0.5484463558908803,0.6152187686329749,0.6795098662734116,0.7531800001561484,0.8208578341982253,0.9021030073880141,0.9747946427431775,1.0,0.9434483754670078,0.8709266972071728,0.8017722127064246,0.7587998489415555,0.737039742945286,0.71848798485785,0.7139171236013215,0.7217886936380813,0.6912588029799118,0.7013420903045717,0.7271682898287932,0.7163597694567363,0.6986094917743939,0.6787935169822219,0.6581098703290851,0.6378393573055587,0.6480152158803267,0.6692755063884006,0.6831522487281871,0.6716993017898869,0.6388489479522828,0.6518222591284311,0.6714372614786783,0.6786818236107839,0.6927143653649064,0.7112537492477058,0.7343669701609916,0.772052008658239,0.7610170923377377,0.692668778854415,0.6105777337917608,0.5297217722819365,0.456124220540745,0.3751853677113499,0.29305663108601454,0.21737848789588532,0.14017440598366115,0.08618667458332863,0.12315393931942498,0.19649833205155653,0.27001639312095005,0.34514436661997183,0.4172389580079685,0.48654520839899273,0.5581989277523118,0.6252844790084733,0.6809778706195802,0.7020777966298222,0.6922352226748023,0.6672109814382696,0.6117452380322841,0.5391999039491242,0.4770679362639678,0.4235044080546577,0.3719261618265908,0.3268698921231983,0.29936512802766346,0.3188598506138567,0.37153378142727256,0.4280741470363725,0.48345148820037154,0.5387494542152051,0.584062409481162,0.6005974415290287,0.5985010652287317,0.5913015723931558,0.5839783307276623,0.59438516149135,0.5989352603218037,0.6054826372723425,0.6104773837796611,0.615782574420811,0.6220905927464875,0.6276059684377797,0.633697202846699,0.6338484683255738,0.6346795430678851,0.632320549898759,0.5942404580334355,0.5818003152122739,0.62071304396272,0.6446279118149805,0.6456905359789218,0.6517171548260936,0.663115038235693,0.7008874639191514,0.7047216964529324,0.6285856825265057,0.5462365043931097,0.46387658849375457,0.38151667259439903,0.2991776300984752,0.22000216982704823,0.14561699193251276,0.06418579426416748,0.0,0.007663764505323911,0.07449275442508818,0.1471979120982858,0.22028755640603936,0.29531063561824467,0.3675464098145149,0.4411554754369398,0.5130747518473744,0.5610579778571274,0.571824811908699,0.5508627099766166,0.5214103117155073,0.48274292253971196,0.4445394033063177,0.4014819579682174,0.35991938784603605,0.34711837431480985,0.38076774566531246,0.4337202059273828,0.48985237667568016,0.5453655602343603,0.6058187157519088,0.6597065393175279,0.681586925121221,0.6692297467924901,0.6560378642110825,0.6520981466867217,0.6501115879625341,0.6624085769352042,0.662982044864886,0.6730600673293079,0.684142207616603,0.70575828367198,0.7241886878118313,0.7217840250546224,0.7116914566370345,0.6981096920849565,0.6505292010238926,0.604193805637222,0.6036044146456185,0.645959230300654,0.6662007169163957,0.6706489178279991,0.6771471002420084,0.6872272313043277,0.7279969271301399,MI
0.5263460166160412,0.5098693999503756,0.4766572947325831,0.40569866546169964,0.31873062760694326,0.2767433612048249,0.3413093710502748,0.3990768644762941,0.40910838540935046,0.40919999257976025,0.4077534988408553,0.4020332257161585,0.47225626188314207,0.570354136775046,0.6681594326527414,0.7712863853136973,0.8683528624498642,0.953948007600141,1.0,0.9727305141336617,0.9015803015715123,0.8372391536017436,0.7847640281368404,0.7219621620822121,0.628360307180285,0.5432367954860564,0.4849729468500419,0.5627839753747566,0.6122052094318851,0.5469573679168969,0.4767732607892845,0.5072460540300261,0.5384422180224968,0.5173458635462422,0.48478164947668745,0.4234611077753798,0.3394964833470402,0.3152645107528276,0.3781978349474171,0.42488393966218707,0.44515649693944637,0.4361418413128857,0.41679067562709715,0.3997572010576351,0.45594800707807925,0.5586575789231221,0.6665368008941948,0.7705636363700612,0.8677653084882673,0.9476774436956088,0.9780048870374554,0.9412302884111714,0.8854354109580331,0.8214278240403265,0.7735591207779242,0.6986790700384446,0.6115369680204714,0.5493722008103381,0.610353250024283,0.6653994943217949,0.5958333474179773,0.49597145841002455,0.43513060075256327,0.4324540137426718,0.39331715631423414,0.3493162250878856,0.2900439419127161,0.2266722456309478,0.14654792661238059,0.09096932345602626,0.14178371009280344,0.19795199086900217,0.2393965538602676,0.28331412998208805,0.35599948894959077,0.42949071419796425,0.44129171918189547,0.4674038547217578,0.5563959887555625,0.6537863845697451,0.7568380796495853,0.8622827971762366,0.9428989544355648,0.9812175268791257,0.9526954881945877,0.895181965905762,0.8322609652543802,0.7791824568376509,0.7190032040686285,0.6250637691481775,0.5699741085003489,0.6438996130799084,0.6874874493138807,0.6107567070347595,0.5185684472423233,0.516023359288746,0.518508179218069,0.5023566669686828,0.462489057539917,0.4104575417083902,0.33189178537000297,0.2738412661431284,0.3117360945007239,0.3635604957389247,0.3724461652154534,0.36911203762255607,0.35854152922633364,0.34938218864520554,0.4028039964850265,0.4977571689363929,0.5976419443108565,0.6993267048968166,0.7959442486523338,0.8932237960098419,0.9568011383019717,0.9545837436084224,0.9068188360738123,0.851653078117593,0.8034544745562675,0.7344179057647748,0.6449116812453677,0.5639572322560933,0.5882669417447839,0.6324191831051973,0.5735080301430577,0.5376349134658036,0.5202861599151603,0.44103572037769334,0.40106891587756,0.4739760365224104,0.4628290221456832,0.41822328359040783,0.4760084876641262,0.5575704883953843,0.6468116656418688,0.7326092513864073,0.7884939777781454,0.8365754455447472,0.8929152520992392,0.8974765941522511,0.8337500063513827,0.738433721213787,0.6300980944745529,0.5256447428210418,0.43016638797256546,0.34064836703277956,0.2882326839440439,0.28208446891411,0.3006927246097595,0.3013845545887057,0.2893557140077361,0.2363377832061757,0.18057426847035885,0.19874844176088846,0.28000777601550153,0.3606883004217707,0.4187777927521683,0.4545435561081268,0.4445707592053858,0.37820835506039074,0.3803724911701982,0.476573069551387,0.5045233318587274,0.48883399212295764,0.5477173066385723,0.630316560102052,0.7085697450271269,0.7662822533742824,0.8190416485352339,0.8838272044471167,0.9168276105544617,0.8596373162786448,0.7711463559163652,0.6696770498255349,0.5600896561429671,0.46259572741549215,0.3881465776948909,0.3735883648370484,0.3456719244528399,0.27600583202688744,0.21556263995460245,0.17534102396912177,0.13062937978022893,0.0615726859382022,0.0,0.017401581373309494,0.09763709906325824,0.1819450442130135,0.24635150110882664,0.30397032563021,0.34666171507398236,0.3501212313621225,0.31287486965495104,0.37528346258225165,0.47209662579518197,0.4687592428811058,0.4768357576407585,0.5527008925719943,0.647658574097743,0.720271626771662,0.7669421535476344,0.8280678187994415,0.8871816472027061,0.890661205927064,0.8097291387656922,0.7116199105285279,0.6077712529884174,0.5096066434945068,0.41189254705430844,0.34110861028254424,0.3324842382355051,0.36474737673866775,0.3763660452798927,0.3738862691176963,0.3502510453807761,0.279237870386682,0.2184859428659669,0.24081217804907462,0.32380691191169575,0.3977367197860344,0.4437876718970344,0.4511226808229738,0.4151569344692141,0.3173757939685147,0.2822940951776891,0.37049961839496515,0.4640019029838425,0.4213720607470126,0.3955771755492532,0.4647018528341986,0.5547107593943208,0.6456270630087588,0.724313557014074,0.777716351301553,0.8373846296666012,0.9091224023425242,0.9180887175675605,0.8360483547067012,0.7313299852527337,0.6281997530792798,0.5289014510787258,0.43755376861106354,0.35958189446353783,0.3246065907053164,0.33516881763150463,0.34606495993036335,0.3412613634051014,0.3222169127818617,0.25267948999904943,0.19158394888234564,0.22160690457795518,0.3089912807658526,0.39835104035268465,0.44473356836568056,0.46055471017294014,MI
0.25700578407917885,0.1877778543637545,0.17224601206784662,0.2420869702415107,0.3477269465635553,0.4761450848947266,0.5968516896611327,0.7010102004879633,0.793846902193498,0.8908495576034801,0.9558248089716033,0.986722869956842,1.0,0.9420934131192125,0.8823959215320043,0.8151362605399903,0.765895783878995,0.7226345364548763,0.6709031443859317,0.6774638960753832,0.8059466154442223,0.9270888871105365,0.8679220928178211,0.7125533963617645,0.5371242875271047,0.375434328597688,0.2943143020306236,0.3376952154431656,0.35376862244175555,0.38490093302839945,0.4322414784184412,0.4998394886609212,0.4423716066184191,0.31809008180287,0.259480407283168,0.2894439659794248,0.33722475862842316,0.3425836743491768,0.34270032921975435,0.35569987726303776,0.38978293128217434,0.40137692696238414,0.4366594392167258,0.4231428321870174,0.4380755984027127,0.4049543330528902,0.40961580704675793,0.38474790870120223,0.3742253379965579,0.34660799608988047,0.3425990433574899,0.3425927010350396,0.3405059892981459,0.31278910535701154,0.2677511096296854,0.20080454006965898,0.17012387673200102,0.2412004673542807,0.36476271223062273,0.4816121200861083,0.5998833822339709,0.6931199863117872,0.8036410650581738,0.9079985851533383,0.9679823375577135,0.9574430008482127,0.9119204028986454,0.8640990649739884,0.7789360322517522,0.7209059023783793,0.6971027897871886,0.6485673748771879,0.6140628205780541,0.6227145363204833,0.7146557162092986,0.8717505642600178,0.9668296839927457,0.8976848307781227,0.7386450757799032,0.5596592758177081,0.39534676792483747,0.26350125780509526,0.29875964541804656,0.3114657893731021,0.34197498035138896,0.39441346807444155,0.4386556079765622,0.3809991788323659,0.2876238030509217,0.3010908069253082,0.3405803594400849,0.3633819783049175,0.3444353562086926,0.35957209806290535,0.406262220205754,0.41404250409168597,0.40534838049162314,0.4059810033401732,0.38694151629460105,0.36941651372587714,0.3778168573642411,0.37816287678505045,0.36276513897747,0.34302429291894754,0.3387032095618663,0.3126143302763982,0.33249935592725866,0.32736586659556277,0.3161089404526223,0.2684300689011776,0.2064875225874765,0.14909103275402913,0.1762486567347974,0.27264639275069147,0.37712234928612975,0.49966546478854745,0.632555315407477,0.7321433160635094,0.8320245326871012,0.906101850103199,0.939123768824432,0.9137039380055034,0.849806558518118,0.8028896789636759,0.740551331940031,0.6927536956778582,0.6586105799809685,0.6059794314461984,0.5637620156944028,0.47964148489995395,0.4933540153834217,0.5397453525544744,0.5871546753914672,0.6351138486291408,0.6900681742535388,0.7499096371228697,0.8035576945796024,0.8148741756278124,0.7373040152400909,0.6424428239965012,0.5377852184151708,0.41613800209695384,0.28912613033045087,0.17234215608462566,0.07758360840625134,0.01512231750312143,0.042043275879597,0.09860334461961617,0.15412008340798877,0.2006278046390939,0.21807732265915636,0.1960104697884857,0.21731166044677952,0.22146172232768713,0.24112803341370004,0.256591455331062,0.25651108094022934,0.24158998381012786,0.260184369245418,0.2717530166682405,0.29144762922192324,0.292495167472719,0.2843441463082952,0.24915627698106846,0.23632788691101503,0.2387983415584598,0.24090662233377547,0.20435201475205744,0.17852952523181642,0.17264860557691186,0.2597312863548451,0.2999058255001339,0.24522976423352372,0.22068309437674305,0.19367211167592124,0.137595942114201,0.08785519816959741,0.1683818604371119,0.3302305104806793,0.45676695614414875,0.42287337661792,0.46695110145352015,0.5083214796118964,0.5467091948575993,0.5628853540666583,0.5964665017206423,0.6513310868584963,0.7246867090121896,0.7893650844482236,0.8324711981435264,0.8391398150200073,0.7939192369808987,0.6888088591440908,0.5828819979815192,0.4705835861792709,0.3530970970567484,0.23337130856550825,0.13092816185898393,0.03397630042743227,0.0,0.0627199279877999,0.12633208745370883,0.1944238394803124,0.2206186343898935,0.22500959530512077,0.23316581934058256,0.23418374316475266,0.22822911232335663,0.26088476697459306,0.26528605462764077,0.28235186257698786,0.2945774577205613,0.31928133033873607,0.30714299950648893,0.30652861353628236,0.26643225955203587,0.24694880109453266,0.22231691139410792,0.2209598903126766,0.21285795092226145,0.19835691266180255,0.14366193183579057,0.13169349524555773,0.17374313729440427,0.2845273395001806,0.3030432420797604,0.2609832506134966,0.2566450543492449,0.23902671486533844,0.15684768127888393,0.09142308721651915,0.163342715598632,0.3190861521252035,0.45585031106895535,0.42327430904553154,0.4775168499497511,0.552353361807679,0.5990468064098957,0.6377039639795505,0.6865827791873009,0.7542711419622519,0.8040814540349492,0.8576914869105332,0.8762849872349365,0.8157192798765847,0.747484745263546,0.6449784501725029,0.5312878705007842,0.4150386095349967,0.294346998817411,0.1953319273698888,0.08724215987949258,0.04459650361754619,0.06566062692033015,0.12262558732920503,MI
0.8198604555530553,0.7768171543476485,0.7576836737489063,0.7728833333031748,0.799086854199148,0.7847549271819407,0.7809941343422209,0.7657246416336319,0.7729183536495305,0.778919305842775,0.7857548312449889,0.7948329645103491,0.8097556350152562,0.7930561655100872,0.7852220810713442,0.7585654975055054,0.7344617001765521,0.7014950762555789,0.6566420914379665,0.6124289991762726,0.6266780497293729,0.6866813835059238,0.7557389268869403,0.8227645750759123,0.8842182613040432,0.9431708563066168,0.9806086606707536,0.9885918025501146,1.0000000000000002,0.9918527352002007,0.9488441488470982,0.8787403238733302,0.7929672338328142,0.701731224481595,0.6159422443416382,0.5178180165942285,0.4300289958143344,0.42498219076105337,0.5123424123072582,0.6062875139553479,0.7018944329293093,0.7974123563705697,0.8789135526168763,0.8854794333023122,0.8617695481785816,0.8413686964485263,0.861354871087719,0.8674267315325832,0.8388973096945056,0.82416949143021,0.8218788723815493,0.828707155966266,0.8233893932798433,0.8217823298058258,0.8274986896910119,0.8304568815959918,0.8152434426053874,0.793990305276685,0.770109138741865,0.7361368725453141,0.697563292032015,0.6554381084115695,0.6464227661973327,0.6992495040408218,0.7671573336461222,0.8346879910237781,0.8954999089996203,0.9473277098755675,0.9677889854979471,0.9683497995238228,0.9673355735043481,0.9467273958914821,0.8840040049926638,0.8050350522617842,0.7173289671158891,0.6242397453178354,0.5243205869100847,0.43084393879042016,0.3554510126970334,0.39124932181802463,0.48584668606960535,0.5838994086834528,0.6778526214703164,0.7722701825991882,0.8383853915296735,0.817927582823087,0.7791748106435803,0.7663005506038039,0.7700203567039374,0.7961625124725338,0.7672740234761657,0.7504708889100902,0.7559812635268324,0.7482165875223672,0.7486833251863139,0.7547506414311893,0.7700228342461368,0.7727025732285207,0.7701208397986747,0.7572370799151444,0.7353805939955287,0.7056851003944884,0.6675833458815112,0.6265737516294736,0.6036114741885263,0.6500667603364023,0.7151105720730995,0.7815283125558141,0.8478771306527733,0.9103896532152349,0.9454180158315404,0.9550517710991191,0.9667141079233577,0.953942985282193,0.9183620071140075,0.8519958122886144,0.7656347612573027,0.6765654252468527,0.6096435132698763,0.5188732424322018,0.4143268066200252,0.33821435105516096,0.25815694347016405,0.20919896652310377,0.25670120445432354,0.3164392273692205,0.36789348676076483,0.45926148584805415,0.5569259831949716,0.6511113272569327,0.745967558213257,0.8299469530060104,0.8921276993778304,0.9117665643220734,0.9059463405391959,0.886325169539963,0.8463248547361688,0.7767248898049204,0.7093564919721158,0.6449205612669304,0.5846275811102013,0.5441874601186727,0.5587686188831975,0.601944180713492,0.6403795183351588,0.6705041398578035,0.6916461382641328,0.7157332216243588,0.730861937306426,0.7226975408346823,0.712068283277189,0.7002369240132846,0.6958885655672098,0.7052662296546275,0.7030145182274812,0.6984653863479091,0.7214419328748731,0.7111298805105724,0.7140978550053914,0.7281458695233234,0.7327753500751395,0.6547824431477236,0.5613144692997236,0.4604122667493391,0.36745559507827763,0.2753704927744758,0.18371971984249735,0.08311741791890737,0.0,0.01292896425711132,0.09973071462378358,0.18546938236483101,0.2601022858917774,0.33241282225563107,0.4153489440308611,0.5137226452114596,0.6088903994018942,0.7064677213164858,0.7992213618604092,0.8775174073619578,0.9111278816907291,0.9214090859752597,0.9260731094391634,0.8961396045058942,0.8400918838072406,0.7791114233396443,0.7118675278188096,0.6415866513642821,0.5979560085228111,0.5966398565367343,0.6324813763405148,0.6725108895594476,0.7103933204426716,0.7370063715374002,0.7625997948406995,0.7792676363701678,0.7807410117886604,0.7684934500197602,0.7698199780879065,0.7749658719751336,0.7803092905286626,0.7825528671637703,0.7889801608916167,0.8013033449796729,0.7884009665580936,0.8001973073894721,0.8227006473472549,0.7960294588925032,0.699223209218202,0.6054286328294325,0.5086687816674351,0.4152604356903542,0.32248912428674825,0.22928325113030357,0.12796239416007826,0.07732707248343673,0.14302130013827763,0.23586685955962117,0.31660812548087347,0.39972011765585136,0.4897844176413393,0.5915904068135094,0.6858565332428619,0.7830421383879875,0.8668506861729768,0.9320367974996178,0.9574169420303578,0.9420440168430082,0.9206823772652781,0.8885939770955098,0.8286190342578845,0.7632994170442073,0.6921307982447786,0.6277386559830715,0.5718754335829053,0.5460801416364942,0.5755501989385683,0.6238079687850038,0.6653504808816455,0.6940788674653018,0.7196752149378589,0.7373859076520357,0.7528806809907651,0.7471007941025498,0.743244728656532,0.7349256686543184,0.7307278560865618,0.7186772599664095,0.7228051453610942,0.7356609257826829,0.732873732691014,0.7080720012208082,0.7063678172400303,0.7184348552234037,0.7135863877951081,MI
0.6381333321078033,0.6826528041784643,0.7156521107680551,0.7362012710589982,0.7180971659522966,0.6379506850693013,0.5363535303246239,0.5529242323696155,0.6667253176795089,0.7804325547739381,0.9053190754209743,1.0,0.983202401126015,0.9178863743572063,0.875030732284563,0.8914544134205231,0.8864513059275101,0.8445035303526969,0.8612935816718368,0.8570473173782474,0.8492174946529518,0.8515358997553393,0.8504135461889382,0.8380669967610439,0.8238113515356562,0.8226787678068863,0.8226782310175862,0.82267823101758,0.8224471286382995,0.8122518286038862,0.8030612011249261,0.8029663062890968,0.8097404757338551,0.8221723957554739,0.8228814272829124,0.8326339344284195,0.8375614426532603,0.8038010899881587,0.7456161071623977,0.6684092119436422,0.5817118859583523,0.4945432866692787,0.41228940353342614,0.3949525489127188,0.44523966770833523,0.5014618278155369,0.5541180413366846,0.6080627509430241,0.6543741311038529,0.6808379806664506,0.702116444885915,0.699527523106096,0.6496068343492847,0.5515691726881458,0.4802996747216626,0.5651092861102267,0.6786987668594486,0.7834986798870078,0.8760531909420659,0.9615623781133618,0.9375409374559713,0.8704854407049192,0.8465996719922644,0.8692338568361802,0.8432881441375777,0.807190310223092,0.8022528214105558,0.7892939872094873,0.7831713038370545,0.7831536509389525,0.7878525369026197,0.7980720144615989,0.7965472504925328,0.801072236621069,0.7973792019372641,0.8053907138668834,0.8204847916426128,0.8226741959465138,0.8226782310173606,0.8226782941690365,0.8232472210615809,0.8356606708155003,0.829737900034575,0.7824277853550101,0.7155948634936546,0.6372673158405466,0.5488761305374412,0.455012428932704,0.3783017914333997,0.3183536541274048,0.3422512281793515,0.3995013134065748,0.4500516593251005,0.5075951907322267,0.537366277434673,0.5744484645547985,0.6030783266236859,0.6184203889616509,0.5905453805641963,0.5093455712298427,0.4095937415269768,0.406770776087241,0.5161675522471425,0.6365298491263514,0.7483390588012728,0.8409563721215365,0.8201669512149796,0.7533673144051094,0.7160522071700339,0.7025940171792984,0.6737060098568324,0.6426905322704903,0.6381185715237776,0.5929866740126668,0.5139092940767407,0.39298584005297643,0.2702094834881166,0.1999999810457278,0.20848112517062445,0.2869663211297757,0.41116759327720365,0.5261209736660879,0.55603555012619,0.4712762006077629,0.3465535555936694,0.23527336264039578,0.19591931042569888,0.2175103291613576,0.3125334038839851,0.43773957303383026,0.5415099289210938,0.5819964499060761,0.6304768190165868,0.6401303348322802,0.6522847424037761,0.6899102100612629,0.6975238137703395,0.596780701203889,0.4804429780662387,0.35698259885876693,0.24866674538272715,0.1533610663060312,0.040780787392648676,0.0,0.08410767533208796,0.19822398038879507,0.3090892908167282,0.42454147364004013,0.5229979501015007,0.5532195330594938,0.5312146004109368,0.4922142261044318,0.46490490408717156,0.40976803743655665,0.3574579296707667,0.30356108731716347,0.2543097770852505,0.2542306079008312,0.30752120944985295,0.39024429051569953,0.47005049953644695,0.5612842350457727,0.6457238442538751,0.7194466083485374,0.7701272591208683,0.7742673762089471,0.7620324933161955,0.7642915898406906,0.7570644003252784,0.7619543133982742,0.7622975473940969,0.7560042150558419,0.745417432021144,0.7423881521803959,0.7441381839581442,0.7236470708612339,0.7349842120033716,0.7344628037077312,0.728801348776273,0.7354365901393711,0.7391005336256828,0.7483478818081597,0.7423509747707255,0.7746052316637826,0.793252282419354,0.781962155588984,0.8063466910700479,0.8213974958529637,0.7245653602263995,0.5992680003230451,0.47328207262954436,0.3521482409933081,0.24020875378661222,0.1269453909460605,0.07750936817639698,0.15410391979101234,0.2652224679780444,0.3812000921780121,0.4919820511435349,0.5961231624600107,0.6356029200550628,0.6297866387284254,0.6000892959158217,0.5506524317315313,0.4980878093141743,0.4405109324473355,0.38913833273201304,0.33878665457358714,0.32606437106253106,0.37083024429421974,0.4474998989095593,0.5312852572831086,0.617385673831921,0.6984793815455084,0.7610715930173253,0.7839089059947248,0.7752422366667946,0.7629804970799383,0.7555270993032721,0.7554458238430501,0.7554458238430559,0.7554471570034651,0.7569766260092021,0.771481482375266,0.7675183211730334,0.7690359043724619,0.7751678526683223,0.7754920410914306,0.7860441499165973,0.7948664119682971,0.7949940986713213,0.7942010902213981,0.7735553285561427,0.7760544222007351,0.8210157990299458,0.8143715572870871,0.813896199586472,0.8437341118735531,0.8586365925152148,0.7634768071371991,0.6469702353948987,0.532225054225786,0.4072989939343685,0.2946039437988568,0.17529486752240242,0.09809707191579875,0.15831574602357845,0.26796841024095386,0.3830351088592341,0.4936185813327971,0.6018063523138375,0.6666135649064233,0.656478890206619,0.6175355728366845,0.5704959040840119,MI
