0,1,2,3,4,5,6,7,8,9,10,11,12,13,14,15,16,17,18,19,20,21,22,23,24,25,26,27,28,29,30,31,32,33,34,35,36,37,38,39,40,41,42,43,44,45,46,47,48,49,50,51,52,53,54,55,56,57,58,59,60,61,62,63,64,65,66,67,68,69,70,71,72,73,74,75,76,77,78,79,80,81,82,83,84,85,86,87,88,89,90,91,92,93,94,95,96,97,98,99,100,101,102,103,104,105,106,107,108,109,110,111,112,113,114,115,116,117,118,119,120,121,122,123,124,125,126,127,128,129,130,131,132,133,134,135,136,137,138,139,140,141,142,143,144,145,146,147,148,149,150,151,152,153,154,155,156,157,158,159,160,161,162,163,164,165,166,167,168,169,170,171,172,173,174,175,176,177,178,179,180,181,182,183,184,185,186,187,188,189,190,191,192,193,194,195,196,197,198,199,200,201,202,203,204,205,206,207,208,209,210,211,212,213,214,215,216,217,218,219,220,221,222,223,224,225,226,227,228,229,230,231,232,233,234,235,236,237,238,239,240,241,242,243,244,245,246,247,248,249,250,251,252,253,254,Target
0.1353308155587758,0.15428326158807693,0.15957749142703914,0.16566077245640898,0.16688436014515107,0.16655884568089752,0.15344302666582488,0.14037800711673354,0.12617437502828865,0.10208235423112999,0.09131414430408302,0.08018788246483144,0.08552761933050768,0.07427240107389999,0.07406338634640752,0.06496637401932359,0.058547063598056504,0.07150755534904318,0.057656645315288024,0.05352797782496799,0.03812921522222901,0.037063374930846216,0.03753756945226616,0.053985161330619036,0.0830582981528809,0.12222578578912469,0.1647401352134099,0.2206163355123234,0.27251451195090093,0.31913791458141816,0.3772900676225648,0.4356915285527614,0.494092989482958,0.552494450413155,0.6108959113433521,0.6692973722735482,0.7276437530303905,0.7773976125718649,0.8260838970028352,0.8843572975171239,0.9426046709087048,0.9867542562488376,1.0,0.9697523312055321,0.9230980075478055,0.8719904800064375,0.8214998413382628,0.7901244838205086,0.7445319096809242,0.7111112351637989,0.6678854070060214,0.6374161185260192,0.592708911160261,0.5346030937645483,0.47620163283435213,0.4178005367221149,0.3605724049889374,0.31677614929673226,0.26114018487233226,0.20308292904043856,0.15800764384432853,0.10527667755105163,0.07504835037193569,0.07421295387353632,0.08300769824656973,0.09077058270318883,0.0757285942550503,0.08578538340089814,0.09461629442674813,0.11739938454385657,0.15222844294783,0.1856898304508059,0.21862665988595298,0.233555734830853,0.238274933276716,0.2232676426842417,0.21160287837163372,0.18333429335827756,0.16159499854796744,0.14957713519136995,0.16235619445868865,0.14633719818230562,0.12967969135985102,0.11449294744834537,0.11124924832181238,0.11124704883961423,0.11124704883961112,0.11124704883960845,0.11114546775691148,0.10188080567387514,0.09276463961638548,0.09270113036238614,0.09270113036238259,0.09270113036237948,0.09270113036237682,0.092692068696973,0.08856074032392014,0.07474542668429196,0.07415521188515406,0.07415521188515095,0.07377350733002253,0.06006735545863906,0.05561320594837316,0.05560929340792864,0.05630170872605467,0.07051948987506362,0.07514070465295086,0.09168346577061026,0.115319707218553,0.1299517804902912,0.14344149371293957,0.14839976920922693,0.15817025838682364,0.16472298766538884,0.14939342449036008,0.1450247310479038,0.12650886755660284,0.11164105727436802,0.09982131281867312,0.09082843970883392,0.07326366777032023,0.056551718988520516,0.0467702538599184,0.036957968752848736,0.026316360385080007,0.018555619325359984,0.01653816400700059,0.001210929412386097,0.012047829360920304,0.018494313779688465,0.02134674657160396,0.039390564054566646,0.06936899827701248,0.11959208929369769,0.16418861812076457,0.21008729673730242,0.26225595586305506,0.32063146129338893,0.3754754026271989,0.4196766503284315,0.47729265381064323,0.535694030145371,0.5940942221435321,0.6499095125507082,0.6936140719389803,0.7507543836535082,0.8091554163191419,0.8675568772493389,0.9243436224742165,0.9671151193542382,0.998528710041223,0.97880329513371,0.9286128671172555,0.8702490327051846,0.8142204446647519,0.7710429336570366,0.7135893893424554,0.6551879284122593,0.5967864674820627,0.538385006551866,0.48001548609037004,0.4292160873988293,0.3816324221126828,0.3233250813082882,0.2649243130034944,0.20814991803333793,0.16482852103198953,0.11045059380952438,0.07087387596138495,0.055692553857964455,0.05133303120789945,0.03762607420541464,0.03706718172672652,0.041446612077496336,0.055343092641259695,0.06968214637160175,0.10651049907633903,0.1424986482931856,0.16335207092086002,0.1819211575542159,0.1853946885829041,0.1774413777242354,0.14938792592887662,0.12643558375194708,0.0967982450259024,0.07308605714372263,0.05752330872842659,0.055609610640808604,0.05707435930546367,0.07234436274695355,0.07415438707917943,0.07415521188499907,0.0741309848414069,0.06776322602760665,0.05574353666062892,0.05560929340777676,0.05560929340777365,0.05616020031498303,0.06980002158760801,0.06836484456344305,0.06637948155162787,0.06673848774644053,0.05570784989179245,0.056054069006781226,0.06929664042150652,0.07414131298686266,0.07415521188495822,0.07415521188495422,0.07415521188495111,0.07415521188494756,0.0741552118849449,0.07415800353541879,0.07782012995508758,0.0919668536734215,0.09378657701453275,0.10922010219398892,0.11786502686778721,0.13008048698522634,0.14388729763257047,0.1425570071117792,0.13005299582354723,0.12938824304808083,0.1149021682212501,0.09551323767317443,0.07716280602126524,0.0630831549991937,0.05384643353186558,0.03855837078967905,0.036578101393296425,0.022691183869429032,0.018520967165224445,0.01830577709035497,0.007167923487366945,0.0,0.0010361040481656758,0.013728236021020912,0.0077046675634115935,0.03467756876297079,0.07227958201892237,0.12048296955303694,0.17777993729473351,0.22091100974367395,0.2769978128488053,0.33539811059130553,0.3937449349839701,0.44352345582379993,0.4921860289697073,0.5504580358348798,0.6088593275741374,0.6654516972400066,0.7087589059779105,0.7655186642782907,0.8239194220086512,0.8814198791070127,0.918624101151182,MI
0.4151114460194494,0.4435199834113881,0.5007716180882396,0.5408015962876478,0.5899596921374766,0.5997416901114709,0.6254764496909031,0.6120711746693033,0.5946556149194508,0.5590628120570873,0.5116746920208604,0.45956121448054965,0.41721870142391015,0.3806823747369874,0.35234165904006165,0.3371217602813754,0.315135723949024,0.3022841452817895,0.2833720559198616,0.26638899833752383,0.2514967521272409,0.2304938513932573,0.21931191280867068,0.19515914877678853,0.1888909745858971,0.1888934423690971,0.19651906756146342,0.23665541541753843,0.27574681279596724,0.3125270546279255,0.3934670341518798,0.45417933697925594,0.5301528515273013,0.6139698807442793,0.6861516772670502,0.7503506207530686,0.829133991049126,0.873332375772442,0.8788356538845452,0.8222842672317787,0.7543938237492664,0.6861926806194347,0.6023766208887151,0.5194357739844904,0.4593642041427257,0.38235254816985975,0.29852478409593974,0.21487698208122818,0.1507823834368507,0.0794053718328005,0.038919744398838496,0.06185175490498729,0.04775454413938718,0.031513104143538584,0.03146605878800557,0.03146605878800024,0.03146605878799491,0.031476987542182755,0.04185535071964619,0.06261795802025816,0.06336971310348094,0.08552410055626769,0.09441510684897825,0.09444464119588858,0.10468899938410825,0.14458786891806863,0.1577222702577128,0.17994368344253786,0.2083947184377406,0.25986333529044625,0.2831864964263957,0.2833383655970607,0.2832321344531765,0.2685732046302052,0.21863450612066515,0.17062969768726255,0.14345498816888647,0.1160384963921004,0.09477183876750761,0.09443413549018764,0.0944341354901832,0.09443413549017876,0.09443413549017254,0.09443413549016899,0.09443187923123375,0.09064588472585022,0.06468242255027867,0.06295009713900956,0.06295009713900335,0.0629500971389989,0.06295009713899447,0.06295009713898825,0.06295009713898381,0.06295009713897937,0.0629216215599202,0.05360135794012244,0.04473847287539545,0.06234111103511886,0.04116445419284798,0.03147607093681781,0.03146605878780928,0.03146605878780484,0.030355242102535485,0.006136674585778046,0.0,0.012398400427339418,0.03912980838864755,0.06222945645866673,0.07520682794534217,0.10200180913709467,0.14183270956350924,0.1696606241105023,0.21055197588233288,0.2520427265307559,0.28484752755765186,0.3199588171029397,0.35048072006298625,0.38830110741103674,0.43058451585085233,0.47208823998812477,0.5137808290057118,0.5350252323222424,0.535207587676978,0.5297832755851051,0.5019743994739185,0.4664469882189648,0.42012011769221935,0.37617535382787537,0.34742720158345364,0.31869702890238294,0.2902202405329408,0.28176494301646215,0.2592669203086393,0.2785258166465576,0.24671603304101009,0.2207981559922203,0.20947425601720138,0.189034487963057,0.1739573565046486,0.17708857610371975,0.18881054027540944,0.18909183658350948,0.20901563139637425,0.250266199326159,0.2840818916948846,0.33814531918384283,0.42120422708805183,0.4829160081456765,0.5578248552572793,0.6416390687144649,0.7233150333871388,0.7809840614543209,0.8616486520204978,0.9356289124648125,0.9915324671617674,1.0,0.9574095261657627,0.8891045252918834,0.8262678691216774,0.7427583918892964,0.659090242623976,0.5935279064036134,0.5227260697237268,0.4389065550965219,0.35517373064176905,0.2849460856977366,0.21876765608137827,0.13515597408538316,0.06922216646385149,0.06295305847861954,0.06295009713876887,0.06295009713876176,0.06294639546395153,0.05631353970491926,0.04079919660537623,0.06235839883108252,0.06295009713874133,0.0629500971387369,0.06296448078941186,0.0759435375169275,0.09426758928168422,0.09443413548985902,0.0947559846987085,0.11571898234728994,0.12641342158397695,0.150094912440486,0.15870665552348218,0.18978788835657934,0.23177659762831304,0.2727586569781124,0.28852043968666585,0.31338317659285053,0.31180032616502906,0.28381535949690306,0.25014776417906415,0.20888720635471802,0.18014138439756167,0.14130555502431008,0.12593516629100687,0.12591817384093495,0.12591817384092963,0.12591817384092518,0.12591817384091986,0.12592480160152153,0.13306556668606273,0.15642620899045756,0.14161475794065925,0.14638443806087587,0.15733885561193972,0.15740221219203132,0.15740221219202688,0.15740221219202244,0.1574022121920171,0.15740221219201178,0.15740221219200734,0.157402212192002,0.15740221219199668,0.15740221219199224,0.15740081965717856,0.15513593847270357,0.13333217706562372,0.15565394384721465,0.14654084511359322,0.12618981849955357,0.1259233209315065,0.13233296497451885,0.1563834971543283,0.1574022121919496,0.1580517121489935,0.18344052167500102,0.22196979896860913,0.27076843533279593,0.29836600854220485,0.339393245283663,0.38089696942093454,0.4268917336719511,0.48025141090706924,0.5094742934369698,0.5488651934811646,0.5888413029205006,0.5960634636653754,0.5699754955111986,0.5519107975569142,0.5101270014202619,0.46847166701165754,0.4267136288708633,0.3843833842221569,0.3428159755580813,0.3153838428039828,0.3128073165400478,0.286936620766304,0.2794099357123514,0.25150208861307455,0.22394357970023293,0.20858408086211266,MI
0.062123194171939566,0.06212319417193646,0.06212319417193335,0.06210937203082478,0.05552777422729527,0.051895914137835675,0.06262858556413109,0.07904486484684359,0.09376738289126907,0.12426135419822604,0.1559178495834903,0.18761162459708647,0.2192623160120224,0.2583600147802563,0.30359745041470276,0.3215255944477393,0.3396963879249655,0.34167253420780463,0.33367037586851467,0.3123588325073703,0.2834160638855385,0.26221061636762455,0.2396438057551622,0.20828398579580965,0.17791525889784632,0.1552780281283801,0.12417712930874236,0.10442224108544496,0.08591383503634509,0.0657629020407362,0.0621240824446021,0.06132074832254375,0.044976229165608395,0.0406154425533769,0.037807675634620175,0.020001096847328537,0.024459985276729324,0.05824379954299452,0.10124643449070536,0.16094525817124117,0.20706300928981225,0.26689865394711143,0.33022979959894583,0.3899634672097747,0.43652801004035835,0.4987364869448956,0.5620734538204575,0.625385199778663,0.680714746142614,0.7307922850150308,0.7939161096527827,0.8572412450975544,0.9143354773561847,0.9614858205017645,1.0000000000000004,0.9981401998408788,0.9417664822661105,0.8855990301797019,0.8363446212115186,0.7732535230107564,0.709916369671332,0.6465899702981468,0.5887929880810794,0.5409268281508979,0.47807371383900454,0.4147365604995801,0.35139953783168165,0.28890921108588685,0.2419749529968369,0.18289612567953117,0.12250570373342873,0.07689978744553727,0.025302817875074712,0.019116426170420642,0.024075973336826095,0.05308040974488115,0.08094624123128247,0.10143923428062651,0.10912059899092252,0.1361066931535695,0.14661651651198593,0.124189234123949,0.0937321574758525,0.07902139384980478,0.06273982422313562,0.06212319417180323,0.06212319417180012,0.062123194171797014,0.06212319417179346,0.06212319417179035,0.0621231941717868,0.0621231941717828,0.062123194171779694,0.06212319417177614,0.06212319417177303,0.062123194171769924,0.06212319417176637,0.06212319417176282,0.062123194171759266,0.06212319417175616,0.06212319417175305,0.062123194171749496,0.0621231941717455,0.06214405869144812,0.06955287317514935,0.08339544130867971,0.08362915169710439,0.08362915169710128,0.08362915169709773,0.08362915169709462,0.08361324058586295,0.07624290659102195,0.06233865138180672,0.06212319417171086,0.06212319417170775,0.0621231941717042,0.06212319417170109,0.06212319417169754,0.0621548181002467,0.07101010188452594,0.09225342700032702,0.12065577959819462,0.15130948870511274,0.19129109791472754,0.2268302887374083,0.26003578515486314,0.2918011189709495,0.3180578314266902,0.3331480029746703,0.33967867186959255,0.3199732733577294,0.2987985230905803,0.27282029137707164,0.24966969187124866,0.22001909966633004,0.19267606213816357,0.16740896244441839,0.13578421235273286,0.10772942258769191,0.09539469104312515,0.0936672900682658,0.06645772987006504,0.05889669228287042,0.041441252657901995,0.04058197952361997,0.03241553919575324,0.01921078591086056,0.01711444361344272,0.0,0.013910070753053727,0.004534838714187028,0.04027345679009242,0.09233439289406231,0.13936766686574353,0.19799864735381512,0.26132670381883427,0.32195175778705654,0.36801037447447893,0.42983316212255884,0.4931700526507119,0.5564942317035868,0.6134625785713275,0.6619446653037744,0.7250127084830376,0.7883484112217034,0.8467621413417743,0.8940758440381935,0.9560439997482768,0.9843030588073405,0.9595350927694857,0.9102589629551514,0.8620593192983361,0.7991450091293051,0.7358078557898806,0.6724708595499318,0.6101140406236794,0.5633549108149563,0.5039640841108155,0.4406280466181278,0.37729368304635447,0.3166703733553282,0.27122373317709636,0.2087857284762613,0.14750536492025157,0.11027874923472636,0.07980902427938119,0.026879173222082997,0.003856728890647698,0.01820217241906885,0.029820064001779834,0.06041054778975852,0.09159751349660628,0.10496297701889556,0.10773516923671211,0.1329729656842371,0.14712928939547476,0.1275764853683321,0.10281522866717552,0.08168383744487118,0.06301180581018606,0.06212320591733045,0.062123194171571416,0.062123194171567864,0.062123194171564755,0.0621231941715612,0.062123194171557206,0.062123194171554985,0.06212319417155143,0.062123194171547436,0.06212319417154477,0.06212319417154166,0.062123194171537666,0.0624746421752671,0.07717218254904923,0.08361576810981841,0.08301958864950398,0.06692803256415036,0.0621296877155304,0.06745707668457301,0.08324214572864674,0.08362911205495793,0.08362915169687835,0.08362915169687524,0.08362915169687168,0.08362915169686858,0.08362915169686458,0.08362915169686103,0.08362915169685792,0.0834876952590049,0.07228375951080457,0.06216462111698018,0.06212319417147416,0.062123546544124775,0.06384140728592413,0.08185569430876605,0.09869037421356053,0.12997691765739106,0.16181871320821495,0.20191823195967284,0.2440394480582606,0.2781763103782513,0.30920869094749515,0.3240220230771067,0.3407127319193126,0.3415257726646952,0.3292109725975165,0.3071699317967207,0.27964498514012215,0.25511672506543004,0.23076863698903738,0.20251073174917478,0.1707753666302585,0.13968627455809868,0.11747888042312526,0.08895834523779333,MI
0.579640592377284,0.5796405923772912,0.5795279962528492,0.5655085400401147,0.5521503588061161,0.5574354344534505,0.6077900367113425,0.6573856321553451,0.6806220587122209,0.7205821722520205,0.7781142846190003,0.8002365940656131,0.781864291435761,0.7168826435544049,0.6489086184555606,0.6013236389494678,0.5647467581123631,0.5130569995012606,0.5029355165695004,0.4709887216418056,0.3869548264117193,0.2985175152389954,0.21007794880771158,0.12164056210001162,0.03734919690769711,0.0050016939891079915,0.0,0.000382683538992179,0.01838639335521508,0.03920198406431519,0.08296596464273565,0.15111116632179922,0.21117145515191416,0.2551283887863449,0.3338569549939687,0.3867234024056869,0.4426202416173193,0.4853213527710367,0.5020047707797626,0.5354437236958449,0.618525612745835,0.6855958420776589,0.7666347287663657,0.8324884777629857,0.8911863622507536,0.8292357369578727,0.768573514409796,0.7440725854877877,0.6991360382466607,0.634892313602831,0.572553261376497,0.5513829763638403,0.5301328846771667,0.5345874037846134,0.5518590302897421,0.5578593755191865,0.5739073428589472,0.5539524656200379,0.5721054584872047,0.6015483004327034,0.6355034646088273,0.6777312415724093,0.7077877356224662,0.7287434886050552,0.7793854267060332,0.8241402908038995,0.8536268856236178,0.8799772927630456,0.8665676519787779,0.8348447350066217,0.791141673670904,0.7521395037546523,0.7451102363076703,0.7283636822116475,0.6989923179550597,0.67043108324614,0.6703636410956277,0.6895328671752554,0.6882107738342218,0.6653532062531808,0.6615819537865879,0.6411312186555223,0.6346859168404078,0.6178475750144803,0.6072931032919544,0.6072453267927602,0.6097210825722015,0.6352162989284094,0.6615058990525289,0.6853808876850693,0.7195830266077601,0.743241122752925,0.7138762440203235,0.6557797257080034,0.5877128962142293,0.5284959826130158,0.47101536688976475,0.4410019730623387,0.41496302520649087,0.3781696832660315,0.3266807127158615,0.3043781615084806,0.33354962300063784,0.39554274799336886,0.4614160362063191,0.5437785894961009,0.6150830089101444,0.6934370987197114,0.780662302520772,0.8116854965217484,0.7496604877944351,0.7175265856880357,0.6703853044575232,0.6061075298971388,0.540433008536247,0.4863240062442089,0.45489734570564844,0.4417691319768742,0.45396195447762944,0.47078982333089536,0.49260202613309323,0.497344079565361,0.520283988032102,0.5630567233674877,0.5858745472242552,0.6142157811946176,0.6372884228082456,0.6714582553334973,0.6948968399204936,0.7248033152741873,0.7680725033104161,0.7823224237205673,0.7983517084059888,0.77567564743021,0.7562804373830425,0.6927065645372248,0.6483178099829661,0.6394590977199699,0.6793614267853552,0.6637524996293744,0.6409452099001789,0.6446043321056476,0.6601190368456176,0.6369758423799072,0.614646167595819,0.609831739603456,0.6307353070027646,0.610527151686536,0.6031162738016334,0.549396628584804,0.5247006980811286,0.5276412425256969,0.5546261014606917,0.5855625917344649,0.6368029382947022,0.6823498796705763,0.7379782980799274,0.7842559064004182,0.8360727168943574,0.8545140406921834,0.826085633162069,0.759623029635375,0.6938028598803538,0.6329923313576757,0.6075956597635384,0.5996283586845226,0.5383812553805911,0.4793106491298542,0.44609247381643824,0.4836759190160618,0.5426332202991779,0.6116325494744852,0.6793209021486342,0.759555613812076,0.8257037825344073,0.858396046536265,0.8026479406998583,0.7276465463657522,0.6923673846740113,0.675639049775191,0.6170314294487844,0.5467575897505141,0.5002418944785716,0.49683157946452594,0.4968299824393321,0.4973740493682528,0.5178651446650071,0.5458845776127847,0.5523491840629036,0.5692710117285462,0.5988519845778391,0.6284364064138814,0.6566214601003817,0.6778556716317907,0.7095415150756792,0.7524983164815509,0.7735157170483267,0.7939011179676876,0.7791972374089213,0.7454257964969115,0.71179349148326,0.6823242912092753,0.6594541483452416,0.6359280209727154,0.6129277222819627,0.6072525405703826,0.6072441290244188,0.6071706058228297,0.5949407465252956,0.5825764567621392,0.6050213989426809,0.6072546630384434,0.6132071764170761,0.6412118560894462,0.6474437933980233,0.6382937573022152,0.6608890187687391,0.6641314213750582,0.695936173121416,0.7622755567938548,0.8096206424297985,0.8501167250176098,0.8841598295855593,0.9175831506808625,0.9217149806014153,0.877590240984063,0.8012514726955087,0.7329373711303409,0.6869689032605346,0.662178598585736,0.6306109790090111,0.5859306519077259,0.5304629308533033,0.501049609676794,0.5316889755937457,0.5839033818211532,0.648068350967002,0.728430926600034,0.7967122627620102,0.883811078787859,0.9523202973606186,1.0000000000000004,0.9324422441786919,0.8659547250574593,0.8137728822223402,0.789972325122068,0.7164032155654207,0.6485694341558061,0.5896756226196831,0.5531635669957979,0.5520447597887519,0.5576539704120056,0.5847155021492383,0.5847287121036486,0.5880719828779379,MI
0.2669725641383187,0.27005808839113765,0.3082857898540379,0.3656183066960139,0.3927607835393876,0.4053731999797261,0.43258362332937716,0.4342440998701429,0.4293446230847153,0.4138848640226285,0.4297364638544767,0.4232521746196536,0.40445422021652,0.35554529511748134,0.3075270278603859,0.2589997600685212,0.19446747610192272,0.14592005274940645,0.09257594182057183,0.041733784241540395,0.008908916060542005,0.00014523658404730355,0.01597711901504395,0.08118052467759362,0.13835253772901934,0.18740630368144817,0.24187199412403393,0.2857866078452278,0.2897470956295787,0.3311021890255108,0.3793453575451009,0.42012038351378633,0.41290341463022306,0.41252498549360084,0.40574441388216753,0.37779215388265674,0.3139930219745235,0.2418933450302876,0.16976966876012867,0.09764938730296402,0.029362335434436115,0.003617987351435925,0.0,0.0005934862413909947,0.017220956182768976,0.03690054859220293,0.07514781466812748,0.13247683391920395,0.176704503808212,0.2205389818148289,0.28030542215830234,0.3221928628471602,0.3644777483269488,0.3905686368591139,0.4087842518783167,0.4123357543270245,0.39849581228006326,0.3908637632159815,0.391343301812102,0.404803990026958,0.3927370782002262,0.3913250577088725,0.4048045706023866,0.3943367948853522,0.39846682658078425,0.3939306128506961,0.39621877191438104,0.3982777229272281,0.4281470068072486,0.45026668484188015,0.47673497003588494,0.46299484571310057,0.42826994970862664,0.4115347405017218,0.38126287852189567,0.36112316314190496,0.34754404782669646,0.3349178478770485,0.33599059626340244,0.3372377381272065,0.32644496427671266,0.35362642850168413,0.40755619936677157,0.4782448024384345,0.5345224511376814,0.6009747636962386,0.653780680148055,0.6931226320761956,0.7526825329772473,0.8241706359946379,0.8807097428046124,0.9353900688693124,0.8998050128867932,0.829929278553645,0.7755032390880152,0.7066890085611699,0.6521422223118472,0.591582750348906,0.5444240891971757,0.5140163588563329,0.4690036394008201,0.43585376530387077,0.42150130131040875,0.42255861874636125,0.41972727165242985,0.4323592396551912,0.4445998705818073,0.4582200821570255,0.49040500530150855,0.5035738618959784,0.5206261500294862,0.543516547356468,0.5685099859484053,0.603217743455088,0.631771341045249,0.6597073505823028,0.6865533721719199,0.7143760417403016,0.7372271487079995,0.7883549794044082,0.8195792738236847,0.8460498388088595,0.8641713491247307,0.8624656395864796,0.8265236162322753,0.7810246034287425,0.7312907725488458,0.690149745600495,0.6425687756802168,0.5946034531738826,0.5635055333404182,0.5217028867157416,0.478850530518645,0.45098513937909335,0.4341519197158128,0.41794286231142186,0.41254970018245496,0.4125377927816922,0.41253779278169356,0.412537792781694,0.41253779278169533,0.4125377927816958,0.4125377927816962,0.41253779278169755,0.41242074230796666,0.40098322857382795,0.40027650818138216,0.41239876338489045,0.412537792781702,0.41250527662750125,0.40370138392940325,0.39791501889551206,0.3989984940945477,0.3911442811634336,0.40421856734141137,0.41252139829563683,0.41184811155299794,0.3958109248037678,0.39090212529652435,0.4027896836751874,0.43291327682304903,0.46511968424374617,0.4979354409459753,0.49820921575197374,0.4688749696602059,0.4528055250621792,0.4099423703561431,0.3854894974862768,0.3624208282138648,0.35895756676079404,0.35112266327465225,0.33346566950645506,0.3219902833962034,0.3076613689894727,0.3381706813518597,0.39296302592729804,0.454607956232425,0.511184629839661,0.5775402077951073,0.6426303346564923,0.7003185451151115,0.7721898241844949,0.8374856893274565,0.8949834413101287,0.9664999788152251,1.0,0.9385985554973688,0.8671282475197262,0.810909812004148,0.7441586117211827,0.6864459289455422,0.6325983116821288,0.5946948356767541,0.544444007292705,0.49440348748974383,0.45967689339159046,0.44181704578305236,0.4343294692650619,0.44192329149829757,0.45592364899866,0.46823913298612574,0.4918129071139812,0.5030446183099069,0.5204355942881111,0.5423291835030026,0.5686026838752665,0.6078710407290426,0.6314620279503234,0.662035140472315,0.6950753284135951,0.720442515264756,0.7474507434174154,0.7927312778852516,0.8269050786191485,0.8634732013571051,0.8903423709902136,0.9084594290174692,0.8932150455708094,0.8510745073583172,0.8049320440698935,0.7504080677297802,0.7157863279272951,0.6692528992394529,0.6156536028840218,0.5720949215332514,0.5378198410378863,0.490153389667503,0.45587424008739186,0.420339577022121,0.4125572016780197,0.41253779278174285,0.41253779278174374,0.41235649622516846,0.39895797708900593,0.39116692839636213,0.40454797715264235,0.4125221485383177,0.4125377927817482,0.4123717124026891,0.3994360217180888,0.4018471187249584,0.40792279128957043,0.4000014822861999,0.4093868458615728,0.39234439870753723,0.3908244397321976,0.39104399704999393,0.403549838543773,0.40680837252913005,0.3924946423566582,0.40928694262594245,0.42998609018224077,0.45889534936886145,0.49492125695895295,0.520596726425925,MI
0.7831042607286376,0.7600605329320222,0.7977307732894845,0.7870712916582283,0.758454048055901,0.7715883634536427,0.7559827585379955,0.7741473941556452,0.7598063710010425,0.8090241807788221,0.8580972528084567,0.9003326420986832,0.9704766046514077,0.9891109304068797,0.9099276904454001,0.857518349864482,0.7869530395898883,0.7248514365440855,0.7237878566015858,0.7476684067285806,0.7122845394218702,0.6772532114402203,0.6155640434373009,0.5395905543102169,0.46483593365320086,0.3904863472995279,0.34896872050978267,0.4278918977708459,0.5396511197214497,0.6344803202559248,0.6566580537445015,0.6520631732667752,0.5950481602742812,0.4857837332627559,0.373732935966439,0.26168116651687523,0.14963241861871435,0.043829912960172024,0.002271321426241535,0.0,0.009615704745883136,0.038154892937364515,0.08100042092275483,0.15107016728441192,0.23763538232534565,0.3006590083499736,0.378132037395277,0.46709995280459093,0.5322073025825951,0.5980370122240188,0.6382157387291594,0.5979150972330229,0.5160773291337035,0.5099077047706482,0.5958591958020616,0.7077468646101934,0.8077034125773439,0.8581965989398075,0.9050430176458235,0.9342685384683529,0.9495577011972873,0.9375591414438418,0.9659635389565882,0.9759032403079999,0.9342828231725582,0.9068677307737678,0.8986119882912078,0.9440527626077069,0.9497319475055992,0.9316679057652388,0.970584031614969,0.9975083017710951,0.9478300600809604,0.9149387764551635,0.837254156878779,0.8283544450666822,0.8293562717972494,0.813237672977059,0.7585995211909609,0.7751803954283751,0.7901859986177762,0.7960441960940319,0.7857996312454683,0.793344658746201,0.7933608684543723,0.8126365966458824,0.8787406500899788,0.8972615311574623,0.9149236331484998,0.8508159907778694,0.7432214934710455,0.6750556125383911,0.6446877803856621,0.6426751504308221,0.6121192559029733,0.5721523080446902,0.5668227602235589,0.5081260646712096,0.4512730532400182,0.44924162159394854,0.41548237230265705,0.39777958822994997,0.4730039574874736,0.5402931341690884,0.5956577729752501,0.6419262333398663,0.6643769887528501,0.6785715477404279,0.6920735504248672,0.7405495680278502,0.7500087224907999,0.7492197347055232,0.7262840273194877,0.754656574772592,0.785506664383373,0.8017683800737476,0.7862732538681074,0.7621942862815256,0.7216102441373495,0.6804112163954317,0.6292188367864266,0.555778343737078,0.5395499150164182,0.5728738374921658,0.5824950585073791,0.5714843340980229,0.570521043252068,0.5390369528334578,0.5129401246523067,0.5585728287431015,0.5851547908057952,0.6480190242506945,0.6846838191793854,0.7380531392662357,0.7788568752135889,0.7506883965844837,0.6934056703525746,0.6054898991288136,0.5719260641796078,0.5481826523102926,0.5420258187540119,0.5445713450349672,0.5502998626551419,0.5373084367846159,0.5159164126334641,0.48855126032197926,0.4073481537305321,0.3622444875558015,0.39659807409977343,0.49006145044741345,0.588334459037438,0.6343627405702925,0.6759950159230179,0.69825394607936,0.7481099246485572,0.7503106550487093,0.7698272907915147,0.7884446871031487,0.7987532711391294,0.798696425748636,0.8220756450123172,0.8489335054572722,0.8635711334541414,0.8654253198214334,0.8405531571425557,0.8141634229835173,0.766947817012813,0.7385759513595955,0.6720448137746384,0.6495373518185428,0.6515284727779775,0.6416538014238675,0.6177421001326273,0.6497009809254815,0.6473896300754385,0.6578206457152262,0.6784121945446495,0.6809454264113652,0.737638541543399,0.7852684121407236,0.8243839141101468,0.8806650598303545,0.8229809189400097,0.7537437364083175,0.7197350593023124,0.6550199981987337,0.6428968407450126,0.6460641561602651,0.6552369480209554,0.6333390858089896,0.607947331506919,0.6202475260295026,0.5888818884301044,0.5049639260873144,0.4667020027756692,0.5014110641260707,0.5798658871871245,0.6883143109961125,0.7500238660354555,0.799768295925614,0.8538706500565816,0.87062987903969,0.8609371117836533,0.8903158415616117,0.9075912079575996,0.9298925813787502,0.957657537174482,0.9784679497415354,0.9668036949005128,0.9875264594772748,1.0,0.9976937838328723,0.9674886027484977,0.9344027882659649,0.8694753336194285,0.8392396030729667,0.7930098133091628,0.7857447496465824,0.7857332857618085,0.7857332857618129,0.7857339259602973,0.7882365723020639,0.8364810738814512,0.8607975386976303,0.9260185667494429,0.987583494976846,0.9577068350966051,0.9162129039284324,0.8492131287917024,0.7730214268313453,0.7488925629376375,0.721335946289857,0.7306397350785989,0.7125096999767289,0.6822247489234341,0.6785047511477824,0.656690188016329,0.5573247100889738,0.4655347916339725,0.43047291519768116,0.4697088830733893,0.5499557008285061,0.6581604127508358,0.7215523997529409,0.782113256078314,0.851984798319771,0.8694844777322634,0.904108705710553,0.8858101217367027,0.8646112200892935,0.905151915184156,0.897694142202826,0.9063917624688376,0.9049742425740357,0.9282492656812593,MI
0.16248555207380377,0.16429935059114298,0.20331299961768012,0.2701880665418783,0.35328167801718324,0.4120134847829955,0.4331593667432503,0.4331622871374967,0.41663184998824,0.35934645157961453,0.29478381716830127,0.21630230370786485,0.16530808516573314,0.09230015996904362,0.04027130435704951,0.005557479632686491,0.0004514311888845768,0.03006764457479605,0.1128330788527867,0.17846810742332764,0.2381949721839911,0.30367752584749974,0.34961000122865427,0.38434291614964833,0.4475290115578754,0.5183335102903457,0.5909011841726817,0.6498395533949268,0.6261025319059867,0.561935467569922,0.48984872586527617,0.42341653814001967,0.3751785648009185,0.3394737830470018,0.26424048057296856,0.17719413354727598,0.09016794671265682,0.018928610243419186,0.0016624605777502133,0.0,0.0027219208741371403,0.02563250904181169,0.05256040421485064,0.10229523094607096,0.17115378804284864,0.22317388120803905,0.2776333638636239,0.34992362776920993,0.39997011950683925,0.45182622059104416,0.4854752625553034,0.4963069507661051,0.496708644694142,0.46783585536392147,0.4178334880201722,0.3597030187158343,0.3017579748341892,0.26480697391571084,0.3203535566832909,0.40706370482979315,0.47931513421257277,0.5230612136716313,0.5638951874767497,0.571315976348719,0.5935609443049636,0.6075723160544393,0.6289114840015064,0.664776361972709,0.6859805824846092,0.7073312646687193,0.7346698912646121,0.7592963290119799,0.8004030188551723,0.83742639478865,0.8636839715853344,0.9070018027090732,0.9501974776645041,0.9767727836853068,0.9822944083580976,0.9395983698489876,0.8858096348393771,0.8491287591552941,0.7928564717297868,0.7349732423349669,0.6946865135478393,0.6534503890507817,0.6099056766806839,0.566571439794846,0.5422215216761184,0.5416241902543546,0.5416241902543573,0.5421162295412816,0.5591772531005934,0.5446165608175311,0.5416270695631771,0.5439540673722045,0.5595459116767452,0.5429823087520478,0.5627050019602016,0.5686940264972757,0.5631421483431072,0.5431584134874261,0.5620673077856275,0.5838401738634551,0.6257623512717791,0.6582595985851101,0.6878044743333676,0.7246398930027254,0.7193137827047003,0.6823251729122428,0.6480083468643092,0.606380181233614,0.5742096461689452,0.5436652765278569,0.5279698790880683,0.522989541946441,0.5170524896674284,0.4956277012842576,0.4874930516178071,0.49081423491418574,0.5358326483665734,0.5859046590090489,0.6519017550473838,0.6849731568266537,0.631375356105083,0.5624606996050132,0.5036973102326825,0.43817919350912726,0.4077372691224226,0.4202877353201031,0.4912730152733791,0.5300075908447615,0.5720702451775304,0.5952971763399311,0.6064910783395354,0.623983548758321,0.6450718876461861,0.6585563884113248,0.6951707920882124,0.7050055963002353,0.7311646791915822,0.7576983498491763,0.7843075632379937,0.8155208486985832,0.8512511689862339,0.8948014036952663,0.9383053556271794,0.9749919428584826,1.0000000000000004,0.9805701480384088,0.9375444591897355,0.892717249324853,0.820839254157812,0.7537042418631148,0.7176658138681176,0.6622402595211603,0.6230001152869664,0.5922674940682158,0.5664143252158582,0.5439609551306162,0.5416252911666359,0.5416241902544443,0.539563854124331,0.522631263523309,0.5405912922212761,0.5416241902544505,0.5416268155066066,0.5460075717795285,0.5674544028187802,0.5687055437326145,0.5685373156156861,0.5523920019863486,0.5554078481900615,0.5974348073169868,0.6389280513491591,0.6713422584251192,0.7023915468248032,0.6934923889497449,0.6527689848801308,0.6228380501650217,0.5820238510228619,0.5272226052102735,0.5145866664732499,0.5145428367763194,0.5145428367763212,0.5126951856415816,0.4897272139296187,0.46787584978737007,0.46905800597464564,0.5159368706249814,0.5780494221952241,0.649875923567873,0.6817570964857409,0.6300750187936459,0.5554554978109807,0.4905389820765653,0.430804342617614,0.4089194406106986,0.44034264841564363,0.49166734204494267,0.5406922086495016,0.5744291149588485,0.6038243199816855,0.6412174762107843,0.6499488278474534,0.6557342672889948,0.6782599190036094,0.701004610608575,0.717906862711835,0.7577726626832786,0.780528235504351,0.8020517516898935,0.8400176239505455,0.8709992982816854,0.9188612762956256,0.9491520196997301,0.988379985747788,0.9950914772361226,0.9644291921439234,0.9094370436879893,0.8552613671746703,0.8101617044766418,0.7549715770332832,0.7107893680833137,0.66312561822255,0.6036581462729118,0.5806710168137825,0.5687655918995564,0.5680427154781591,0.5486624782678216,0.535862552528616,0.5153828940407181,0.5156046285017308,0.5362793680565656,0.5416193349494791,0.5416241902545385,0.5416241902545393,0.541624190254542,0.5416241902545438,0.5416241902545456,0.5416806277567043,0.5539377971096289,0.5917081930084422,0.6337702235019624,0.6590979848214427,0.6959974037386805,0.6947404926954852,0.6542444782413903,0.6117370542717766,0.5810125466288709,0.552074064014477,0.5320764415254691,0.5149208017492293,0.5143944454799443,0.4996410712099144,MI
0.579640592377284,0.5796405923772912,0.5795279962528492,0.5655085400401147,0.5521503588061161,0.5574354344534505,0.6077900367113425,0.6573856321553451,0.6806220587122209,0.7205821722520205,0.7781142846190003,0.8002365940656131,0.781864291435761,0.7168826435544049,0.6489086184555606,0.6013236389494678,0.5647467581123631,0.5130569995012606,0.5029355165695004,0.4709887216418056,0.3869548264117193,0.2985175152389954,0.21007794880771158,0.12164056210001162,0.03734919690769711,0.0050016939891079915,0.0,0.000382683538992179,0.01838639335521508,0.03920198406431519,0.08296596464273565,0.15111116632179922,0.21117145515191416,0.2551283887863449,0.3338569549939687,0.3867234024056869,0.4426202416173193,0.4853213527710367,0.5020047707797626,0.5354437236958449,0.618525612745835,0.6855958420776589,0.7666347287663657,0.8324884777629857,0.8911863622507536,0.8292357369578727,0.768573514409796,0.7440725854877877,0.6991360382466607,0.634892313602831,0.572553261376497,0.5513829763638403,0.5301328846771667,0.5345874037846134,0.5518590302897421,0.5578593755191865,0.5739073428589472,0.5539524656200379,0.5721054584872047,0.6015483004327034,0.6355034646088273,0.6777312415724093,0.7077877356224662,0.7287434886050552,0.7793854267060332,0.8241402908038995,0.8536268856236178,0.8799772927630456,0.8665676519787779,0.8348447350066217,0.791141673670904,0.7521395037546523,0.7451102363076703,0.7283636822116475,0.6989923179550597,0.67043108324614,0.6703636410956277,0.6895328671752554,0.6882107738342218,0.6653532062531808,0.6615819537865879,0.6411312186555223,0.6346859168404078,0.6178475750144803,0.6072931032919544,0.6072453267927602,0.6097210825722015,0.6352162989284094,0.6615058990525289,0.6853808876850693,0.7195830266077601,0.743241122752925,0.7138762440203235,0.6557797257080034,0.5877128962142293,0.5284959826130158,0.47101536688976475,0.4410019730623387,0.41496302520649087,0.3781696832660315,0.3266807127158615,0.3043781615084806,0.33354962300063784,0.39554274799336886,0.4614160362063191,0.5437785894961009,0.6150830089101444,0.6934370987197114,0.780662302520772,0.8116854965217484,0.7496604877944351,0.7175265856880357,0.6703853044575232,0.6061075298971388,0.540433008536247,0.4863240062442089,0.45489734570564844,0.4417691319768742,0.45396195447762944,0.47078982333089536,0.49260202613309323,0.497344079565361,0.520283988032102,0.5630567233674877,0.5858745472242552,0.6142157811946176,0.6372884228082456,0.6714582553334973,0.6948968399204936,0.7248033152741873,0.7680725033104161,0.7823224237205673,0.7983517084059888,0.77567564743021,0.7562804373830425,0.6927065645372248,0.6483178099829661,0.6394590977199699,0.6793614267853552,0.6637524996293744,0.6409452099001789,0.6446043321056476,0.6601190368456176,0.6369758423799072,0.614646167595819,0.609831739603456,0.6307353070027646,0.610527151686536,0.6031162738016334,0.549396628584804,0.5247006980811286,0.5276412425256969,0.5546261014606917,0.5855625917344649,0.6368029382947022,0.6823498796705763,0.7379782980799274,0.7842559064004182,0.8360727168943574,0.8545140406921834,0.826085633162069,0.759623029635375,0.6938028598803538,0.6329923313576757,0.6075956597635384,0.5996283586845226,0.5383812553805911,0.4793106491298542,0.44609247381643824,0.4836759190160618,0.5426332202991779,0.6116325494744852,0.6793209021486342,0.759555613812076,0.8257037825344073,0.858396046536265,0.8026479406998583,0.7276465463657522,0.6923673846740113,0.675639049775191,0.6170314294487844,0.5467575897505141,0.5002418944785716,0.49683157946452594,0.4968299824393321,0.4973740493682528,0.5178651446650071,0.5458845776127847,0.5523491840629036,0.5692710117285462,0.5988519845778391,0.6284364064138814,0.6566214601003817,0.6778556716317907,0.7095415150756792,0.7524983164815509,0.7735157170483267,0.7939011179676876,0.7791972374089213,0.7454257964969115,0.71179349148326,0.6823242912092753,0.6594541483452416,0.6359280209727154,0.6129277222819627,0.6072525405703826,0.6072441290244188,0.6071706058228297,0.5949407465252956,0.5825764567621392,0.6050213989426809,0.6072546630384434,0.6132071764170761,0.6412118560894462,0.6474437933980233,0.6382937573022152,0.6608890187687391,0.6641314213750582,0.695936173121416,0.7622755567938548,0.8096206424297985,0.8501167250176098,0.8841598295855593,0.9175831506808625,0.9217149806014153,0.877590240984063,0.8012514726955087,0.7329373711303409,0.6869689032605346,0.662178598585736,0.6306109790090111,0.5859306519077259,0.5304629308533033,0.501049609676794,0.5316889755937457,0.5839033818211532,0.648068350967002,0.728430926600034,0.7967122627620102,0.883811078787859,0.9523202973606186,1.0000000000000004,0.9324422441786919,0.8659547250574593,0.8137728822223402,0.789972325122068,0.7164032155654207,0.6485694341558061,0.5896756226196831,0.5531635669957979,0.5520447597887519,0.5576539704120056,0.5847155021492383,0.5847287121036486,0.5880719828779379,MI
0.04932038025386376,0.0664718155651165,0.08240826944495305,0.08898093817216335,0.0888093983287177,0.0695705876451913,0.05173272050625788,0.04700453192299325,0.03982692102710428,0.04607728895060803,0.04830936331209679,0.04859120394321392,0.05525935345607458,0.057971139859555265,0.0597929486150135,0.06710275421843326,0.06746767049093538,0.061322938070511146,0.05764545378560593,0.05073764914406409,0.051085532742233486,0.05785558054618889,0.06421100381056744,0.07650020817348158,0.08788498364332309,0.10137663139290631,0.105133633040988,0.0970518522028525,0.08502317067516141,0.06885108395277562,0.054589057603057434,0.038272232240827764,0.02358429953727148,0.012618482085880345,0.0027426089864530656,1.0208396360456007e-05,0.0,0.0001381938910867131,0.006466442858571675,0.022354796063923876,0.05466919512293056,0.09531051292472137,0.13034821605121905,0.16797054715110105,0.2039556215381091,0.24063450553225074,0.2817057529374096,0.3217420268699387,0.3552458252628241,0.3953904633675611,0.43650517425394586,0.4776204444971821,0.5182933547315522,0.5520903536465893,0.5913082634828231,0.6324190340415099,0.6735344185423819,0.7146498030432531,0.7557556627847235,0.7942228754517136,0.8286037146488929,0.8694483158207322,0.910563584278693,0.9513072687496475,0.9837852331017916,0.9999999999999998,0.9812282566185175,0.9476636682641681,0.9070124730378517,0.8762016640140142,0.8437432253379893,0.8075099225957956,0.7808049382991504,0.7482786855103349,0.708395947494971,0.6672818485491596,0.6261664640482876,0.585051079547416,0.5439356950465439,0.5028203105456723,0.46170492604480007,0.42058954154392825,0.37947827336171036,0.34016024832779634,0.30643487124875923,0.26579093771739437,0.2246799224808993,0.18538692624640518,0.15164364370836836,0.11101212075884415,0.0731218743840838,0.041452033602283,0.03695347707703234,0.04717953031807354,0.06781755322106342,0.08695197920493958,0.09591949221299623,0.10024071352762198,0.09318067000731522,0.06630219689609063,0.05808569700506827,0.05797837630073155,0.05797837630072844,0.05797837630072533,0.05797837630072267,0.05797837630071956,0.058060700725909964,0.06329629127187886,0.06760060158246506,0.06761786154186544,0.06420144664684413,0.05812380722644228,0.058015213372112795,0.06222980723398974,0.07023264181278988,0.07845284607093461,0.0882878779387537,0.10348169110970651,0.1148529921909982,0.12136261679205829,0.1206022231916033,0.10523918585342718,0.08724409502759833,0.07065721575706707,0.05555502520074751,0.03685929576686875,0.027449459661489373,0.01980509837559774,0.016727399857332292,0.009960696314779582,0.009663244814794636,0.01031388883158213,0.028612303871396128,0.061584975878782755,0.09722811626188688,0.13325035742904578,0.1668823938760844,0.2062886166189286,0.2445086920720747,0.2790802686212983,0.3199800374406967,0.36109539069924756,0.40220881059462554,0.4417210991910161,0.47392148774958787,0.500210772852641,0.5286675269869374,0.5568386548972823,0.5827617339011997,0.6102379601211896,0.6442425604858812,0.6846806320749443,0.7183342431840798,0.7578524986133515,0.7989647620426321,0.8400801215496465,0.8809341361777985,0.9154468655701165,0.9533033694299264,0.979793062638233,0.9670848340012899,0.928934241339247,0.8880391804902643,0.8534359848698247,0.8152470790813735,0.7741439538877282,0.7330285693868561,0.6919287388865467,0.6547243378409624,0.6282386849477917,0.5960216753332348,0.5564389553086901,0.5153254505320077,0.4742100660311357,0.4331410107705702,0.3966383803712823,0.36045791796497384,0.3194115907444426,0.278303308303415,0.23977968299979624,0.20543086636053176,0.16461366248029496,0.12431823173568235,0.09085064182191727,0.05163241732946622,0.03118400103768937,0.03956770176488256,0.05853171570909588,0.07679982258907603,0.08591805669520025,0.08603726141392154,0.07232163565228267,0.0535270801147234,0.048352714719221535,0.048315313583831454,0.048315313583828345,0.04831676890149428,0.049625298541841945,0.05724288510934161,0.06007348391733891,0.0672049988426413,0.07064963450929707,0.07615312132632224,0.06871861935940826,0.06428254284233459,0.058156031121816554,0.06154722152116032,0.06754419726700878,0.07350831924350043,0.08907927473116883,0.10071972839809784,0.11800003300314299,0.12056025555810601,0.1233685101600277,0.11361212190807923,0.09893984128402056,0.08383989183041085,0.0661074874765295,0.0505708293078071,0.03655957371001062,0.023444383405715197,0.015308902192133989,0.009672918324830304,0.004465804066818624,0.00013621925406215318,0.0056314673971866736,0.0203678483051275,0.04726406656706761,0.08227294912256622,0.11610230110190178,0.15493434869973677,0.18967135395061074,0.22772374742693424,0.2688226117741004,0.3097200914567606,0.3444297753747527,0.3825214381700168,0.4236210906313431,0.4647364751322147,0.5058517596576555,0.5465536465950309,0.5804222673460708,0.6195400619846259,0.6606503349197796,0.7017657194206517,0.7428811039215237,0.7839964884223958,0.8251118729232674,0.8662272574241394,0.9073385862612586,0.9462989921850335,0.9714554667203001,0.963192509767502,0.9289744170326826,0.8960724849512045,MI
0.10349002626784598,0.10387253206415448,0.11872573792887486,0.14172471396651787,0.15686251766994008,0.14301774929133337,0.14402190314103258,0.16402840560398024,0.18265275821865634,0.20016785450434638,0.22579944778359984,0.25039777309286526,0.2773215766763135,0.31161580528753685,0.33923143828388547,0.366926661804825,0.3876615557582501,0.4079338987608532,0.3934233674683729,0.37198533428699987,0.34494535752508293,0.3121817766102293,0.2774748811903991,0.24535161494508317,0.22581770797205403,0.19249632153322516,0.16436774468317772,0.15022531987131993,0.12433478657705388,0.10125922383827834,0.06560110677321873,0.020473354627378537,0.04946029869375934,0.1031751049152958,0.1694313326694501,0.2315709647234141,0.2893777221337439,0.3583460366989786,0.4159629056669103,0.4783301067658199,0.5466676339790406,0.6010818419281057,0.6674165078435905,0.736678047082127,0.7953726942899624,0.8566095865152454,0.9252792541866879,0.9783093101698155,1.0,0.9674457639428957,0.9092845993039615,0.8400243029823038,0.7706036583969271,0.7011830138115513,0.631766064260463,0.5651137102655248,0.5108071497927358,0.4426380185719614,0.3732179609300563,0.30542695591458013,0.2514146608466241,0.184654124996253,0.12919291583939252,0.08765477366268382,0.08427721160279011,0.07598595987165435,0.06470414556677628,0.05381848420971824,0.06437121568937876,0.07894335660607066,0.12295028778763184,0.15684867809305958,0.16931305564734078,0.17030447821882655,0.14224367433174478,0.12399610604646938,0.11929834657914373,0.09455319940355666,0.10061167145938432,0.09079513395734384,0.08820446552858874,0.09415092661218027,0.08606955314396547,0.10122041465209497,0.10392283628710564,0.11808666260309941,0.1382224132174401,0.16521137241944217,0.18357207493276162,0.2057395251808205,0.2332993495579503,0.2543939231229069,0.2868457180729709,0.3106809028300619,0.3380430957510647,0.349073785081905,0.3315649034639616,0.29761504166307384,0.2688048129927938,0.23620076201453033,0.20413785905446424,0.1806441717247682,0.14817209472646997,0.12237990372295782,0.10700695834195795,0.09458133081897424,0.0808265435648221,0.033918169560199996,0.0,0.05432505009970523,0.10842968621601923,0.16982155263305954,0.2261810566101241,0.2923885638116883,0.3466683093856924,0.41484525446912945,0.47795632151800227,0.534913950105075,0.6039941113919975,0.673366387332587,0.7336875475970355,0.7932331448997045,0.8608029188100672,0.9134520756077658,0.94323771180821,0.9073781713938027,0.8438110561143528,0.7882121682513654,0.7191948567309789,0.6497744240974122,0.5811241524153048,0.5263214137448,0.4717058941816581,0.42869572850489623,0.38289955433094747,0.3320653642039053,0.2777066068304328,0.20928589776678974,0.14718407696442526,0.08992949907418168,0.04817583327368391,0.046065708710020914,0.04098273370966732,0.027798187169732813,0.04585822745167434,0.0647282478311384,0.082006853528513,0.12688593782163338,0.15799477156018282,0.16089841207586808,0.1585208573359882,0.12239598151558706,0.11753490927899124,0.10642492377776414,0.07898064848168618,0.06670010313392183,0.0816261279056203,0.08434834971732519,0.08247224008941867,0.07334482544953635,0.09372378299034834,0.11103877217588742,0.12814328496506855,0.151709669805558,0.18435073476392683,0.20971189095046006,0.23285807266178749,0.2541846443635065,0.2760426909471274,0.305297651055477,0.3320813883751388,0.33256435196866097,0.31857457149263446,0.2977925488503703,0.25617047476702215,0.22538434167037513,0.1875034045144761,0.16488538426948463,0.14656141863239913,0.11464273495895183,0.09424889521162605,0.07637992244588165,0.04407807040576195,0.016624256702610474,0.056941907119870905,0.11317223713891211,0.17660323794099675,0.24600658124187458,0.3124257258340042,0.3667946215766924,0.43510582628362915,0.4978949791299927,0.5551356506581522,0.6242351907580099,0.6876686611289498,0.7443410294329378,0.8103027461239196,0.8642770639799706,0.9047205134320859,0.8928882483813894,0.8307507432812349,0.7714286641274533,0.7108928617866956,0.6415187841408359,0.5721546129883328,0.5102297123836692,0.4521924306855425,0.38301487311362026,0.3205592119158598,0.26302642549396715,0.1938494382470317,0.12444052082011225,0.06273423964824953,0.06196567150680199,0.07423822412409731,0.08006335467992853,0.07139820169167255,0.09684925899836072,0.089838786025914,0.09599826030716141,0.1364420628522427,0.16570500471436667,0.1839015364389498,0.19817340418561002,0.1829736046707544,0.1507160866274213,0.15637258236348428,0.13321793911517688,0.09525262703122861,0.08440171266329743,0.08572512514470532,0.10090072210087886,0.10353134102752337,0.11209676977954874,0.12249931957449789,0.12262760936969963,0.12281572732499191,0.13403099033610166,0.14310871555702054,0.1613637069135545,0.18079745062963282,0.20620696076942302,0.23689939345492084,0.26286627714956534,0.30014507889481434,0.3139246816911543,0.3233733179325582,0.323225147631951,0.2981676546559857,0.2746325200092068,0.24942507723652652,0.22781050079066878,0.1899808332371422,0.15834326313547287,0.13703794601254105,MI
0.062123194171939566,0.06212319417193646,0.06212319417193335,0.06210937203082478,0.05552777422729527,0.051895914137835675,0.06262858556413109,0.07904486484684359,0.09376738289126907,0.12426135419822604,0.1559178495834903,0.18761162459708647,0.2192623160120224,0.2583600147802563,0.30359745041470276,0.3215255944477393,0.3396963879249655,0.34167253420780463,0.33367037586851467,0.3123588325073703,0.2834160638855385,0.26221061636762455,0.2396438057551622,0.20828398579580965,0.17791525889784632,0.1552780281283801,0.12417712930874236,0.10442224108544496,0.08591383503634509,0.0657629020407362,0.0621240824446021,0.06132074832254375,0.044976229165608395,0.0406154425533769,0.037807675634620175,0.020001096847328537,0.024459985276729324,0.05824379954299452,0.10124643449070536,0.16094525817124117,0.20706300928981225,0.26689865394711143,0.33022979959894583,0.3899634672097747,0.43652801004035835,0.4987364869448956,0.5620734538204575,0.625385199778663,0.680714746142614,0.7307922850150308,0.7939161096527827,0.8572412450975544,0.9143354773561847,0.9614858205017645,1.0000000000000004,0.9981401998408788,0.9417664822661105,0.8855990301797019,0.8363446212115186,0.7732535230107564,0.709916369671332,0.6465899702981468,0.5887929880810794,0.5409268281508979,0.47807371383900454,0.4147365604995801,0.35139953783168165,0.28890921108588685,0.2419749529968369,0.18289612567953117,0.12250570373342873,0.07689978744553727,0.025302817875074712,0.019116426170420642,0.024075973336826095,0.05308040974488115,0.08094624123128247,0.10143923428062651,0.10912059899092252,0.1361066931535695,0.14661651651198593,0.124189234123949,0.0937321574758525,0.07902139384980478,0.06273982422313562,0.06212319417180323,0.06212319417180012,0.062123194171797014,0.06212319417179346,0.06212319417179035,0.0621231941717868,0.0621231941717828,0.062123194171779694,0.06212319417177614,0.06212319417177303,0.062123194171769924,0.06212319417176637,0.06212319417176282,0.062123194171759266,0.06212319417175616,0.06212319417175305,0.062123194171749496,0.0621231941717455,0.06214405869144812,0.06955287317514935,0.08339544130867971,0.08362915169710439,0.08362915169710128,0.08362915169709773,0.08362915169709462,0.08361324058586295,0.07624290659102195,0.06233865138180672,0.06212319417171086,0.06212319417170775,0.0621231941717042,0.06212319417170109,0.06212319417169754,0.0621548181002467,0.07101010188452594,0.09225342700032702,0.12065577959819462,0.15130948870511274,0.19129109791472754,0.2268302887374083,0.26003578515486314,0.2918011189709495,0.3180578314266902,0.3331480029746703,0.33967867186959255,0.3199732733577294,0.2987985230905803,0.27282029137707164,0.24966969187124866,0.22001909966633004,0.19267606213816357,0.16740896244441839,0.13578421235273286,0.10772942258769191,0.09539469104312515,0.0936672900682658,0.06645772987006504,0.05889669228287042,0.041441252657901995,0.04058197952361997,0.03241553919575324,0.01921078591086056,0.01711444361344272,0.0,0.013910070753053727,0.004534838714187028,0.04027345679009242,0.09233439289406231,0.13936766686574353,0.19799864735381512,0.26132670381883427,0.32195175778705654,0.36801037447447893,0.42983316212255884,0.4931700526507119,0.5564942317035868,0.6134625785713275,0.6619446653037744,0.7250127084830376,0.7883484112217034,0.8467621413417743,0.8940758440381935,0.9560439997482768,0.9843030588073405,0.9595350927694857,0.9102589629551514,0.8620593192983361,0.7991450091293051,0.7358078557898806,0.6724708595499318,0.6101140406236794,0.5633549108149563,0.5039640841108155,0.4406280466181278,0.37729368304635447,0.3166703733553282,0.27122373317709636,0.2087857284762613,0.14750536492025157,0.11027874923472636,0.07980902427938119,0.026879173222082997,0.003856728890647698,0.01820217241906885,0.029820064001779834,0.06041054778975852,0.09159751349660628,0.10496297701889556,0.10773516923671211,0.1329729656842371,0.14712928939547476,0.1275764853683321,0.10281522866717552,0.08168383744487118,0.06301180581018606,0.06212320591733045,0.062123194171571416,0.062123194171567864,0.062123194171564755,0.0621231941715612,0.062123194171557206,0.062123194171554985,0.06212319417155143,0.062123194171547436,0.06212319417154477,0.06212319417154166,0.062123194171537666,0.0624746421752671,0.07717218254904923,0.08361576810981841,0.08301958864950398,0.06692803256415036,0.0621296877155304,0.06745707668457301,0.08324214572864674,0.08362911205495793,0.08362915169687835,0.08362915169687524,0.08362915169687168,0.08362915169686858,0.08362915169686458,0.08362915169686103,0.08362915169685792,0.0834876952590049,0.07228375951080457,0.06216462111698018,0.06212319417147416,0.062123546544124775,0.06384140728592413,0.08185569430876605,0.09869037421356053,0.12997691765739106,0.16181871320821495,0.20191823195967284,0.2440394480582606,0.2781763103782513,0.30920869094749515,0.3240220230771067,0.3407127319193126,0.3415257726646952,0.3292109725975165,0.3071699317967207,0.27964498514012215,0.25511672506543004,0.23076863698903738,0.20251073174917478,0.1707753666302585,0.13968627455809868,0.11747888042312526,0.08895834523779333,MI
0.1183216075645186,0.1220093264072637,0.17076368788740837,0.24173975006724913,0.3128217704122074,0.3695064554073233,0.4334668190351807,0.5047046615147845,0.574624262450159,0.6276987296835377,0.6964027412389506,0.7676695729623213,0.8377268288277775,0.8909088260931814,0.9567388204703344,0.9960832296982898,0.9863309304828838,0.9362293475551886,0.8834133223904863,0.8134478364784186,0.742179403504506,0.6709548736879021,0.6086029827012456,0.5635241203489758,0.5215857077930637,0.45216296426957214,0.38089526700536824,0.31050261221638387,0.25612462098613475,0.18919480704391223,0.11837762583094502,0.06293442687233552,0.005918077668508381,0.006156803693654123,0.007782684143273322,0.013519918565189304,0.037053482030590335,0.0768435556071041,0.11714298995819306,0.13903487238482892,0.124108374316787,0.11832760864761838,0.11802606584184705,0.10428791097237733,0.0962304449393927,0.09621169076467506,0.09621169076467373,0.09617746954409245,0.08846206425964098,0.07427070302368843,0.07410287031656004,0.07410287031655916,0.07410106710648989,0.07134601359286119,0.0532358169613647,0.05199404986844591,0.052991097085660854,0.07039441601412921,0.07410060548470865,0.07410287031655427,0.07410287031655338,0.0741028703165525,0.0740504954646064,0.0639909764711657,0.05207831699979604,0.04642117112275912,0.048708747553623866,0.05199181388795271,0.051994049868437475,0.05199273713150676,0.04970064727747969,0.03144436125863326,0.0298852294203229,0.029885229420322013,0.03000535699707818,0.04240491687571568,0.051972010772538546,0.06048324890256662,0.08391656883461351,0.10103992807219786,0.12378360496105945,0.14768834526440822,0.17508189870741608,0.21722947736517684,0.252891464459712,0.27948398233764005,0.3033292411364341,0.3170337507826311,0.3172998952457622,0.3167512611545331,0.30001119044704616,0.28155741759841835,0.24681706033656692,0.2112143179096555,0.185152558147462,0.16696750567970442,0.15633630938084364,0.13340011042917066,0.11849629477494483,0.11815058983617543,0.1062035611367036,0.09414434409809314,0.07598317161805568,0.07410287031652896,0.07410287031652851,0.07421107161069118,0.08748014214858602,0.1355683997847139,0.18808358010513127,0.25699684451118987,0.3171415201460861,0.37760459683031833,0.4487809084014627,0.5168858047890379,0.5706859388259411,0.64047927663924,0.711746858498,0.7803324704313996,0.8338962083437518,0.9034374657196431,0.9688008315645082,1.0000000000000004,0.9846434736602423,0.9316872256196338,0.8693315157112189,0.7981017140496793,0.7268332810757667,0.6555648481018559,0.5842964151279433,0.5130279821540307,0.44175954918011895,0.37073461994309076,0.3124711421937012,0.2500264271078887,0.17887965638573178,0.1183351130742838,0.05860944850354333,0.01586402074914206,0.02925521322470237,0.03219554545716985,0.053411860760602003,0.07716695783410943,0.10897700473986038,0.14429937105128854,0.16212788404313327,0.15663659170938882,0.13867079854351783,0.11993079105763016,0.11433760308641006,0.09564475364840286,0.0772143212270402,0.07410419747912655,0.07598317161804147,0.09408109565945111,0.09443381395633343,0.07438563619738581,0.055009251799035486,0.07171463971814296,0.06874915006438664,0.053658059475906406,0.07600669624869649,0.10280166368055754,0.13621331910764445,0.16489571500750522,0.18371980243035058,0.19798432858052806,0.19626835161356126,0.1727844971890673,0.15584575986592641,0.13268165593377024,0.10818439471935415,0.07872817085815775,0.07410719802066934,0.07367258058807646,0.057996025947867125,0.0520016089249995,0.051998492977999966,0.05667486636767727,0.0860389097522547,0.10310772857461314,0.11795163236632433,0.1164633007466982,0.09858397646856742,0.08740669905089771,0.07422602997001881,0.06854506602304866,0.052193124019422665,0.03656742068751928,0.0298950388830459,0.03299668033079595,0.05059944679803019,0.06413646827935793,0.08926919911818576,0.11869573510191644,0.14904014753610406,0.18464098090162873,0.2202938772554872,0.25771603532332277,0.30227673071415007,0.3382354291263763,0.37264021428157657,0.38990827089128377,0.4053268788803557,0.40406760329530744,0.3841932212886854,0.3544899615390045,0.32184427345934497,0.294169081449859,0.25864332306285087,0.22343199831393035,0.19777988281441283,0.17404057219929436,0.15686915178095084,0.14092786180110384,0.13206093262420948,0.11462501130529557,0.09693464426046328,0.08296171710672828,0.07165527726947385,0.05516201169738855,0.071918515756757,0.07410669312182483,0.08019596875123947,0.12933418258754692,0.18470408717518483,0.255525249875983,0.32679368284989607,0.39677446375419523,0.4498967990498808,0.5184918779795038,0.5897534587551561,0.6561491443131282,0.7107874176666997,0.7770415081875277,0.8156803839383282,0.8753927880201275,0.9228998047670864,0.9320932769363854,0.8853492474860061,0.8308721830507859,0.7603866674028494,0.6891712144019286,0.6280488221091907,0.5685839753488255,0.497421755955314,0.4262008568649831,0.36429976938264996,0.3056011744774003,0.23445684450777549,0.1636130410807315,0.10795649540226648,0.04297205560820361,0.0,0.007686610488753853,0.01990199187382924,MI
0.6077137141171431,0.6191332533329401,0.6154271495041121,0.6302305819901579,0.5988934738728751,0.5530344969632823,0.5063642808049478,0.4629543679662458,0.42927949613339367,0.3713839645333108,0.31537454209160254,0.25914242735452797,0.18684939676631895,0.13365965656166123,0.06800826922517356,0.021812036067508256,0.0008439995749869311,0.011796232238124649,0.08025727056273624,0.14531915106670823,0.2035482780698583,0.26264272639905606,0.29171261136663684,0.3216671390337309,0.389570361653925,0.4142518175663601,0.4033615435618705,0.37590883420553434,0.3023583013865898,0.2197067273911717,0.13703274573237012,0.05543526714359315,0.007354013550734173,0.0,0.0012045169231282848,0.019581205721342254,0.04758199869907598,0.1010118271969711,0.16050076790963796,0.20565282616167568,0.2743212472100858,0.32403727013759775,0.3710210290255591,0.39706588967717726,0.40720996176842794,0.37821945995266804,0.39468033416151727,0.419787533618349,0.4457726675084226,0.4758982058475296,0.5107711206947854,0.533304880311789,0.49386229521758596,0.4352402661569341,0.3962545660774537,0.3478800127631563,0.3133514102868058,0.3028171706062541,0.2864597005275442,0.3099928545441557,0.3511880087626018,0.4047511395929315,0.4852923366888251,0.5679408199867657,0.6437038165164148,0.7117196738347822,0.7685180568554024,0.7250658333913624,0.6457719073523744,0.5807948218956467,0.5197752617438542,0.4924035626870724,0.4537142746901561,0.4107236498279536,0.40694292338530635,0.42079834462498855,0.42543580815604454,0.4687618831153224,0.4874468698748613,0.5188164353813063,0.5500479836942849,0.567374700325673,0.5887064664258124,0.6201417921404566,0.6578843328149424,0.6562466803954807,0.627707297166316,0.6046614706192788,0.5426709894276049,0.4895510157464984,0.4653717176142078,0.43614868768860715,0.3968936474915652,0.3765361252385251,0.37471811364563523,0.3941540802759782,0.39782793356567936,0.3570454195421724,0.36008945349102195,0.37977563448037754,0.37539519091893325,0.35615934243068104,0.36195917129317356,0.3556417448650806,0.3864975479100776,0.4055911843901918,0.3965636141590769,0.42949330640986094,0.4583434481639115,0.4778368601738583,0.5315547880367144,0.5248945747009759,0.4727485347283271,0.41770253018803727,0.37616929471159466,0.35002099471517445,0.3137015456730574,0.3046536292615567,0.2690811849866983,0.24503355120768644,0.29324337459665273,0.3606620436109904,0.44257619828542705,0.5113573622651773,0.5864215793551111,0.6667009468353653,0.731985861154639,0.8121940791460291,0.8490410341439785,0.7885009087986838,0.7213388430935299,0.6586966288628506,0.59498435904153,0.5300707225840098,0.4789000027796346,0.4357643552595283,0.3974149784173484,0.41171466248893207,0.4513795071052056,0.44201948683940673,0.47172892230217034,0.5105435182964175,0.5239776694689238,0.5277610202243781,0.5716679286458839,0.5945138251732986,0.6289003341993835,0.6614035126590285,0.6656084071001089,0.632962882946456,0.5919701729746278,0.5490703799882191,0.5090396344664225,0.453282963527752,0.4368202204420628,0.4242636856259172,0.42277647993716894,0.43485823861299755,0.4200496781375209,0.433674194417661,0.4133739197633166,0.40986797401680164,0.44532480344987313,0.42803638475249306,0.38184486675625884,0.384681644857062,0.380041620030223,0.3900156636975729,0.37514131599905376,0.3896992506473862,0.41716847856518946,0.45659847572285006,0.5112753853258591,0.5488278529786395,0.5471486248611637,0.48725720696332386,0.42930798909376655,0.3782696167368784,0.33293116956476076,0.3407373196514536,0.3184140684440968,0.27607968197525556,0.2770901041555547,0.3196374502228472,0.34943224883108215,0.40976504824678983,0.4889338865871182,0.5540860104562366,0.6343639833050112,0.7167901572376811,0.7651958867273185,0.7176645343528394,0.6509069801569458,0.5831216303396127,0.5162823110790926,0.4523847581983791,0.40521036192378324,0.37862781530907164,0.35460485980086,0.37045362821015493,0.3997939276097622,0.42652057145768385,0.3922970821590126,0.3827181522391787,0.4437450191556618,0.4939960588902239,0.4958980151529353,0.4944905223028262,0.5124432119023008,0.5765162596773457,0.6153552089045431,0.6320498420146241,0.61526022178119,0.578400499882322,0.5351740661641791,0.48117363905324284,0.4213945271319126,0.3966341087023637,0.41180271060978413,0.38883657947647565,0.3714688313369354,0.36010253363810163,0.35212009465874905,0.36932338937160214,0.3754540090976226,0.37801645761086355,0.3546142958282168,0.3719492759035501,0.3958358054131188,0.40155269050758813,0.3965147145076755,0.41719789870691315,0.46895949550794525,0.5192459618332115,0.5570747072472821,0.5383621319890826,0.49068150045264325,0.45492201734152626,0.42121351867117784,0.44637944343158287,0.49475910391677225,0.4697020609295839,0.43463781378732147,0.4214360738924978,0.47193945978698393,0.5285466751883612,0.6014418961408796,0.6837078920154198,0.7522914750750269,0.8274181369835758,0.8983708409123281,0.9703058382373588,1.0,0.9256467116937857,0.8513166297283514,MI
0.06264402434898386,0.06264402434898031,0.06264402434897587,0.06264402434897232,0.06264402434896876,0.06264402434896432,0.06264402434896077,0.06264402434895722,0.06264402434895366,0.06264402434894834,0.06264402434894478,0.06264402434894034,0.06264402434893768,0.06264402434893324,0.06264402434892968,0.06264320305012205,0.06069331751082352,0.03461382050279305,0.03132201217471575,0.03132201217471131,0.03132201217470776,0.031322012174704206,0.03132201217470065,0.03132201217469621,0.03132201217469177,0.03132201217468822,0.031322012174684666,0.031322012174680225,0.03174171709919804,0.05520389039609963,0.06872890289397748,0.10680688299913399,0.133052395871891,0.17178034934857944,0.19783891669373954,0.23717022123585707,0.27465342908291834,0.30804257770028176,0.35772252099260715,0.3983769712060301,0.4385051617035245,0.49303113993722736,0.5293512423891453,0.5564900452810084,0.5637911387751018,0.5626044322117449,0.5376854478518043,0.5102769991426266,0.47011575858636157,0.4304491515775135,0.4017220177553771,0.3655486995311401,0.3259834222516744,0.31283995867213843,0.29237921895102126,0.27740797266670114,0.25196130698644037,0.2496322744019448,0.2256342601306125,0.21219571559130657,0.18837345788527404,0.18793207304559179,0.18793207304558734,0.1879320730455838,0.18815665873368204,0.2089007557890925,0.24470294587207686,0.2520207096721432,0.2988869332705715,0.37859508032773537,0.4408110752523422,0.5086610226671668,0.5891609074260575,0.6697383191369415,0.7502277494581611,0.8092129390388516,0.8136168827487698,0.7794549548311531,0.7011894187124694,0.6447480101928855,0.5703641053267683,0.4897902884106431,0.4093135025648431,0.3438784713073142,0.27931118097295027,0.1988036470398633,0.12050280896903232,0.0674975051002642,0.031754905392604726,0.03132201217455055,0.03132201217454522,0.031320064277380766,0.025200012433921337,0.007264820218779278,0.030430787592341524,0.03132201217453012,0.03132201217452568,0.03132485017038533,0.037019766526138476,0.0614898077171846,0.06264438554818508,0.06670755121263561,0.09227080767559137,0.09397216401396946,0.10737667388045402,0.15385137239643054,0.18149837655368728,0.2087924570233719,0.22331015417859756,0.24886771738964875,0.24174517103836113,0.2188081824277095,0.19347069609029077,0.14237317830802176,0.12274131456481197,0.09528024384371836,0.06777433860039395,0.06264600234578044,0.06264402434865879,0.06264402434865524,0.06264402434865168,0.06264402434864724,0.06264402434864369,0.06264402434864014,0.06264402434863658,0.06264402434863126,0.0626440243486277,0.06264292785022185,0.059950455937388014,0.03422048243851705,0.05367492390150019,0.06261374517339213,0.06264402434860727,0.06264402434860372,0.06264402434860017,0.06264402434859573,0.06264259245067905,0.05859826947658586,0.033002290618763475,0.0313220121743818,0.031322012174378244,0.030197851777054474,0.005788544767774795,0.0003438444652328343,0.022491085818844958,0.02961363217012547,0.0043078860422660625,0.01974480044871374,0.04495243489769951,0.06358911048094029,0.09336544588239004,0.12560572265304426,0.15813171664456682,0.18956868689129092,0.2366846454183147,0.25410168052360405,0.2878736772078314,0.32832674282836294,0.3562119821187437,0.4083522160686668,0.44928459448853975,0.48959632410052834,0.5186386275335417,0.561819968481446,0.5556932125824146,0.5328198858810662,0.5229758238696309,0.4839815623161856,0.44318371311494875,0.4033588159238244,0.363713827179315,0.3365339645119487,0.31356080890829663,0.3037637849296875,0.2765281892980216,0.2511874341534064,0.2436179409138699,0.21970110326370218,0.2177767640701882,0.19265383042507978,0.1878181066698792,0.17113760259113064,0.1566237601117244,0.15661006087106166,0.1566880157540833,0.17751897382031423,0.21992458977353913,0.2660191666282765,0.3215197996843928,0.400349978031751,0.45596440980937736,0.5306950304644937,0.6112705630781168,0.6916943415505052,0.7539637750071488,0.8217588379638547,0.9017127995028567,0.9569883706086646,1.0,0.9795643338771143,0.9244630148930542,0.8667113341455419,0.7942844773188096,0.7137119977007389,0.6343939693411604,0.5784991684575331,0.5032993882457655,0.42272433293145006,0.3421469212205617,0.2616318121780452,0.192195295838669,0.13913617248518761,0.10395625860169044,0.03484402900749206,0.00036070237028074104,7.757188722479214e-06,0.012754439850716004,0.031189887791291504,0.03132201217421926,0.03129645777667367,0.02266495475650565,0.0003507233762993778,3.552713678800501e-15,0.0,0.000726979076552503,0.025820056498287336,0.031320219076803824,0.03132863416453535,0.04224794072208482,0.06277744801108742,0.08725058017674758,0.09473671230959724,0.12394707837631547,0.16401152926711848,0.20441726616312028,0.2191629089096363,0.219252094322262,0.21288818377532692,0.17653780698092003,0.13574132947768458,0.09861056151345515,0.07218672945786864,0.06264978633994644,0.06264402434834082,0.06157246236088465,0.037269440169707124,0.03165230112920003,0.053570458058734616,0.060984567926872124,0.03559289626952378,0.0371793205527311,0.061542406126652516,0.06264402434831151,0.06264402434830796,0.0626440243483044,MI
0.16586583970511226,0.1674879715925801,0.20609630964177628,0.2729229867326346,0.36020790455996377,0.4446825659491678,0.5038007327667247,0.5212173518984908,0.4994857976571794,0.4974753209986842,0.4725164994122171,0.4013098559314061,0.3423884955525871,0.2687148076136463,0.20010073092831826,0.14514921899644717,0.07159258958436343,0.026324399352041006,0.0015860388316424334,0.0027225746323935596,0.05527502452001132,0.13935997170746983,0.2000945660148994,0.26317404733245997,0.32627615321734194,0.37034934436216016,0.37382932527522517,0.4323141596825204,0.4901521582534478,0.4976234795666876,0.49234100520871493,0.46953683337195073,0.4197745419564667,0.33245421970423283,0.24441650455000818,0.15637878939578176,0.06885317413373704,0.011630028645684742,0.00041649235801743956,0.0,0.006851624044394544,0.02938819331128384,0.06272421511404058,0.11810026060363654,0.18573123725904184,0.23428789265291172,0.2977052521670185,0.36513435000929295,0.4167285742473359,0.44313757055107406,0.47001051338786315,0.4970069247371258,0.525755445927846,0.5775768292277137,0.5806644976740838,0.5986685237141209,0.6296826078950595,0.5823370563564545,0.5166301527549271,0.4794626022536672,0.43656634498617475,0.42032595179890553,0.42072902069875795,0.4147105637757864,0.41469361362384394,0.4187908004143095,0.45975891652591194,0.5184251815469709,0.5772427477274187,0.6389323728493572,0.7134279794783431,0.784733166076558,0.8709273811412599,0.921243839524978,0.8697158589069245,0.7819669869818471,0.6962536061562128,0.6315284804775407,0.5711440678488984,0.5395947384856994,0.5237618234659678,0.4840254160320834,0.4751954150479696,0.5190027311273253,0.5758320113091715,0.6017683304417165,0.6534925949791504,0.6755018264278965,0.6925324317999024,0.7145272767018112,0.7360051148250717,0.7495009086325837,0.7725191658251376,0.7922676219753679,0.8284707846909765,0.8462574331141015,0.8780435662485004,0.9103953895864825,0.9029991025176276,0.8613741085120887,0.8105994098359535,0.7817420906773176,0.7316594194316446,0.7103839082200158,0.6722699673110499,0.6425425546380792,0.6144245427579937,0.6082355641491004,0.6082226045500265,0.608220803471327,0.6043807878901966,0.582472266309642,0.5805759461422637,0.5805752925249932,0.5805752925249941,0.5805760042415766,0.5825390651756646,0.603287241183426,0.5786595466387663,0.5571863461907292,0.5791467150333061,0.580600930341217,0.5905423133195082,0.6321969726396075,0.6359251981937035,0.6474957372742267,0.639965779119132,0.585070614009493,0.5404384387561239,0.5029246498537203,0.45133621720665396,0.4188202542560653,0.43720405629392456,0.42918911658318937,0.41486841886583914,0.4153016931460636,0.44150740506728425,0.49873937854193073,0.56581004040049,0.6340756281680235,0.7183020107821418,0.7834814649705413,0.8622217939387786,0.8474541341779434,0.7622541578719275,0.6892261759843841,0.6138403398975498,0.5443694623987962,0.4895252573123736,0.4701823913402876,0.4540804655329609,0.39567280147714357,0.36438495651000835,0.40098084499290465,0.46170327567517955,0.5233295087575476,0.5605327502116824,0.6118067437464436,0.6262623032425712,0.6152835081811556,0.651295327466916,0.6662621901492294,0.689186338575337,0.7033662432254326,0.7324745384082343,0.7467294769721944,0.7722372020402846,0.8044227064321205,0.8277343674166611,0.828825059593818,0.8043904634086259,0.7544052800078145,0.725123571137475,0.6750743871333267,0.642838680839688,0.6106625392628589,0.5957789953822195,0.5794817201756048,0.5571224326125028,0.5529302415315644,0.5529279804999705,0.5529279804999705,0.5529279804999705,0.5529279804999714,0.5529279804999714,0.5529279804999714,0.5529279804999723,0.5533016315655352,0.5693577000474743,0.5569523099505291,0.5647842685215378,0.586290766061377,0.6225593123603357,0.6466415041003888,0.6881168911767803,0.6912421080391855,0.7039529745330757,0.7033299251550869,0.6475531318850862,0.6081241556572436,0.5607394873072922,0.5171220087061839,0.49807329490013963,0.49763335644990736,0.49635744295947415,0.47490782222299277,0.4953306067903105,0.5599304165558303,0.6115764021329833,0.6695280536139316,0.7435650223397055,0.8086510574679062,0.8948212171941661,0.9764769143948149,1.0,0.9269215263399087,0.8610684891858593,0.7771950905384815,0.6924676818383384,0.6310596495778862,0.5857547352436114,0.5575076777063108,0.5282536797668937,0.4799311200996028,0.47822915055753334,0.5384673676325908,0.5801101300567648,0.6202167018612332,0.6827495264620351,0.7047931607411417,0.7257174240985274,0.7461805740006549,0.7652792781363047,0.7778314199304575,0.8016097295765494,0.8307023613042741,0.8565994517245432,0.8756256611935154,0.9078364838073174,0.9384494967046679,0.9392791112496051,0.9137217905876422,0.8628198773647542,0.8162760159366318,0.7600914696003986,0.7361314000410202,0.6991547168727159,0.6847586185536665,0.6418068859438515,0.6191489003170867,0.6082717835604363,0.6082226045500505,0.6082226045500505,0.6082226045500514,0.6082226045500514,MI
0.578261344638956,0.5915936227227947,0.5742522773066057,0.5913443091075958,0.6189700733207086,0.6455809358245697,0.6558769047736597,0.6646374538307507,0.624128059531496,0.5799786505117597,0.5412867496565079,0.5055980452137687,0.4735084189391756,0.44404627233511107,0.4208509294706717,0.34705598991088404,0.25878990540652413,0.17046482039851973,0.08233157892371556,0.015983314143761085,0.0010236997340316023,0.0,0.005474085091255798,0.028254506227825882,0.06102040079737803,0.11719776509206392,0.184212995298914,0.2313980416136423,0.2994425138093626,0.36252389023964326,0.4164061665938794,0.46375215045727014,0.4870665111079653,0.4953070267193995,0.48737174710161923,0.44684065877268697,0.39022024145403034,0.3315426130467731,0.27592901764749245,0.279445814245987,0.3630704958618276,0.4486215385462424,0.48920349335557045,0.4986805420344558,0.5488849884816771,0.6164091656191175,0.6854260202383919,0.7644539929826593,0.8318764851281895,0.9154596458663233,0.9849455712347428,0.942428349655815,0.8759772957980587,0.7894793918171761,0.7017065559670259,0.6377735938678892,0.6059681783152593,0.5928673042002917,0.6058902554548213,0.6218863377373092,0.6437966196467615,0.6476623317509347,0.668318074277999,0.6819206188731561,0.7036427109635177,0.7261079551210647,0.7448179928626013,0.7781583537949377,0.7854197705947064,0.8068917412063152,0.8112591033811016,0.8514629956031987,0.8744055423830623,0.894759659852399,0.8935863506076878,0.8646559263842528,0.813664632592948,0.7655566768411983,0.7284787655294158,0.6987646180527962,0.6382682070694203,0.6047420637694154,0.553644121855605,0.5388847690323963,0.5386777813348704,0.5242338742236674,0.5119523501387571,0.5121906429711132,0.5281849595471559,0.5421705804192403,0.5640985037406789,0.554075886127543,0.5329445140397366,0.513392463842667,0.5330791673084798,0.541234045978352,0.5561364398795163,0.5222847551810395,0.5253580729640275,0.5202381912786231,0.5291739732945979,0.4957754507159624,0.509717491056854,0.5342503111235084,0.5153599050856412,0.5258317250571052,0.5418303340132589,0.5823161399561076,0.5940167994693386,0.6138048963503016,0.5977556294887272,0.5739076565299976,0.5377336821357801,0.495542806645485,0.44374658097789155,0.41089304941672733,0.3750963619090486,0.3379897824773641,0.32776969381292353,0.3845746759223365,0.452250264033518,0.530170551282013,0.6012269029793575,0.6893218209828751,0.7771424941759992,0.8470026755255988,0.9273423700034158,1.0,0.9541829817380876,0.882702408128246,0.8149647508613915,0.7430414632453992,0.6704584717454019,0.614406922967305,0.595158530110691,0.6160130100348802,0.6032836622533857,0.5827819929263285,0.5685183314105027,0.5994034337717355,0.6108912790840177,0.5953745490425186,0.6325388402152408,0.6500452229170524,0.6722371950288117,0.6958983691280469,0.7251555654669142,0.7040116813091046,0.7159034683689152,0.7527610952734696,0.7701188891099173,0.7325450445560371,0.7641473812430926,0.7840709596861934,0.806025360083531,0.7790111791604746,0.7279178291618598,0.6624314658597461,0.6057298146067236,0.5874965782347674,0.5326922615731498,0.5047017222301244,0.4822114008678655,0.45896452174220315,0.43606601884544904,0.4320117858727599,0.45241199826513334,0.4448959473050147,0.43456315398524836,0.45580965735220946,0.4383776312280654,0.4316990761304904,0.46128473808707504,0.46627618704768814,0.45161590912044947,0.40979832985178,0.4087421448197528,0.4288681845831981,0.4084107940085353,0.3809540100045101,0.3828423346421408,0.4171500486920907,0.39432399097319415,0.3782357676588699,0.39872933126703103,0.412284118104167,0.4313506564869689,0.45298329958048456,0.48014196380822494,0.48493337572641604,0.482427528816876,0.43184583758863937,0.39924347214048517,0.3765113831861582,0.3445608188052791,0.3194037054553025,0.2984964485131618,0.32710164037678346,0.3912552665244853,0.4706637229190296,0.5400554961855857,0.626812120843419,0.6945664358618835,0.7749120563613534,0.8411880630720843,0.9166830592649369,0.8806232756642345,0.8070648029572665,0.731640626124892,0.6617698212109246,0.5944943414636086,0.5289710196486972,0.5179383207633519,0.5551753893670845,0.5401465292070826,0.5232305144592679,0.5329877638627085,0.5467923547136184,0.5832671301557166,0.5901171816506956,0.5701015118688986,0.5916291869408887,0.617439935012257,0.6164639569771602,0.602480639281894,0.646337349203784,0.6931009033964033,0.7007576011599319,0.7191191789875777,0.7525520142348885,0.7870449651883025,0.8173194987226333,0.8751525640093485,0.8867533896956692,0.8429805555047993,0.8051350922905947,0.7758018940381524,0.745923444919498,0.7086042700572426,0.6870390240751068,0.6837617101714732,0.6822993845991734,0.6830603934621848,0.7237653947021663,0.7274094282028294,0.7291575344485732,0.7503887017403343,0.7541139631730829,0.736139676530347,0.7078543208944232,0.694422477395686,0.6718584894599795,0.6309156264473348,0.6278417511887584,0.6641155153995522,MI
0.4257312207149502,0.3813251866537808,0.33958399515962956,0.2896216592627301,0.26172203840718744,0.22766584695276748,0.22344801725974328,0.22344801725973262,0.22344801725972108,0.22324314351560925,0.20235846102171173,0.1825862637455593,0.20621062825977088,0.2211258653974415,0.18868790078568054,0.18238170293788247,0.1824175279006086,0.20169114755140072,0.2022777510973759,0.1817703341492649,0.1529900621350242,0.14133191063083217,0.14131538861604476,0.141315388616035,0.14131538861602344,0.14202121102169762,0.17192512993288833,0.21159693451804884,0.26029839722947745,0.30352626383148795,0.35980527224718006,0.41656841245930654,0.4735307078223734,0.5482788859232706,0.6061204185903133,0.6630295408953515,0.7423059395865454,0.7966760917224027,0.8133019913701744,0.8347766817823219,0.8008539406617148,0.7962708964306469,0.7624930493553963,0.719897757996808,0.6486918630513454,0.623865031895714,0.5733335575423206,0.5477404454492234,0.5134443952206285,0.5008875733627622,0.47052097218140343,0.45367118101443626,0.42901662886831815,0.42670989184580854,0.39422390592328327,0.3710637759710176,0.31809445008841486,0.3035349546600026,0.2640204088608531,0.20792016523865176,0.14083785618917233,0.06711539499901864,0.0669443511867236,0.14986746896582126,0.2486408156891491,0.355789683241456,0.4357167713599077,0.5460741118523522,0.6361739459593139,0.7310259773446823,0.8290001341725324,0.8772672893425897,0.8675845281946959,0.8039328794220841,0.7156569991884663,0.6237912624634783,0.5235167245019392,0.4385455480929359,0.32619432524867165,0.21330222195625925,0.10041842056731198,0.0,0.010149348848157658,0.055932823473400894,0.059180592480118754,0.05720859444632964,0.024992198449449887,0.018116445650352198,0.01814932609559161,0.03643278682115003,0.058946923609420665,0.0606160987920763,0.09442113615281933,0.11912616473765958,0.17084483246478932,0.21036533211797082,0.28186829516314127,0.3376748788005406,0.33995624598270346,0.29132110114483023,0.2648034585149217,0.2625824517291919,0.22274862374474136,0.15146531133025487,0.14135710261325762,0.16000683064189847,0.22522870790057503,0.27373339274696207,0.3045498539060425,0.30558064590261935,0.30444238097231224,0.27360502030164113,0.2654122733136388,0.2965969990402755,0.30557295744025215,0.30558052321433493,0.3029377599003187,0.26961281915257285,0.2581558083111899,0.22458789744765362,0.223448017258967,0.22158132466684943,0.18954223321191055,0.18238186652146737,0.18960551709536766,0.2216261463319773,0.2369159410438737,0.26533664571608373,0.30018340849929537,0.34325786619175336,0.42780803323146355,0.4967273197332851,0.5536012920675111,0.6287533144781179,0.7046188168487406,0.7629892535779401,0.8043882248995571,0.8426627901084904,0.8717339408934528,0.8406757907556077,0.8275623971208379,0.7971797620504004,0.7635861099916719,0.7257171017360635,0.7016185138107183,0.6169640416507711,0.5870352106701215,0.5532750788669762,0.5399479279898909,0.4885155885032537,0.46885927873793865,0.4383851622915449,0.41704648705911485,0.38656546487727894,0.35406062603270616,0.3477662826137067,0.37860497588680353,0.3520567552037015,0.34065896952513075,0.2891457399732875,0.21533792793562156,0.16566954086274155,0.21152104656618143,0.29635170385151,0.40881008700127985,0.5168198798241574,0.5962544553261102,0.7064204915174965,0.8192825770899921,0.9146667198973049,0.9726301693955977,1.0,0.9519287065434963,0.8553033523272777,0.7742169721475696,0.6688947813608426,0.5584684055261402,0.4786004189216593,0.3712888345169221,0.2616107205066447,0.1832220275410199,0.11129169298410435,0.13854114680497354,0.1413148160700004,0.14131538861505621,0.14131538861504556,0.14040401098923816,0.11046258092880024,0.10106765314908817,0.13147178747232235,0.14397429767503755,0.17936532934619986,0.22393978804708503,0.29416359896136957,0.3364963249117876,0.39222038850254926,0.4274827726729056,0.4286329248462133,0.4099360631111999,0.3571698689175129,0.33523426062615425,0.2839539780118798,0.24123908103314395,0.18425564615054135,0.18238170293667988,0.18694759398881367,0.2197486569581084,0.1898324324224152,0.16571012231933313,0.18269413156073622,0.2104177400520184,0.20944925062118536,0.1828201753816714,0.19863912713535292,0.22317378724865922,0.22314901715378532,0.19731079360495318,0.18240624058228327,0.18238170293656264,0.18238170293655465,0.1823817029365431,0.18238170293653155,0.18157779824443487,0.15317103281537126,0.17482457975904175,0.16062176372974157,0.14373331989669147,0.17791649487255246,0.20338273789302797,0.2584109281970095,0.31460819475251345,0.37886787457147086,0.45382919964965573,0.5249678059511647,0.5914093076238194,0.6661418091332596,0.7154881352931541,0.7627822974190588,0.7980858004842064,0.7983671343537635,0.7876276015883823,0.757895907111438,0.7393285169346466,0.6864791631460623,0.6642780664471442,0.6132809036080689,0.5751777698924583,0.5222939056264959,0.5086787758565698,0.4758633278683515,0.45493274339309764,0.46223748829991873,0.42231721562940905,0.3884451404178595,0.38771327454518634,MI
0.951246712915522,0.9864536035162841,0.942837394972861,0.8613064279231617,0.7849076303439126,0.7016805920645433,0.612441619818985,0.5232149393403431,0.4409176027809578,0.36369888975851694,0.27675892629359344,0.22398583441967812,0.22452925875068175,0.24971719938116754,0.29962062756855445,0.3551694796028557,0.40883334002556726,0.4599406426387147,0.4966788659776227,0.4858582329007062,0.4380798366759415,0.3995967984990818,0.35516788937706334,0.31014177658284936,0.26527419503935645,0.27004093626159875,0.30333083445853415,0.33857972340720544,0.3903104380788345,0.4438820634046978,0.49734303013328685,0.541564587496012,0.5645127269531423,0.5623421918243392,0.534976222487725,0.49236759382698647,0.4509549499654213,0.404170401820509,0.370423392673382,0.3430705741600848,0.31532049156022346,0.274376133928087,0.2246711132554764,0.16563018614066927,0.0999673603309259,0.035718728584032355,0.02499878606179351,0.08157188546650396,0.1477208644197412,0.21689736956468453,0.2903902530429625,0.3639534696241249,0.45017693998206587,0.536434561228238,0.6107900879767705,0.6985907807678826,0.785239494416031,0.8594210464150231,0.939503572484818,0.980983106239063,0.9504775308053559,0.8789963068547424,0.7959822827151393,0.7200238357606712,0.6312989828857085,0.5420306851421519,0.4532809056084459,0.37698934197548173,0.30088164552196783,0.28866649779542186,0.2990745835543831,0.3355744390480848,0.388838897619463,0.44162038691912153,0.49204783686790954,0.5252465742071837,0.5073825896775834,0.46566903448991415,0.42476056552718466,0.3801652712472485,0.339142181586928,0.31573995832189805,0.3008502492759515,0.30730941833879877,0.3495658825543173,0.39652697867319375,0.4485480187501474,0.4981684544189684,0.5515553911314699,0.6034087931885379,0.6465698844851668,0.6628810813211983,0.6521511474671997,0.6145343755383061,0.5575299570434722,0.5094603065597245,0.46478809745576477,0.4163069391495755,0.37121187254943155,0.33528974090421304,0.29945226104402956,0.25961957475840913,0.2065077751059592,0.15004622347291408,0.0831888638407019,0.0060487219864082675,0.008565769361333686,0.061410616033808374,0.1254508857822083,0.19696773447494076,0.272152450514636,0.3469871905872708,0.4351207484998345,0.5134638516575105,0.594585360867586,0.6837299845237226,0.7667087989951278,0.8433681465085572,0.9301044001801477,0.9665115488614182,0.9193547053594995,0.8369755841067477,0.7613188802661877,0.6772112887942461,0.5884899514515416,0.5122620514888911,0.4288208371036144,0.3460477204044965,0.2695916618967069,0.20524108177528477,0.20003060301960707,0.22303890196332743,0.26930698044991663,0.3286897211887414,0.38174261995003533,0.43454015419814596,0.4677190737032615,0.44695607781175406,0.4086670289076251,0.3654288318212937,0.3141536033469783,0.27510621476531005,0.26328051346661496,0.29990089532870856,0.3519007386472479,0.39897056224607086,0.4515263237027445,0.5048874343201049,0.5540222024322317,0.600688099922122,0.6238555964625494,0.6154598565771732,0.582272076587004,0.5347030280599219,0.48406384911440137,0.43930364204090333,0.3947033566927214,0.35451317776094404,0.3188751088214321,0.2869827818463979,0.24512502557392013,0.1946686470398089,0.13859860920584488,0.09292646050921904,0.030769134956515565,0.0,0.04749504657692549,0.11020260617219213,0.17958487402864431,0.2520288660356016,0.33663233841907436,0.4107297956590297,0.4980155306434475,0.5793674838033529,0.6574700414109649,0.7464431396366265,0.8285678271231856,0.9059106294523076,0.9836265950412741,0.9923837380033813,0.9313488919061501,0.8511257138971917,0.7657994287800629,0.6910164053450218,0.6034364778188315,0.5278912704201879,0.4438740608988496,0.3658474412276247,0.2889171398320962,0.25714187931244625,0.2717636661285474,0.30514757907221757,0.36029315538081974,0.4165105025709166,0.4631980566321374,0.5036049353352672,0.4957356188700066,0.45432955764499283,0.419859035237768,0.37183996858082713,0.3388083895691105,0.3338898871077478,0.345070058551161,0.37966025576587503,0.42390778503398474,0.4703889423483507,0.5225686095872573,0.5777091053695895,0.6312227712505232,0.6680805851672305,0.6818362898132775,0.662836287265661,0.6193710605398248,0.570696109705318,0.5205115107502363,0.4758017934096146,0.4312296070697821,0.39198114362384784,0.36179541911602264,0.3314380400805983,0.29082745112804975,0.22758093588123973,0.15585121562932125,0.09494711124801114,0.1028024990791625,0.1755830364125548,0.19703307353937616,0.2027975801641393,0.2536013599186644,0.3319551773036702,0.4210545922416413,0.5103168239193479,0.5963693970264403,0.670801090592704,0.7587384415201615,0.8469294899699276,0.9214402613524899,0.9914060342975839,1.0,0.937397549657538,0.87561917273911,0.808428031119961,0.7344084138410953,0.648726857358576,0.5646515073721101,0.48894107556073374,0.4014719978843604,0.32781010187191395,0.2789040449737952,0.28371304008856857,0.31590059844809204,0.36315659355573526,0.42488381940645237,0.47801416954204967,0.5177612123233195,MI
0.13474977296142843,0.1837270514615419,0.23440248246914752,0.3274417117966113,0.4392171907505409,0.5303095488101519,0.6363669396437022,0.7238151194027029,0.8098766552342642,0.8901271402886328,0.9331737578937078,0.886279380802927,0.7860395938380593,0.6941037380207282,0.5988990697559462,0.5122404907819877,0.4111915042774994,0.3321508258862451,0.2817451030096798,0.2781502124809263,0.2993174399384806,0.2933990492575358,0.30829119109686864,0.33633457353400065,0.3577949312850306,0.4102700213665367,0.4372948449615377,0.5087826666828708,0.5776747265345499,0.6420749719060179,0.6767151479350604,0.6896930804160615,0.692198774464269,0.7298798269449351,0.7795903764036805,0.8430773543142154,0.9187831706664831,0.9799530233579992,1.0,0.9650426663695439,0.9097729515503419,0.8534217330413663,0.7915346944364368,0.7224639718814423,0.6576309452715705,0.6010862824238883,0.5682537657900122,0.5281473198191522,0.4723121431998596,0.4080889584072116,0.32232873622250846,0.22162957805770844,0.13427851302831595,0.049446443616968594,0.02010571389264637,0.08362064220395116,0.15991998239535565,0.2167200707498118,0.2733835027662863,0.35137451642513007,0.4515051983129288,0.5423987357863904,0.6525502319749776,0.7412280758713718,0.8286581008475453,0.9194056427487443,0.9630110936138454,0.9057408205038877,0.8055871875306062,0.7114026131734512,0.618826024840593,0.5326641533990655,0.44632238450676454,0.36415739966700666,0.31375159082702897,0.2852204465902508,0.2888372643943491,0.331148104130345,0.337693593828865,0.33824458066445207,0.3633841126098032,0.39806594764196745,0.4443135306119945,0.5279190738907102,0.5928822268683316,0.6615783985782118,0.7094119079226164,0.7390172625118838,0.7511381440896132,0.7794701195430589,0.8256692086462181,0.8741068633379445,0.9315381321109273,0.9855752824216681,0.9889080975452149,0.9269527138262683,0.8648576493240041,0.8073818739799101,0.7499145456031755,0.6922067953128686,0.6243191244050905,0.5656136275120032,0.5322441918683118,0.4903018695840311,0.44524276803167506,0.3604265170539742,0.2738474690543624,0.1729548178822986,0.07167690879032573,0.0242472457353875,0.08610006062624542,0.13366023884618095,0.1945865290480997,0.22885501604032665,0.295755842010446,0.36314247229583607,0.45537551036428425,0.5487026362252418,0.6401894000249051,0.7361690074167324,0.821976702334001,0.8899598099292447,0.8826191845877505,0.8083377771814675,0.7187801291838358,0.6279510671831261,0.5467133927934009,0.4374019924462669,0.3403473220089115,0.2847948758988226,0.25454861571649623,0.2747763682196487,0.2763283159465644,0.2602528474944288,0.27602617593474044,0.28697333662739855,0.32375154258869987,0.3674101192546688,0.43260758626981666,0.4966018729441153,0.556917556430788,0.6095390120619744,0.6320856363517278,0.6113195337863004,0.61475722776908,0.6605892208907811,0.7270035124265952,0.8049161241436753,0.8629945048549805,0.9061049331626929,0.8938073531396808,0.8277541320553983,0.761110727333616,0.7085123662473016,0.6525400210452208,0.5970691065994824,0.551965855159799,0.4989240459904023,0.45251944980176617,0.40148407978954026,0.34534861912954007,0.26151811473168074,0.17953834830466242,0.07924187850358422,0.0,0.020268349495164095,0.08807114152831463,0.14566471128468184,0.18810872341278184,0.2531333792416195,0.33910361133589095,0.4297819361971946,0.5257834805215742,0.6253998919734558,0.7135817971054994,0.8012092329639753,0.8854404149631439,0.880897581566221,0.8066424700957162,0.7065390329068411,0.6189465672641061,0.530783459870948,0.4393486937555604,0.3470667375331926,0.2981835895244114,0.2779305987131142,0.2900948203947209,0.3072762429209943,0.30847278358635766,0.33411645653191435,0.3721467494415629,0.39949551285882023,0.44992457596923785,0.5260971332714997,0.5964257221048657,0.6514799768959589,0.6691967416231162,0.6711716066489855,0.7053874787741643,0.7507198883795789,0.81900973428223,0.8785044966312325,0.9359683691060336,0.9883712562726128,0.9864227407453443,0.9213763725457964,0.8604196771844181,0.8031010323889989,0.7522265313909102,0.6747978697726795,0.6095242767163871,0.5690624827662845,0.5254326251844441,0.5005642101934216,0.4390479555201816,0.3388484510971299,0.25182329789979097,0.1631054626983941,0.07511565664898168,0.0026550521164612206,0.010971854863963237,0.0702203465079414,0.13044315587272948,0.18295812942000822,0.25181790405383,0.33855844822906356,0.44504797200599544,0.5357968594433116,0.6344622405495626,0.7276485232264855,0.8178164325039985,0.898284504255197,0.925729790516101,0.8651062414571626,0.772543553008469,0.6587817391694575,0.5638640479021308,0.4695593704766283,0.38426236656548074,0.32533476248197246,0.2664751848938982,0.24754845983411133,0.26222208316778595,0.25526797458315187,0.2735605523704203,0.2641759949045168,0.2767611724503789,0.32259327635560986,0.3530661857024251,0.38435329936267326,0.45129828639023284,0.5277477779837652,0.5976361944668636,0.6455138150658852,0.6901017656861894,MI
0.1353308155587758,0.15428326158807693,0.15957749142703914,0.16566077245640898,0.16688436014515107,0.16655884568089752,0.15344302666582488,0.14037800711673354,0.12617437502828865,0.10208235423112999,0.09131414430408302,0.08018788246483144,0.08552761933050768,0.07427240107389999,0.07406338634640752,0.06496637401932359,0.058547063598056504,0.07150755534904318,0.057656645315288024,0.05352797782496799,0.03812921522222901,0.037063374930846216,0.03753756945226616,0.053985161330619036,0.0830582981528809,0.12222578578912469,0.1647401352134099,0.2206163355123234,0.27251451195090093,0.31913791458141816,0.3772900676225648,0.4356915285527614,0.494092989482958,0.552494450413155,0.6108959113433521,0.6692973722735482,0.7276437530303905,0.7773976125718649,0.8260838970028352,0.8843572975171239,0.9426046709087048,0.9867542562488376,1.0,0.9697523312055321,0.9230980075478055,0.8719904800064375,0.8214998413382628,0.7901244838205086,0.7445319096809242,0.7111112351637989,0.6678854070060214,0.6374161185260192,0.592708911160261,0.5346030937645483,0.47620163283435213,0.4178005367221149,0.3605724049889374,0.31677614929673226,0.26114018487233226,0.20308292904043856,0.15800764384432853,0.10527667755105163,0.07504835037193569,0.07421295387353632,0.08300769824656973,0.09077058270318883,0.0757285942550503,0.08578538340089814,0.09461629442674813,0.11739938454385657,0.15222844294783,0.1856898304508059,0.21862665988595298,0.233555734830853,0.238274933276716,0.2232676426842417,0.21160287837163372,0.18333429335827756,0.16159499854796744,0.14957713519136995,0.16235619445868865,0.14633719818230562,0.12967969135985102,0.11449294744834537,0.11124924832181238,0.11124704883961423,0.11124704883961112,0.11124704883960845,0.11114546775691148,0.10188080567387514,0.09276463961638548,0.09270113036238614,0.09270113036238259,0.09270113036237948,0.09270113036237682,0.092692068696973,0.08856074032392014,0.07474542668429196,0.07415521188515406,0.07415521188515095,0.07377350733002253,0.06006735545863906,0.05561320594837316,0.05560929340792864,0.05630170872605467,0.07051948987506362,0.07514070465295086,0.09168346577061026,0.115319707218553,0.1299517804902912,0.14344149371293957,0.14839976920922693,0.15817025838682364,0.16472298766538884,0.14939342449036008,0.1450247310479038,0.12650886755660284,0.11164105727436802,0.09982131281867312,0.09082843970883392,0.07326366777032023,0.056551718988520516,0.0467702538599184,0.036957968752848736,0.026316360385080007,0.018555619325359984,0.01653816400700059,0.001210929412386097,0.012047829360920304,0.018494313779688465,0.02134674657160396,0.039390564054566646,0.06936899827701248,0.11959208929369769,0.16418861812076457,0.21008729673730242,0.26225595586305506,0.32063146129338893,0.3754754026271989,0.4196766503284315,0.47729265381064323,0.535694030145371,0.5940942221435321,0.6499095125507082,0.6936140719389803,0.7507543836535082,0.8091554163191419,0.8675568772493389,0.9243436224742165,0.9671151193542382,0.998528710041223,0.97880329513371,0.9286128671172555,0.8702490327051846,0.8142204446647519,0.7710429336570366,0.7135893893424554,0.6551879284122593,0.5967864674820627,0.538385006551866,0.48001548609037004,0.4292160873988293,0.3816324221126828,0.3233250813082882,0.2649243130034944,0.20814991803333793,0.16482852103198953,0.11045059380952438,0.07087387596138495,0.055692553857964455,0.05133303120789945,0.03762607420541464,0.03706718172672652,0.041446612077496336,0.055343092641259695,0.06968214637160175,0.10651049907633903,0.1424986482931856,0.16335207092086002,0.1819211575542159,0.1853946885829041,0.1774413777242354,0.14938792592887662,0.12643558375194708,0.0967982450259024,0.07308605714372263,0.05752330872842659,0.055609610640808604,0.05707435930546367,0.07234436274695355,0.07415438707917943,0.07415521188499907,0.0741309848414069,0.06776322602760665,0.05574353666062892,0.05560929340777676,0.05560929340777365,0.05616020031498303,0.06980002158760801,0.06836484456344305,0.06637948155162787,0.06673848774644053,0.05570784989179245,0.056054069006781226,0.06929664042150652,0.07414131298686266,0.07415521188495822,0.07415521188495422,0.07415521188495111,0.07415521188494756,0.0741552118849449,0.07415800353541879,0.07782012995508758,0.0919668536734215,0.09378657701453275,0.10922010219398892,0.11786502686778721,0.13008048698522634,0.14388729763257047,0.1425570071117792,0.13005299582354723,0.12938824304808083,0.1149021682212501,0.09551323767317443,0.07716280602126524,0.0630831549991937,0.05384643353186558,0.03855837078967905,0.036578101393296425,0.022691183869429032,0.018520967165224445,0.01830577709035497,0.007167923487366945,0.0,0.0010361040481656758,0.013728236021020912,0.0077046675634115935,0.03467756876297079,0.07227958201892237,0.12048296955303694,0.17777993729473351,0.22091100974367395,0.2769978128488053,0.33539811059130553,0.3937449349839701,0.44352345582379993,0.4921860289697073,0.5504580358348798,0.6088593275741374,0.6654516972400066,0.7087589059779105,0.7655186642782907,0.8239194220086512,0.8814198791070127,0.918624101151182,MI
0.16836780229350712,0.1598253082939154,0.18069172934449274,0.22525494977410698,0.26716082680732445,0.3253704097919723,0.39594057130016136,0.4654588823766268,0.5104056726241071,0.527629471804774,0.5010045688661409,0.44785145887906275,0.3777953207272873,0.31566672407776686,0.2804132798175223,0.27964620379724536,0.28791646356419953,0.30948239619614526,0.3393114577444649,0.3871502347553948,0.44175127162085204,0.5096728558429859,0.5833086092165809,0.6611945878304315,0.7370363021005497,0.8168533742664579,0.8855029585818528,0.9459095044536703,0.996348883782173,1.0,0.9565741401242978,0.8886060609075894,0.8335378543333825,0.771716941991631,0.713059798237409,0.6548048095897876,0.5766880961956993,0.5116382538938131,0.457921677845448,0.40721126756703807,0.3759871539510282,0.3220736671714084,0.27061594598729144,0.24250367344262358,0.20811597826615724,0.16492417919404456,0.09454011624956493,0.017601497993773307,0.024943657041591294,0.12052056662443089,0.20759078993805158,0.30163713640911016,0.3927272253050642,0.4896769333623565,0.5777946559253877,0.6523042194623967,0.6549845053883692,0.5915272812306673,0.5309606167469871,0.4488320444123346,0.35703247120733117,0.26098690912549394,0.17511586179155358,0.09419126315193971,0.03701912539307717,0.02967262672874771,0.03067234924045792,0.054977356451360926,0.09725682109380784,0.13327333539804886,0.1989238036897012,0.2546189810494006,0.323480812323667,0.37062394519787567,0.4115630143722857,0.4049863391258306,0.34908592731810195,0.2973450635272883,0.24189971074629213,0.22421006114049113,0.22408894413695446,0.23140159963975115,0.26443784827118755,0.30379156512672,0.34621491925822845,0.4072803069446742,0.4759050506527389,0.54792819797128,0.636523728853085,0.701323137649152,0.778612211502197,0.8516968551263497,0.9084338717317273,0.9517440883561923,0.9625401095103836,0.9153577558926642,0.8597851058357424,0.7953363184047824,0.7413681107046948,0.6844520139905104,0.6209932350469849,0.5585413147032945,0.4869259354795412,0.43956917045544674,0.3816390077846874,0.33292741530549463,0.2889188019164495,0.2533676896944934,0.22290547379108627,0.19086610284811023,0.14251194508773501,0.08113581702829542,0.009374910592294228,0.04471166561909978,0.14799830623780252,0.23291071464162272,0.33584097835223936,0.4333329140413058,0.5220247720871063,0.62548625305363,0.6874679599804621,0.6840354642824851,0.6062923381087595,0.5202364760475202,0.4325361918206134,0.33610965151086436,0.25514033702635963,0.19759349468966825,0.13591353092044312,0.13641820747087863,0.14075177921684112,0.14162545192274667,0.17578928356874624,0.21127948266680896,0.25392774803482077,0.3081930431805553,0.36267130513967594,0.41962030122803373,0.4601786137768942,0.4725479443811249,0.43339518806137356,0.364932911131711,0.30952185671115195,0.25648756016238483,0.22608541528491433,0.24465069262917538,0.2540331871150805,0.28765789021590393,0.33050653629028837,0.3971024716544447,0.4630733325915166,0.5302288580713794,0.6013577934095995,0.6726466948009442,0.7545038243566067,0.8392300395691601,0.8806613847131972,0.8854979074024429,0.8802719868223647,0.8373455243762766,0.7716418275326786,0.7003834957073725,0.6433869870951474,0.5749953149037754,0.5105023556049817,0.4560229104937381,0.3967566465126211,0.34580919084256934,0.2958359422484875,0.2600029293772428,0.2285166065485873,0.20785609825851203,0.17822762334199016,0.12650861151029336,0.06069733330270832,0.019130266793819573,0.09950622075321292,0.1795117483200297,0.24233989832223468,0.32074874680708376,0.41811299695068627,0.5158568239186394,0.6041850114985943,0.6930376871576023,0.7097513170416674,0.6384118910568688,0.5473443153945574,0.46300098290493885,0.37040191270319944,0.2813411473020695,0.1962178870260205,0.12247822176173084,0.13117136975563337,0.14071542906525725,0.1415883781390166,0.16525906349182407,0.2011861375593087,0.24943811993996512,0.31062445861692467,0.3771763155625001,0.42359365091494716,0.4685096787080436,0.4936813229401933,0.46692640876695535,0.39793436453994424,0.3400555818334041,0.28459444378534204,0.23419627861832826,0.2241159460867701,0.22416903662954368,0.2385350963734698,0.288290355710787,0.3448527285691547,0.408633046848883,0.4680354408362035,0.5434631487962713,0.619203522615086,0.6903756489715027,0.7614074563263449,0.82317901406934,0.8570654227165564,0.8515661120660525,0.8040417970194191,0.7562304200008274,0.6872254198975174,0.6160646319161502,0.5488203606064719,0.4946758196534704,0.4385584419840587,0.38397399586622427,0.33456317484312414,0.2817814945418897,0.25093630760834884,0.21706879912954857,0.17972338881942473,0.1562924745073735,0.10496654874322875,0.03860574461904864,0.0,0.0750236232337258,0.15909534162003425,0.26288168035683146,0.3510008525244004,0.44913469286761565,0.5460211348113111,0.6350643168557131,0.7228053578253197,0.7363528730331064,0.6638089869341757,0.5695633530289124,0.47584925373827147,0.38406744963792416,0.2953040620036429,0.20794001438186083,0.13311170490334678,MI
0.2669725641383187,0.27005808839113765,0.3082857898540379,0.3656183066960139,0.3927607835393876,0.4053731999797261,0.43258362332937716,0.4342440998701429,0.4293446230847153,0.4138848640226285,0.4297364638544767,0.4232521746196536,0.40445422021652,0.35554529511748134,0.3075270278603859,0.2589997600685212,0.19446747610192272,0.14592005274940645,0.09257594182057183,0.041733784241540395,0.008908916060542005,0.00014523658404730355,0.01597711901504395,0.08118052467759362,0.13835253772901934,0.18740630368144817,0.24187199412403393,0.2857866078452278,0.2897470956295787,0.3311021890255108,0.3793453575451009,0.42012038351378633,0.41290341463022306,0.41252498549360084,0.40574441388216753,0.37779215388265674,0.3139930219745235,0.2418933450302876,0.16976966876012867,0.09764938730296402,0.029362335434436115,0.003617987351435925,0.0,0.0005934862413909947,0.017220956182768976,0.03690054859220293,0.07514781466812748,0.13247683391920395,0.176704503808212,0.2205389818148289,0.28030542215830234,0.3221928628471602,0.3644777483269488,0.3905686368591139,0.4087842518783167,0.4123357543270245,0.39849581228006326,0.3908637632159815,0.391343301812102,0.404803990026958,0.3927370782002262,0.3913250577088725,0.4048045706023866,0.3943367948853522,0.39846682658078425,0.3939306128506961,0.39621877191438104,0.3982777229272281,0.4281470068072486,0.45026668484188015,0.47673497003588494,0.46299484571310057,0.42826994970862664,0.4115347405017218,0.38126287852189567,0.36112316314190496,0.34754404782669646,0.3349178478770485,0.33599059626340244,0.3372377381272065,0.32644496427671266,0.35362642850168413,0.40755619936677157,0.4782448024384345,0.5345224511376814,0.6009747636962386,0.653780680148055,0.6931226320761956,0.7526825329772473,0.8241706359946379,0.8807097428046124,0.9353900688693124,0.8998050128867932,0.829929278553645,0.7755032390880152,0.7066890085611699,0.6521422223118472,0.591582750348906,0.5444240891971757,0.5140163588563329,0.4690036394008201,0.43585376530387077,0.42150130131040875,0.42255861874636125,0.41972727165242985,0.4323592396551912,0.4445998705818073,0.4582200821570255,0.49040500530150855,0.5035738618959784,0.5206261500294862,0.543516547356468,0.5685099859484053,0.603217743455088,0.631771341045249,0.6597073505823028,0.6865533721719199,0.7143760417403016,0.7372271487079995,0.7883549794044082,0.8195792738236847,0.8460498388088595,0.8641713491247307,0.8624656395864796,0.8265236162322753,0.7810246034287425,0.7312907725488458,0.690149745600495,0.6425687756802168,0.5946034531738826,0.5635055333404182,0.5217028867157416,0.478850530518645,0.45098513937909335,0.4341519197158128,0.41794286231142186,0.41254970018245496,0.4125377927816922,0.41253779278169356,0.412537792781694,0.41253779278169533,0.4125377927816958,0.4125377927816962,0.41253779278169755,0.41242074230796666,0.40098322857382795,0.40027650818138216,0.41239876338489045,0.412537792781702,0.41250527662750125,0.40370138392940325,0.39791501889551206,0.3989984940945477,0.3911442811634336,0.40421856734141137,0.41252139829563683,0.41184811155299794,0.3958109248037678,0.39090212529652435,0.4027896836751874,0.43291327682304903,0.46511968424374617,0.4979354409459753,0.49820921575197374,0.4688749696602059,0.4528055250621792,0.4099423703561431,0.3854894974862768,0.3624208282138648,0.35895756676079404,0.35112266327465225,0.33346566950645506,0.3219902833962034,0.3076613689894727,0.3381706813518597,0.39296302592729804,0.454607956232425,0.511184629839661,0.5775402077951073,0.6426303346564923,0.7003185451151115,0.7721898241844949,0.8374856893274565,0.8949834413101287,0.9664999788152251,1.0,0.9385985554973688,0.8671282475197262,0.810909812004148,0.7441586117211827,0.6864459289455422,0.6325983116821288,0.5946948356767541,0.544444007292705,0.49440348748974383,0.45967689339159046,0.44181704578305236,0.4343294692650619,0.44192329149829757,0.45592364899866,0.46823913298612574,0.4918129071139812,0.5030446183099069,0.5204355942881111,0.5423291835030026,0.5686026838752665,0.6078710407290426,0.6314620279503234,0.662035140472315,0.6950753284135951,0.720442515264756,0.7474507434174154,0.7927312778852516,0.8269050786191485,0.8634732013571051,0.8903423709902136,0.9084594290174692,0.8932150455708094,0.8510745073583172,0.8049320440698935,0.7504080677297802,0.7157863279272951,0.6692528992394529,0.6156536028840218,0.5720949215332514,0.5378198410378863,0.490153389667503,0.45587424008739186,0.420339577022121,0.4125572016780197,0.41253779278174285,0.41253779278174374,0.41235649622516846,0.39895797708900593,0.39116692839636213,0.40454797715264235,0.4125221485383177,0.4125377927817482,0.4123717124026891,0.3994360217180888,0.4018471187249584,0.40792279128957043,0.4000014822861999,0.4093868458615728,0.39234439870753723,0.3908244397321976,0.39104399704999393,0.403549838543773,0.40680837252913005,0.3924946423566582,0.40928694262594245,0.42998609018224077,0.45889534936886145,0.49492125695895295,0.520596726425925,MI
0.04932038025386376,0.0664718155651165,0.08240826944495305,0.08898093817216335,0.0888093983287177,0.0695705876451913,0.05173272050625788,0.04700453192299325,0.03982692102710428,0.04607728895060803,0.04830936331209679,0.04859120394321392,0.05525935345607458,0.057971139859555265,0.0597929486150135,0.06710275421843326,0.06746767049093538,0.061322938070511146,0.05764545378560593,0.05073764914406409,0.051085532742233486,0.05785558054618889,0.06421100381056744,0.07650020817348158,0.08788498364332309,0.10137663139290631,0.105133633040988,0.0970518522028525,0.08502317067516141,0.06885108395277562,0.054589057603057434,0.038272232240827764,0.02358429953727148,0.012618482085880345,0.0027426089864530656,1.0208396360456007e-05,0.0,0.0001381938910867131,0.006466442858571675,0.022354796063923876,0.05466919512293056,0.09531051292472137,0.13034821605121905,0.16797054715110105,0.2039556215381091,0.24063450553225074,0.2817057529374096,0.3217420268699387,0.3552458252628241,0.3953904633675611,0.43650517425394586,0.4776204444971821,0.5182933547315522,0.5520903536465893,0.5913082634828231,0.6324190340415099,0.6735344185423819,0.7146498030432531,0.7557556627847235,0.7942228754517136,0.8286037146488929,0.8694483158207322,0.910563584278693,0.9513072687496475,0.9837852331017916,0.9999999999999998,0.9812282566185175,0.9476636682641681,0.9070124730378517,0.8762016640140142,0.8437432253379893,0.8075099225957956,0.7808049382991504,0.7482786855103349,0.708395947494971,0.6672818485491596,0.6261664640482876,0.585051079547416,0.5439356950465439,0.5028203105456723,0.46170492604480007,0.42058954154392825,0.37947827336171036,0.34016024832779634,0.30643487124875923,0.26579093771739437,0.2246799224808993,0.18538692624640518,0.15164364370836836,0.11101212075884415,0.0731218743840838,0.041452033602283,0.03695347707703234,0.04717953031807354,0.06781755322106342,0.08695197920493958,0.09591949221299623,0.10024071352762198,0.09318067000731522,0.06630219689609063,0.05808569700506827,0.05797837630073155,0.05797837630072844,0.05797837630072533,0.05797837630072267,0.05797837630071956,0.058060700725909964,0.06329629127187886,0.06760060158246506,0.06761786154186544,0.06420144664684413,0.05812380722644228,0.058015213372112795,0.06222980723398974,0.07023264181278988,0.07845284607093461,0.0882878779387537,0.10348169110970651,0.1148529921909982,0.12136261679205829,0.1206022231916033,0.10523918585342718,0.08724409502759833,0.07065721575706707,0.05555502520074751,0.03685929576686875,0.027449459661489373,0.01980509837559774,0.016727399857332292,0.009960696314779582,0.009663244814794636,0.01031388883158213,0.028612303871396128,0.061584975878782755,0.09722811626188688,0.13325035742904578,0.1668823938760844,0.2062886166189286,0.2445086920720747,0.2790802686212983,0.3199800374406967,0.36109539069924756,0.40220881059462554,0.4417210991910161,0.47392148774958787,0.500210772852641,0.5286675269869374,0.5568386548972823,0.5827617339011997,0.6102379601211896,0.6442425604858812,0.6846806320749443,0.7183342431840798,0.7578524986133515,0.7989647620426321,0.8400801215496465,0.8809341361777985,0.9154468655701165,0.9533033694299264,0.979793062638233,0.9670848340012899,0.928934241339247,0.8880391804902643,0.8534359848698247,0.8152470790813735,0.7741439538877282,0.7330285693868561,0.6919287388865467,0.6547243378409624,0.6282386849477917,0.5960216753332348,0.5564389553086901,0.5153254505320077,0.4742100660311357,0.4331410107705702,0.3966383803712823,0.36045791796497384,0.3194115907444426,0.278303308303415,0.23977968299979624,0.20543086636053176,0.16461366248029496,0.12431823173568235,0.09085064182191727,0.05163241732946622,0.03118400103768937,0.03956770176488256,0.05853171570909588,0.07679982258907603,0.08591805669520025,0.08603726141392154,0.07232163565228267,0.0535270801147234,0.048352714719221535,0.048315313583831454,0.048315313583828345,0.04831676890149428,0.049625298541841945,0.05724288510934161,0.06007348391733891,0.0672049988426413,0.07064963450929707,0.07615312132632224,0.06871861935940826,0.06428254284233459,0.058156031121816554,0.06154722152116032,0.06754419726700878,0.07350831924350043,0.08907927473116883,0.10071972839809784,0.11800003300314299,0.12056025555810601,0.1233685101600277,0.11361212190807923,0.09893984128402056,0.08383989183041085,0.0661074874765295,0.0505708293078071,0.03655957371001062,0.023444383405715197,0.015308902192133989,0.009672918324830304,0.004465804066818624,0.00013621925406215318,0.0056314673971866736,0.0203678483051275,0.04726406656706761,0.08227294912256622,0.11610230110190178,0.15493434869973677,0.18967135395061074,0.22772374742693424,0.2688226117741004,0.3097200914567606,0.3444297753747527,0.3825214381700168,0.4236210906313431,0.4647364751322147,0.5058517596576555,0.5465536465950309,0.5804222673460708,0.6195400619846259,0.6606503349197796,0.7017657194206517,0.7428811039215237,0.7839964884223958,0.8251118729232674,0.8662272574241394,0.9073385862612586,0.9462989921850335,0.9714554667203001,0.963192509767502,0.9289744170326826,0.8960724849512045,MI
0.062123194171939566,0.06212319417193646,0.06212319417193335,0.06210937203082478,0.05552777422729527,0.051895914137835675,0.06262858556413109,0.07904486484684359,0.09376738289126907,0.12426135419822604,0.1559178495834903,0.18761162459708647,0.2192623160120224,0.2583600147802563,0.30359745041470276,0.3215255944477393,0.3396963879249655,0.34167253420780463,0.33367037586851467,0.3123588325073703,0.2834160638855385,0.26221061636762455,0.2396438057551622,0.20828398579580965,0.17791525889784632,0.1552780281283801,0.12417712930874236,0.10442224108544496,0.08591383503634509,0.0657629020407362,0.0621240824446021,0.06132074832254375,0.044976229165608395,0.0406154425533769,0.037807675634620175,0.020001096847328537,0.024459985276729324,0.05824379954299452,0.10124643449070536,0.16094525817124117,0.20706300928981225,0.26689865394711143,0.33022979959894583,0.3899634672097747,0.43652801004035835,0.4987364869448956,0.5620734538204575,0.625385199778663,0.680714746142614,0.7307922850150308,0.7939161096527827,0.8572412450975544,0.9143354773561847,0.9614858205017645,1.0000000000000004,0.9981401998408788,0.9417664822661105,0.8855990301797019,0.8363446212115186,0.7732535230107564,0.709916369671332,0.6465899702981468,0.5887929880810794,0.5409268281508979,0.47807371383900454,0.4147365604995801,0.35139953783168165,0.28890921108588685,0.2419749529968369,0.18289612567953117,0.12250570373342873,0.07689978744553727,0.025302817875074712,0.019116426170420642,0.024075973336826095,0.05308040974488115,0.08094624123128247,0.10143923428062651,0.10912059899092252,0.1361066931535695,0.14661651651198593,0.124189234123949,0.0937321574758525,0.07902139384980478,0.06273982422313562,0.06212319417180323,0.06212319417180012,0.062123194171797014,0.06212319417179346,0.06212319417179035,0.0621231941717868,0.0621231941717828,0.062123194171779694,0.06212319417177614,0.06212319417177303,0.062123194171769924,0.06212319417176637,0.06212319417176282,0.062123194171759266,0.06212319417175616,0.06212319417175305,0.062123194171749496,0.0621231941717455,0.06214405869144812,0.06955287317514935,0.08339544130867971,0.08362915169710439,0.08362915169710128,0.08362915169709773,0.08362915169709462,0.08361324058586295,0.07624290659102195,0.06233865138180672,0.06212319417171086,0.06212319417170775,0.0621231941717042,0.06212319417170109,0.06212319417169754,0.0621548181002467,0.07101010188452594,0.09225342700032702,0.12065577959819462,0.15130948870511274,0.19129109791472754,0.2268302887374083,0.26003578515486314,0.2918011189709495,0.3180578314266902,0.3331480029746703,0.33967867186959255,0.3199732733577294,0.2987985230905803,0.27282029137707164,0.24966969187124866,0.22001909966633004,0.19267606213816357,0.16740896244441839,0.13578421235273286,0.10772942258769191,0.09539469104312515,0.0936672900682658,0.06645772987006504,0.05889669228287042,0.041441252657901995,0.04058197952361997,0.03241553919575324,0.01921078591086056,0.01711444361344272,0.0,0.013910070753053727,0.004534838714187028,0.04027345679009242,0.09233439289406231,0.13936766686574353,0.19799864735381512,0.26132670381883427,0.32195175778705654,0.36801037447447893,0.42983316212255884,0.4931700526507119,0.5564942317035868,0.6134625785713275,0.6619446653037744,0.7250127084830376,0.7883484112217034,0.8467621413417743,0.8940758440381935,0.9560439997482768,0.9843030588073405,0.9595350927694857,0.9102589629551514,0.8620593192983361,0.7991450091293051,0.7358078557898806,0.6724708595499318,0.6101140406236794,0.5633549108149563,0.5039640841108155,0.4406280466181278,0.37729368304635447,0.3166703733553282,0.27122373317709636,0.2087857284762613,0.14750536492025157,0.11027874923472636,0.07980902427938119,0.026879173222082997,0.003856728890647698,0.01820217241906885,0.029820064001779834,0.06041054778975852,0.09159751349660628,0.10496297701889556,0.10773516923671211,0.1329729656842371,0.14712928939547476,0.1275764853683321,0.10281522866717552,0.08168383744487118,0.06301180581018606,0.06212320591733045,0.062123194171571416,0.062123194171567864,0.062123194171564755,0.0621231941715612,0.062123194171557206,0.062123194171554985,0.06212319417155143,0.062123194171547436,0.06212319417154477,0.06212319417154166,0.062123194171537666,0.0624746421752671,0.07717218254904923,0.08361576810981841,0.08301958864950398,0.06692803256415036,0.0621296877155304,0.06745707668457301,0.08324214572864674,0.08362911205495793,0.08362915169687835,0.08362915169687524,0.08362915169687168,0.08362915169686858,0.08362915169686458,0.08362915169686103,0.08362915169685792,0.0834876952590049,0.07228375951080457,0.06216462111698018,0.06212319417147416,0.062123546544124775,0.06384140728592413,0.08185569430876605,0.09869037421356053,0.12997691765739106,0.16181871320821495,0.20191823195967284,0.2440394480582606,0.2781763103782513,0.30920869094749515,0.3240220230771067,0.3407127319193126,0.3415257726646952,0.3292109725975165,0.3071699317967207,0.27964498514012215,0.25511672506543004,0.23076863698903738,0.20251073174917478,0.1707753666302585,0.13968627455809868,0.11747888042312526,0.08895834523779333,MI
