0,1,2,3,4,5,6,7,8,9,10,11,12,13,14,15,16,17,18,19,20,21,22,23,24,25,26,27,28,29,30,31,32,33,34,35,36,37,38,39,40,41,42,43,44,45,46,47,48,49,50,51,52,53,54,55,56,57,58,59,60,61,62,63,64,65,66,67,68,69,70,71,72,73,74,75,76,77,78,79,80,81,82,83,84,85,86,87,88,89,90,91,92,93,94,95,96,97,98,99,100,101,102,103,104,105,106,107,108,109,110,111,112,113,114,115,116,117,118,119,120,121,122,123,124,125,126,127,128,129,130,131,132,133,134,135,136,137,138,139,140,141,142,143,144,145,146,147,148,149,150,151,152,153,154,155,156,157,158,159,160,161,162,163,164,165,166,167,168,169,170,171,172,173,174,175,176,177,178,179,180,181,182,183,184,185,186,187,188,189,190,191,192,193,194,195,196,197,198,199,200,201,202,203,204,205,206,207,208,209,210,211,212,213,214,215,216,217,218,219,220,221,222,223,224,225,226,227,228,229,230,231,232,233,234,235,236,237,238,239,240,241,242,243,244,245,246,247,248,249,250,251,252,253,254,Target
0.8352511788437496,0.8700612356462094,0.8847918275260129,0.8877689586371602,0.8825543045073587,0.8509043905629636,0.8046894993838998,0.8204124315624401,0.8382483817924995,0.8634993975478258,0.8716260019947848,0.8735278151507755,0.8723212701220153,0.8692665420564842,0.874738659956054,0.8855526888940162,0.8861517695585399,0.8819280000088683,0.8748894270756922,0.8720212911814711,0.8510001716851132,0.8162498792582444,0.7856298534235924,0.7703231513383688,0.7538609960331581,0.737893420278541,0.7528159323080663,0.7907913345990312,0.8337381418793832,0.8755466158367149,0.8976100612473799,0.8943019184865579,0.876398218504931,0.8606108094832332,0.8457807153803549,0.8450504088302608,0.8512294163027492,0.8829166167078544,0.9466332990084458,1.0,0.9956714757806711,0.9294592761256428,0.8492222648871359,0.7676459866073988,0.6886810792966744,0.6016456473725906,0.5144111104307858,0.4452311970057261,0.4889333829745217,0.5749505551848619,0.6519465484324884,0.7241328472253623,0.7649689711503012,0.7767952058212115,0.7829515999962822,0.7739985825889795,0.7614297243331665,0.717285483576529,0.7290377618036876,0.7630323852109009,0.7904384869444323,0.8017968205344856,0.8031651714597938,0.8116089114358993,0.8115696747943728,0.8101786926326908,0.8025687981742209,0.8021881495746164,0.8019839843337278,0.7942373942990422,0.7880085910934622,0.788839989532828,0.7930419779190863,0.7880804521673639,0.7879025191063476,0.7852558029407128,0.7795680915079104,0.7653666756284121,0.7422496139952779,0.7486790924157414,0.7795215030865577,0.8257772199346256,0.8688503551513755,0.8890274299871219,0.893364852040849,0.8789348212506578,0.852809307483696,0.8291335466320784,0.8107151440550151,0.8024470565918054,0.8113352250548291,0.8576139514378722,0.9125223171352701,0.9340551208518417,0.8809402514500224,0.8028448548577942,0.7158096503004101,0.6285077657084681,0.5412062714362582,0.455685092018983,0.4300437046657277,0.5058629667590395,0.5863706460577394,0.6603899819101309,0.7125791027144999,0.7436105061951608,0.7746191471899739,0.7875009850038492,0.7804137386826002,0.7544306075723339,0.7064309066537953,0.7093923169906362,0.7357951955806086,0.7561891214264942,0.7649192651411658,0.7733807098805365,0.7748649617962897,0.7748378946796501,0.7361363038172439,0.7289701589479347,0.7243003593147921,0.713805802767518,0.704407863659887,0.682544579708023,0.6540883914310065,0.6334625913336165,0.668322078971622,0.712907106661794,0.740120580910447,0.7416418382837353,0.710810854829695,0.6804779050179501,0.6222551338400089,0.5435394807666771,0.4659470458667645,0.38071828812940667,0.3041964113881195,0.21973702596305,0.1428282200123483,0.06060938106590563,0.0,0.02584038709864478,0.10401378976232456,0.19115422703294382,0.27642242508699444,0.35295647417942266,0.43879594092383845,0.5260942106568343,0.6119930209904325,0.6884368629698585,0.7730434219436311,0.8201201291012179,0.7792607728417962,0.7520011435480685,0.7461164504847186,0.7564150121177717,0.7775375818219787,0.7956406836852583,0.8208115502284117,0.8373145136949485,0.8320174524758661,0.8050100133860565,0.7583810775041635,0.7181906252370771,0.6928199954200367,0.6946965729554777,0.7158110102571857,0.7337812621791482,0.7326903222936783,0.7378297116487422,0.7406943292047159,0.7412016087070654,0.7394993494182986,0.7455046637504354,0.7470814799107313,0.7518144186868034,0.753816005954679,0.7609744223139963,0.7678120881089439,0.7679254852173796,0.7652851207429205,0.7638140223833751,0.7540908084791949,0.7304690089419119,0.7041537480435198,0.6638096769552297,0.6480330928811799,0.6847408889692876,0.724624386739761,0.7378353575529886,0.7278501591322328,0.713877255425849,0.6543038666325227,0.5791713904357874,0.49430306774022537,0.413601903302234,0.33373869668689893,0.2516491884729952,0.17324698535259175,0.09256799030695162,0.05342469254180049,0.1051533305409722,0.19015655593288483,0.26747811492230933,0.32716633051397825,0.40943249499106904,0.4967153270976361,0.5833737693706578,0.6606371186354458,0.7443676213538493,0.8313897225670233,0.8914937771105964,0.8576367230018063,0.8196184838465137,0.799741317671014,0.7964926694518324,0.7971555993887054,0.8100659092311382,0.8278918574673888,0.8492579815252457,0.8428484094454172,0.8071097933825921,0.7588888442555621,0.7181945648848242,0.6898835324678063,0.6869716512396034,0.7058541453033329,0.7272175384246893,0.7460737250551861,0.7802521601414045,0.8110401068290121,0.8263038082793202,0.8309496677770598,0.8380400009895554,0.8326230126546843,0.8292595792978372,0.8244426164169174,0.8177740099234554,0.8242986530366601,0.8248712701506151,0.8167153181623483,0.7973287956722608,0.7757366767573495,0.7504881055295378,0.7675838214325048,0.816182688681236,0.8383732613451786,0.8389177226362272,0.8266270437471146,0.7769358565313342,0.700619371528862,0.6242928989941379,0.5419337537373092,0.46532354381360586,0.38646472810261745,MI
0.9892762838353781,1.0,0.9869241280216747,0.9779131806840211,0.9700792261453168,0.9075537873175703,0.815154705517271,0.7167713614965217,0.696009977237845,0.7856757785094572,0.8720334248730639,0.9265970076235086,0.9304044528001394,0.9303539499611877,0.9253960288894096,0.9196899430543679,0.9101655648816691,0.8963528074242642,0.8943524483946259,0.8800193130872294,0.866309655376226,0.897917788502554,0.9111115126416918,0.9059619150281142,0.913265955836724,0.9265842829799804,0.9285949409456897,0.9149232352978944,0.9125085687831147,0.9126893448300426,0.921398791673405,0.9195005687481252,0.9260969330911446,0.9154479700494784,0.9236922101506715,0.930325988318546,0.925758485708243,0.9092828151699468,0.8842207014246393,0.850666868377826,0.8282434310556042,0.8493973715675143,0.859593221011798,0.8831223280731746,0.9227393627877745,0.941973379917076,0.9389270340917255,0.9480672716060172,0.9483166856814602,0.9509770512071691,0.9646029018242213,0.9662007260167109,0.9603434052691262,0.9038863359391396,0.8107660504356256,0.7174559355321524,0.7296851753333833,0.8217075221912373,0.8996755158560243,0.9248602728991151,0.9094968885281034,0.8955959372232702,0.8946008926660323,0.8945674965622379,0.8894511842450847,0.8773054536595448,0.8722552114277042,0.8414436143448292,0.838356603800515,0.8686783246565977,0.8767370668546275,0.8851955508985787,0.8927119603618991,0.8831001646978738,0.8902558634585644,0.8905983472889307,0.8871149766781894,0.8770530005338655,0.8838604809500379,0.8942916313160878,0.8952478994491688,0.9074516840609386,0.9116104836988841,0.9089811757010149,0.9107942084212879,0.88696150613257,0.8569529982470621,0.8217853376221869,0.8306111866497319,0.8715873005265449,0.891060960347065,0.8802225118785163,0.9038294917988603,0.9335990851723439,0.9481711576350453,0.9586659434088629,0.9661229654117367,0.9662365217855102,0.9706463406699521,0.9747126029546598,0.9493448051497348,0.9021127214590936,0.8136469256428454,0.7246103190501034,0.6906983044760762,0.7778577245934155,0.8721882086984274,0.9176891327692118,0.9006623235411189,0.9043978075238424,0.8903556139498527,0.8565227576518017,0.8495889075253111,0.8074371065740671,0.7199622340867178,0.6265253934995512,0.5391458362571822,0.4647619761830053,0.37177512808280966,0.2842826933909661,0.18484269698490197,0.08384164956804296,0.0,0.010155748289288447,0.08840535091049517,0.1873757724291556,0.288197380971408,0.37867070419566007,0.47305724365075763,0.5741606334675913,0.6747542223814009,0.763836393454771,0.8540835678940839,0.9051939561612525,0.9225529142773738,0.9219775654569018,0.9085795695992496,0.9053475724215803,0.9027482807696012,0.8817764472968475,0.8476786960251301,0.8239980275135248,0.8242047655276643,0.8062218009911168,0.7687356334328981,0.7668684433076067,0.7922418722606976,0.8233933085141141,0.84634351377741,0.85160434882359,0.8516317693687321,0.8516260557646746,0.8488658750157687,0.8352640503178939,0.8337299716141393,0.8344558266379458,0.8405843803589148,0.8341011264354812,0.8337281476064637,0.8337281476064717,0.8336459980565563,0.8259412485082742,0.7977279423039674,0.7808822240330517,0.7950659488905951,0.8237782179818076,0.8207318091997635,0.838023215379724,0.8510423177728841,0.8510233900039239,0.8395209428758865,0.8464911177966141,0.8429507241265806,0.7812064659780589,0.683492137268876,0.5898363604052665,0.4987123394100963,0.39806949260386526,0.3070636647537004,0.21329623576465062,0.1204681168702959,0.09489697175829592,0.16414978820586423,0.25490968730005115,0.3558018434355139,0.4535448430260942,0.5244950400158586,0.6066129382181322,0.7067883575351006,0.8077984277583776,0.891163755304718,0.9162470694543621,0.9077646255109686,0.9049590934746838,0.8937118808518751,0.8874911882907948,0.8873156380583351,0.8780879915871425,0.849055702548505,0.8160998790482252,0.7993366022726756,0.7822417295518096,0.7653077527836394,0.7903571857469252,0.8263738251789894,0.8527918816421396,0.87422035071878,0.8857976047314895,0.8639023632174574,0.8447442478374301,0.8525643870594819,0.8595408240667224,0.8649936962174167,0.8600595881143711,0.8575202535664883,0.8676678375545444,0.8695335804165918,0.8695105081403276,0.8647065843617252,0.8523201584114086,0.8520292463094834,0.8570533595786922,0.8262971642160024,0.8069867557357369,0.827170767266431,0.846405686347206,0.838711468580307,0.8522465910113928,0.8668153842465838,0.8695298412850145,0.8695353911314969,0.8690805009433347,0.8417487108180706,0.7626915629988971,0.6647483222388977,0.5740245566306528,0.47993721428034286,0.3788357342808619,0.27766271875334736,0.1765236331487534,0.08219302282768215,0.04088458039651899,0.09951090533581652,0.1856784344544944,0.28524657686424293,0.38640427657315835,0.4836196899804084,0.571805219149502,0.6720341874068803,0.7728301253652878,0.8608619473873196,0.9159039250819103,0.9392582554096229,0.9369630309897046,0.9304012778231385,MI
0.9999999999999996,0.9838558272712681,0.9809184151663155,0.9806893793792968,0.9622705423058444,0.8869833028522955,0.7861678188484382,0.6784763710298023,0.5781827066749656,0.61665772728557,0.7156472774967213,0.8080580220421978,0.8626348674349926,0.8745359244076298,0.8548800626058899,0.8054992011579034,0.8082274513705663,0.8489567120376664,0.8690397936653556,0.8634115165276741,0.8627492048924994,0.8747700957472859,0.8751096591557936,0.8751096591557874,0.8751096591557808,0.8751096591557754,0.8751096591557688,0.875109659155763,0.874961431616291,0.8653506201466166,0.8541888370026864,0.8539512004363412,0.8560685747918884,0.8722321838470122,0.8749135165520405,0.8643639841749291,0.8540521228174955,0.8463672992027864,0.8255925192098146,0.7858292913349003,0.7560783498986461,0.7816732564426472,0.8257237218541884,0.8709897059603842,0.9140221276799645,0.9476069330170489,0.9595825189151252,0.9582754696051787,0.9459563066594749,0.9581453279651857,0.9616066425918941,0.9769000721115586,0.9507425223525261,0.8653096451648636,0.7621393794239668,0.6538103292882842,0.5375465256320706,0.480447239781963,0.5723827686786875,0.6895231123676946,0.7976920064170163,0.8674831646109995,0.8939739547937822,0.8780079823084668,0.8360945166970759,0.8174143597149972,0.8534800690864808,0.8886731122031892,0.8962225439285003,0.8962703680173263,0.8962703680173205,0.8962703680173143,0.8962703680173081,0.8962703680173023,0.8962703680172961,0.8962696608156655,0.8949675686283483,0.8793854552002589,0.8751229176260482,0.8751096591555303,0.875109659155525,0.8751096591555183,0.8751096591555121,0.8751079846431642,0.8733995023986432,0.8522590940425472,0.8216557251791894,0.7829216976266395,0.7974175032919981,0.8437384435394186,0.8830927005800877,0.9234920121586887,0.9601801204709299,0.9792672048054789,0.9827454830455342,0.9987669585135177,0.9939695368698582,0.9812903659031571,0.9807263422274857,0.9633879586831737,0.8835566098633456,0.7790957581563527,0.6710192914835087,0.5801272107740605,0.6176752768009588,0.7235099350030074,0.8183919981309322,0.8762514755340765,0.8919318390905753,0.8701364841526393,0.8312785479348226,0.8217618679034477,0.8506743362969882,0.8533143408271129,0.8326294707283806,0.8049620461934692,0.794604884564234,0.7528521161334405,0.7426091182888097,0.7729748796796501,0.8165733619178028,0.8100676806093436,0.7274974897865971,0.6289678097048457,0.5473644096660308,0.45204725533079193,0.3428709187442349,0.2353475662430422,0.12954532773421645,0.033449560131732614,0.03283833265291225,0.1250741277760885,0.2405122937350921,0.34589031344854737,0.45443819862104595,0.5685917365575257,0.6698004090011076,0.7819332715149234,0.8744847050075748,0.9175612791042203,0.9187745958343667,0.9278036008659081,0.923113801813384,0.9114756781873505,0.9227345432561886,0.9037057339079406,0.865303826047124,0.8228744423703493,0.7785649189850776,0.7354467023111715,0.7056360797824901,0.7244425351920825,0.7665965968951447,0.7975304283219513,0.8169433980990641,0.8242659223662887,0.8243239578873478,0.824323957887354,0.8243239578873598,0.824323957887366,0.8243330442278212,0.8277469693195356,0.8434787753503459,0.8333644516812653,0.8257133872095506,0.8411358201708303,0.8454705492556394,0.8454846667491478,0.8454781111464671,0.8420489518407179,0.8259824333957302,0.8170848411845015,0.7778372281085644,0.7424926403556977,0.7482081562661929,0.7950621153812563,0.8210502888788467,0.7741800058938031,0.676780474972706,0.5760557080994233,0.463991880133082,0.3626911666200563,0.2473201041985975,0.14150539696857756,0.040917117405572245,0.02631606717909385,0.11502623384522792,0.219611599588438,0.3352395300367852,0.43692494970096485,0.5500615240475883,0.6600899406575618,0.7638754719146577,0.8653665438242109,0.8956400600819632,0.8879377872657725,0.8878270143737823,0.8929076631582396,0.9074282133019165,0.8925089478477259,0.8621433698359611,0.8189620190530773,0.773989289055875,0.7332328674920516,0.7003590709977168,0.7041757752345523,0.7418453400450278,0.7777316457514396,0.797188434797504,0.8034385864962803,0.8153329475596709,0.8210304721909596,0.8050400175101102,0.803165207422841,0.8031632490258387,0.8033010027308323,0.8126792038100858,0.8240649425935387,0.8243239578875987,0.8243239578876054,0.8243239578876107,0.8243239578876174,0.8243239578876231,0.8242081669656414,0.8149098590503927,0.8035943235482859,0.8079047532816315,0.7925837032795284,0.7434249285904242,0.722822854332072,0.7265571076453772,0.770283465511783,0.8159522124694076,0.7976871859563621,0.7194335827795153,0.6124419228722857,0.5111967737308047,0.3963303779018639,0.2934044203724899,0.18232888720465246,0.07730972867978991,0.0,0.03369682905678317,0.1302902003177242,0.24193380943116427,0.358676827424782,0.462296725011063,0.5728037068643581,0.6890249677382196,0.7908771624833291,0.8830113525193597,0.908537644286584,0.9116412839276018,0.9232496614921013,0.9252018308493675,MI
0.7480473190042691,0.7550412860604128,0.7520946722516595,0.7279832639915511,0.6955377349006466,0.6429269665418278,0.5998714126711737,0.5844217091649424,0.6130201816846508,0.6495378080258105,0.6892883023269023,0.7332422469422253,0.724749425196191,0.6444189294284681,0.5486679009896147,0.45052055150019776,0.34757564512366734,0.27016515913021877,0.31100543761884825,0.4138489045307383,0.5146668116887667,0.6165768732625521,0.714863494285561,0.810720354298377,0.9045639422938139,0.9888574014374505,1.0000000000000002,0.9256358481747899,0.857909933242132,0.7992369039331606,0.7346733011122739,0.7383888442316551,0.784072582283841,0.8098546189392091,0.8019535238410442,0.7820906508750662,0.7743834739117152,0.7940526626664262,0.7923636376686936,0.7709337612490315,0.7490023772320831,0.7464671295423846,0.7260104138770866,0.6949732347496262,0.7176142158211085,0.7351470841385612,0.717064502765721,0.6527026678435941,0.5630599546674044,0.46498046910783875,0.35742923013824135,0.25710373272924825,0.22971411200491332,0.32016378942817414,0.4207291631470407,0.5234220029922716,0.6241516079538829,0.7245901433404549,0.8174230358802153,0.901911698949222,0.9534509074875308,0.9025500142071412,0.8246757516550265,0.7729882931077479,0.7009824674864229,0.6626629234891135,0.7039162770894636,0.7506281680061446,0.7507672227132594,0.7563251019908017,0.743444395685078,0.7315116170945697,0.7376511339965479,0.7441172492689276,0.7171280018460899,0.6782793606288504,0.6358787117464211,0.6148684397805766,0.6289550738220762,0.6636876012066215,0.6905020168141289,0.7015989919493417,0.6684775760106396,0.5959906467026148,0.5036562695651849,0.40730615929174907,0.3184373848855795,0.22161328023658378,0.1707914672241262,0.2516705181221599,0.35008399539450763,0.45474487787232065,0.5534501590568695,0.6554350687203583,0.7492850219184446,0.8367987263936876,0.897048848026506,0.8632563165911,0.7925444526849399,0.7442160825636115,0.6887074389189902,0.6941992539998678,0.7333823275668105,0.7467002028646197,0.7300271063834474,0.7064258715642426,0.6864449620922535,0.6782182851716969,0.6684234821405426,0.6468784086196815,0.6098531388374873,0.6057940876504662,0.6495608674922584,0.681773244695876,0.7300919868257403,0.761701072411985,0.7452006474514261,0.6971844126792701,0.613740558906118,0.5440516547915084,0.45057540347879743,0.3474049313799932,0.25866540335218113,0.15814279776710904,0.09023105315587454,0.03076197242416545,0.0646239198831855,0.15691808064285517,0.2533689261616072,0.3236594643641353,0.4062477063051393,0.5059365522661621,0.5946164031576566,0.6602293337141341,0.698263285552317,0.6843435308108827,0.6463097478292725,0.6139264838681482,0.5697297152789924,0.5496104361883585,0.5649178651345144,0.5981034652828161,0.6128639024668348,0.6231948202887281,0.6384413079898341,0.6488429351486429,0.6735645917169217,0.6936514453443829,0.6934092052460727,0.6555419916838787,0.6086902775295611,0.6090437479749531,0.668576350682107,0.7265367660094812,0.7666549416561865,0.7505366814034369,0.6605163845794084,0.5602672718991275,0.45890367687541356,0.3572867309754768,0.25702690660385197,0.15760479345879563,0.06295157128956963,0.0,0.04766159315574914,0.14306934048518682,0.2408683191709955,0.3424325429746726,0.44038449722593365,0.5380012004772017,0.6156329185616929,0.6444596401129339,0.6321903058331031,0.5946445302674845,0.5633879240115414,0.5741469145544038,0.6035111263777362,0.6467669374765828,0.6797325070523927,0.6906309601930183,0.6820270082484015,0.6905122237908696,0.7017501385102947,0.6967635359955218,0.6839633101828577,0.6309981664338069,0.5968516313932579,0.6384161585161607,0.7118516610581282,0.7663910918951451,0.8170014552387255,0.7966426271108598,0.7044739655717687,0.6028240622847163,0.5046013760992267,0.402825835727213,0.3210145176414223,0.22339394883211305,0.12548057932994872,0.03434432938247656,0.02126470246378509,0.10385492493975312,0.20174479020226688,0.3025525548172405,0.4009245905005223,0.5014369549307711,0.5941180724014632,0.668011223048939,0.683670542462335,0.6633754606479803,0.6449081793607669,0.6570513527331634,0.6927849842941523,0.6866678176168775,0.697966696934355,0.7296345062834619,0.7325414689500962,0.7265090272563179,0.7336252289492526,0.7426294889462144,0.7558538833708781,0.7282794819602472,0.6855342053803952,0.6787594152590846,0.7298769825878171,0.7981275654599285,0.8517046696615871,0.8801066893236309,0.8051421864844233,0.7089517824861205,0.601439758086652,0.4942180982072879,0.4054176723473353,0.3167456839276932,0.2185400433434712,0.12664988186156156,0.09524109786410273,0.16443297595811512,0.2598616439958441,0.3589801222743938,0.4667864117714504,0.5699455745617177,0.6564770569652396,0.666912312513402,0.623361845291784,0.585828534960368,0.5499706678086336,0.533637844942328,0.545977965547203,0.5875219622399606,0.634835208047621,0.679997630894978,0.7070930859235831,0.7120031136118226,0.7091018452124647,MI
0.872471469519863,0.8105557448139966,0.7335822485514769,0.6509157765213462,0.574570733786218,0.4994972977720873,0.4284278762016269,0.4018155387917379,0.42823748370361026,0.4708607976109671,0.5164156799064181,0.5698747134732356,0.6302399490381685,0.6784711645376174,0.7268061187848849,0.7593591508484647,0.7843827475589835,0.7755582078414007,0.7207956309916259,0.6366681526241944,0.539824137468154,0.42765597989901893,0.3151757239256501,0.27490392246810647,0.37457595867910687,0.4920309498116082,0.6130015107170612,0.727447372729563,0.8405732002994388,0.9397805870948872,1.0,0.9794007881849947,0.9618856498391377,0.9302869410916155,0.8802201693292542,0.8570099743685056,0.8881429277651995,0.921371663340016,0.9361994800048268,0.9296507697290073,0.9295103594884835,0.9221985118505018,0.9062036763980901,0.8899685409621898,0.897632719536285,0.8973735298244998,0.892213710050541,0.9010493162810347,0.9059594673041671,0.908322919377412,0.9083286425680073,0.9082156394762482,0.8993011213483162,0.8702126557124035,0.8048174803479071,0.735388317880207,0.6576036626877668,0.578289224241308,0.4962006088621318,0.42062907160153573,0.3807026004739802,0.40783437065544215,0.46176637733198156,0.5119030358453553,0.5732466129578295,0.6302254865219026,0.6885022819445776,0.7385259644088991,0.7762117615608304,0.8001836890453258,0.8142230138908833,0.7706044454047309,0.6938265284148097,0.5991501983526795,0.4968961121375348,0.38837433993706405,0.34833097376105027,0.4540004007861951,0.5684965208380381,0.688667695715794,0.8009345885975794,0.9106056526838913,0.98998420999667,0.9998380702512786,0.9728553278876881,0.9415857043173981,0.8905138554313865,0.8607225343470168,0.8833954582120489,0.9169829490416888,0.9292629016826739,0.9255828325919939,0.9203607588291165,0.9098309952666752,0.9169116275409288,0.9196590499350061,0.9102980656759025,0.9083311074535438,0.9083286425677075,0.9089172236973484,0.9222540073822478,0.9198634128750127,0.9266418399677354,0.9199754434258072,0.9110852674145908,0.9142520228462869,0.8949312752410448,0.8456805065296265,0.7788548523843453,0.693579267295581,0.6068797303510949,0.5317857370688857,0.4583770140935144,0.4166999211620319,0.40990742784151024,0.45338912407585763,0.5180480930952385,0.5803822175803908,0.6354252244746816,0.6876463065797642,0.7422064785495981,0.7825705542780632,0.8091388237552546,0.8326274428218561,0.8004698607097276,0.7387225534474324,0.7145659590748248,0.711522082994605,0.6929636016643475,0.6491656587546402,0.6059677698445118,0.5500138453157981,0.4863999788943052,0.431187249930272,0.3759892509179603,0.32271741233571705,0.29570903091759604,0.32129772937788026,0.37541294948922843,0.43783520858118496,0.5148078104504856,0.6067433440550039,0.6837092815759962,0.7538277687554333,0.8002428652444529,0.8228246274812889,0.8247122158323803,0.8281254093872361,0.8161804001301323,0.8211720879599973,0.8217174045717304,0.8149645327973025,0.8148337481531489,0.8148372852927941,0.8170749299106284,0.8251804259598883,0.8192125945746493,0.815485747940841,0.8287646848157446,0.8360170509021287,0.8338531453588547,0.808829846901681,0.7698720237882344,0.774804303623196,0.8086686858429104,0.8579153148196896,0.8932049809369236,0.9042996258292266,0.8569283793594358,0.7380257854736345,0.6097553916288252,0.4892870165426846,0.37393046403004027,0.2573642695842566,0.14690485779210816,0.042411239615555374,0.0,0.07931207967949039,0.19073700229813806,0.3097779475025675,0.4181140659739957,0.5292482019715772,0.6360563312400949,0.6951528721946185,0.7015157206170133,0.6736421909241384,0.6314625400674698,0.5788129164264499,0.5253648577004721,0.46653003060244735,0.40055396992498293,0.34820770956511415,0.30858398730706416,0.2862004365492079,0.31073805444418,0.3773182024431443,0.45749655764667985,0.5382109920506717,0.6151190202981676,0.6932639474005913,0.7607574982651735,0.7988982580260573,0.800039829809005,0.8079340871102993,0.8147676575769536,0.8147868494295705,0.80884932801193,0.8023571813640809,0.8001507988831986,0.8108682513960912,0.8077771644450631,0.7996769563472022,0.8155633093222412,0.8323664111380427,0.8360720713798289,0.8360776807924553,0.833249816969011,0.8091572002804561,0.7764906202519977,0.7892404882096793,0.8240220402851675,0.8716050164469045,0.8803479700086889,0.8640808292558133,0.7602985327607414,0.6447949118684302,0.5313434647944222,0.41066524116514014,0.2983509753327551,0.17981558972738565,0.08093017790973844,0.04564851132981129,0.11907764096655438,0.236442199317068,0.3639493538080316,0.4773377810188637,0.5745314270796325,0.6479821453175933,0.6800180770746476,0.6554789945463866,0.6206221556607829,0.5690315815383293,0.524225898558853,0.4713273978652395,0.4159904518731854,0.3728149891021193,0.33081820451239485,0.30731760914027584,0.3270745012637599,0.3861711681850557,0.45612332502789865,0.5347539210193086,0.6123679694049211,0.6987614321729674,0.7644583709333372,MI
0.5572647942278017,0.4949117956228619,0.4388729965247524,0.38476478024659855,0.3696163724958623,0.42201777786271677,0.4740933010062598,0.4717024598937236,0.4959313184242582,0.5424965089417189,0.6668616339769411,0.8196792823708776,0.8627517364141148,0.8776311889728756,0.7656586973454367,0.7719382863083357,0.7410783514431394,0.628420519716812,0.5920622833151548,0.6923239607467888,0.7535038367995401,0.7567831711690509,0.7726668310291913,0.7714510115336939,0.7806978985166548,0.7824462204732185,0.7208865847612991,0.6344484018329464,0.5741438966466639,0.5299904302375467,0.5678908142465193,0.5979115259535721,0.6279344088250536,0.6616871216822133,0.683908717398193,0.6957995394417829,0.8144092631102549,0.9432762555076089,1.0,0.9585453785305802,0.9395581732637961,0.9085777893675111,0.8874931208270098,0.7348529929063812,0.6479107776804778,0.6951291212707567,0.7817668757591569,0.7914550448238824,0.7730333955246351,0.7546161168353667,0.7240324894817043,0.7134526720317123,0.6887005808519984,0.6293649856215868,0.5844575721782981,0.49577242184449766,0.49494151049910684,0.4954076794738089,0.4734630817979024,0.5123349251405642,0.5526400591253324,0.5953465691350459,0.5917484320048914,0.5580732022839268,0.7465622776260936,0.890509704484268,0.8609063443429115,0.8495349531963399,0.8186875628751977,0.8135038463071922,0.7679894619245093,0.6696642771060723,0.6910101607364272,0.7645254232846561,0.8266383215356221,0.827630443832426,0.8386266981162454,0.8183469293846262,0.7968038710774987,0.7677980636463921,0.702734401388664,0.6480031416727279,0.5942945219453026,0.5664300399517721,0.5308605637366881,0.5999224056274084,0.6274503607887123,0.6377167738791538,0.6820237385572785,0.7564406090757956,0.8690719166851899,0.9584105986985136,0.9518140776121857,0.9112546106125361,0.8939984648034969,0.8622102419187119,0.7335253365031971,0.7760331670537379,0.7834097108444507,0.8360820412612409,0.8840267263915358,0.8395339690764256,0.8514745740102843,0.8381895192718076,0.8152708119385519,0.7686581985533465,0.67094432708992,0.6096542698728431,0.5554827894602976,0.5373801226580781,0.5462792244830954,0.5166489848750313,0.5526641680653093,0.5738385688321461,0.6215611862124906,0.7125570881383467,0.8842766001502138,0.9625245154249509,0.8941509460928092,0.8015824352020733,0.7958026879221549,0.7451575143422797,0.6529606095531655,0.6671595316192107,0.7101865054055896,0.7360254220920979,0.6817914167186725,0.5397392198721551,0.4399840296551627,0.434186234702981,0.37199840710519005,0.2897901547894399,0.3281363747376087,0.4648638665660325,0.4919477454069625,0.4971573252113526,0.5374608103620631,0.47813317428631663,0.36012417429721566,0.2706150231082205,0.28168128913603674,0.26724639361632896,0.2403676028361943,0.17730558648767492,0.19032062065723743,0.2098517990842268,0.23706136016141954,0.32522388780898126,0.3892459834682267,0.4813851597541312,0.5085670015563366,0.536733705996701,0.5484624434753744,0.532927689678802,0.49317019798641404,0.44650793917892884,0.4073296172438763,0.48212278290882615,0.5581978947420119,0.55268398298014,0.5894561537853402,0.7027915750202283,0.6542329439874912,0.46175233107781644,0.33918355031486236,0.36387266101842464,0.3125606974254129,0.23370310511143977,0.27662691091324376,0.2380200786923261,0.18504715376456105,0.19518831411340187,0.22640134629346598,0.2622207895037345,0.3444217651767456,0.40075574362918687,0.46560996698305424,0.47889566269446604,0.4644196054109351,0.4889030052625625,0.555273222164578,0.534189146366618,0.4388837077468004,0.35221245475380414,0.3372502107174231,0.3796680091033231,0.49694791521840287,0.5375252344604711,0.5203659477992932,0.5860654590393644,0.5039039166061219,0.37930017525082604,0.2663140854344572,0.25085255818097707,0.2663069921984125,0.20921616645055785,0.17287378331633185,0.16652245356035777,0.15341353439024097,0.15510679409334038,0.1948419345648027,0.24843322375820165,0.2943019657106909,0.36914230486903143,0.4221523412900634,0.43559540761354576,0.43563607855465847,0.42986277388514615,0.38099364894644694,0.33354970332497125,0.42499037836940445,0.5547342406453222,0.567822987611649,0.6046909840350967,0.6406442623059831,0.6272378380262911,0.5040456798012691,0.3537610834181617,0.3679892924025232,0.3358989055838659,0.3223655223198527,0.29313924219861676,0.2394057745455136,0.21159670726015456,0.2263978866095151,0.2483736423213223,0.3039024621286259,0.38840486832978627,0.4498846864752739,0.4555226306870903,0.49080626528950155,0.4870906978648968,0.4262052816479578,0.4046282498075815,0.327891493902829,0.2975456761492321,0.3606096472762932,0.4656943065405752,0.44477121787060625,0.49884894754540277,0.5603688171437433,0.5258256337513778,0.3660108601277834,0.25902545664629884,0.20352628534642214,0.1578144400895436,0.16121800526771324,0.12565777243116116,0.09729712176553917,0.037067613767726826,0.0,0.05821730136974956,0.10907935849593464,0.1722353392842706,0.25205167166736864,MI
0.46166010284239434,0.519262742599186,0.5775661392929168,0.6131667280167132,0.6107233486400307,0.6061037040500059,0.6082105085294423,0.6073253741111255,0.6189940252469421,0.6276286357098675,0.6279579613101349,0.6139037907678091,0.5742727498647646,0.507753491122183,0.4248060300324079,0.3449664370162706,0.34408733827160365,0.40098442250063737,0.4622306741397857,0.5197529477515221,0.5576787647391797,0.5862709017734993,0.607296101572631,0.6412465938777236,0.7052595228919198,0.813174890323598,0.9287393123130814,1.0,0.9282324983553689,0.7782296982475598,0.620972878991819,0.4710230217363147,0.5276615429038829,0.6380213774041312,0.6752007714591493,0.6681021651712244,0.6609908725019018,0.6274471884140764,0.5513120696683593,0.4641771431204784,0.43206257456449126,0.5020490754331153,0.579088839288433,0.6180103880149446,0.6074194512534108,0.6206946471413586,0.6374080546577998,0.6009991941580788,0.6174797036260857,0.6346500593436177,0.6140343976981377,0.5831890219392548,0.5429184440018693,0.4861416584849749,0.3976865327082644,0.3135171263233181,0.3037951339833578,0.3667601112051768,0.4307083651985444,0.48542856421526537,0.5162513881284783,0.5575373986613732,0.588622735478392,0.6071836949948146,0.6291953669098866,0.7181074530729088,0.8515695481741314,0.9489738830339487,0.9404950321654795,0.8087815085666641,0.6500149390785701,0.4969008384104434,0.5197110971551613,0.6487779900546728,0.6692894597720924,0.6329496453985941,0.6439751042593809,0.6171764073765775,0.5486334835662916,0.4679515989279661,0.43760374378852074,0.5028648760327714,0.5667048683861715,0.5970773265336584,0.6096388692310288,0.5895852851453629,0.6115423570058027,0.615458502970899,0.6173144411639457,0.6200935791629352,0.6036378801091953,0.587024979663135,0.5538754647210284,0.4658737750918176,0.3868786646655753,0.3337050147573848,0.3647743174275604,0.4182087119062441,0.47036495638162634,0.5118240171884674,0.5438594459857509,0.5617824202626496,0.5903915774037118,0.6230300590484079,0.6917622284823999,0.7945101570344857,0.9046486385212047,0.9310807062836117,0.8167242215801451,0.6571663984493252,0.5124133624415448,0.5423587796814697,0.6599676123174039,0.6725116775679627,0.6504649639533264,0.6220483109947956,0.5835890125396155,0.5082033829498149,0.4352378932419816,0.4636301561129308,0.5366213071434993,0.5910287191522512,0.6144055548605758,0.5795815584795676,0.5051068061558919,0.48672374009291186,0.47253201756957086,0.42072288994935825,0.3491969901773331,0.3434842368703581,0.39020001099840584,0.4697346319810993,0.5081659734356601,0.5396832178166466,0.5457458502970072,0.5097687585506812,0.364669091190148,0.20766509075903006,0.06845072700451738,0.03647370318434007,0.15674617089773335,0.3168592038024327,0.4752296490869501,0.6478548369064114,0.7552817105103342,0.6817408051317466,0.5890904801528016,0.5218994612239101,0.48929497482137485,0.45898078055009073,0.43701640263138675,0.3949566358246477,0.3513230357331327,0.2992761531815411,0.24632393636729244,0.2164891727758782,0.25893917925775867,0.3331601050487025,0.41977266266281443,0.48106473278151807,0.4946163139833688,0.5038975917501869,0.5074324677450761,0.5074214505356611,0.5018311213193822,0.4980495642157994,0.5073388627688367,0.5013574485880365,0.44492562053151374,0.35832311610070633,0.3010663949328425,0.31576195619542347,0.37475662799254916,0.47387679938350846,0.5184691408695219,0.5259492808428243,0.5308023324107749,0.5032367964869753,0.36770106546283454,0.21051691143664097,0.0634630833699541,0.0,0.10893817213155277,0.2728250436384121,0.4342579319009596,0.6018841733637927,0.7320466902956575,0.6783320991929083,0.5704980995483551,0.509402376991531,0.4843509914052406,0.45943322403496456,0.43753110336799406,0.4004784453195054,0.34328011833899996,0.2810754843302865,0.215473649258759,0.17974031087420972,0.21636549611111988,0.29418912956493504,0.37439794895545386,0.449511051274083,0.4772598138866062,0.5032199078543966,0.5074314127614201,0.5074384688951641,0.5062237664929405,0.4890418003261061,0.4896482019733046,0.5012312509785124,0.4387848134336618,0.34586080419831156,0.3142030804312732,0.3491738725075013,0.42783873863717936,0.5060965941276709,0.5450310493965285,0.5571183158739714,0.5533936557379278,0.45309115540109257,0.2999316792241382,0.1425887410008677,0.033852385559453246,0.07975512711266397,0.22538467153840802,0.3826731173688822,0.550781761521919,0.7121513145783274,0.7901400822517504,0.6899396842370491,0.5987895426639414,0.55394687068096,0.5151233052304924,0.478419844687461,0.4532919671238629,0.41079729084865413,0.36277065718095614,0.301273583816414,0.24812588382567835,0.21411864186343266,0.2505612467956082,0.3410292020275216,0.4359301566999241,0.49083251380738613,0.49471312671450374,0.529781479045063,0.5153096715556975,0.5074695652104548,0.5074385012442333,0.5068024251393055,0.4936604271222187,0.5013398095092407,0.45989817138506073,0.39846459255116873,0.3451530322315701,MI
0.7480473190042691,0.7550412860604128,0.7520946722516595,0.7279832639915511,0.6955377349006466,0.6429269665418278,0.5998714126711737,0.5844217091649424,0.6130201816846508,0.6495378080258105,0.6892883023269023,0.7332422469422253,0.724749425196191,0.6444189294284681,0.5486679009896147,0.45052055150019776,0.34757564512366734,0.27016515913021877,0.31100543761884825,0.4138489045307383,0.5146668116887667,0.6165768732625521,0.714863494285561,0.810720354298377,0.9045639422938139,0.9888574014374505,1.0000000000000002,0.9256358481747899,0.857909933242132,0.7992369039331606,0.7346733011122739,0.7383888442316551,0.784072582283841,0.8098546189392091,0.8019535238410442,0.7820906508750662,0.7743834739117152,0.7940526626664262,0.7923636376686936,0.7709337612490315,0.7490023772320831,0.7464671295423846,0.7260104138770866,0.6949732347496262,0.7176142158211085,0.7351470841385612,0.717064502765721,0.6527026678435941,0.5630599546674044,0.46498046910783875,0.35742923013824135,0.25710373272924825,0.22971411200491332,0.32016378942817414,0.4207291631470407,0.5234220029922716,0.6241516079538829,0.7245901433404549,0.8174230358802153,0.901911698949222,0.9534509074875308,0.9025500142071412,0.8246757516550265,0.7729882931077479,0.7009824674864229,0.6626629234891135,0.7039162770894636,0.7506281680061446,0.7507672227132594,0.7563251019908017,0.743444395685078,0.7315116170945697,0.7376511339965479,0.7441172492689276,0.7171280018460899,0.6782793606288504,0.6358787117464211,0.6148684397805766,0.6289550738220762,0.6636876012066215,0.6905020168141289,0.7015989919493417,0.6684775760106396,0.5959906467026148,0.5036562695651849,0.40730615929174907,0.3184373848855795,0.22161328023658378,0.1707914672241262,0.2516705181221599,0.35008399539450763,0.45474487787232065,0.5534501590568695,0.6554350687203583,0.7492850219184446,0.8367987263936876,0.897048848026506,0.8632563165911,0.7925444526849399,0.7442160825636115,0.6887074389189902,0.6941992539998678,0.7333823275668105,0.7467002028646197,0.7300271063834474,0.7064258715642426,0.6864449620922535,0.6782182851716969,0.6684234821405426,0.6468784086196815,0.6098531388374873,0.6057940876504662,0.6495608674922584,0.681773244695876,0.7300919868257403,0.761701072411985,0.7452006474514261,0.6971844126792701,0.613740558906118,0.5440516547915084,0.45057540347879743,0.3474049313799932,0.25866540335218113,0.15814279776710904,0.09023105315587454,0.03076197242416545,0.0646239198831855,0.15691808064285517,0.2533689261616072,0.3236594643641353,0.4062477063051393,0.5059365522661621,0.5946164031576566,0.6602293337141341,0.698263285552317,0.6843435308108827,0.6463097478292725,0.6139264838681482,0.5697297152789924,0.5496104361883585,0.5649178651345144,0.5981034652828161,0.6128639024668348,0.6231948202887281,0.6384413079898341,0.6488429351486429,0.6735645917169217,0.6936514453443829,0.6934092052460727,0.6555419916838787,0.6086902775295611,0.6090437479749531,0.668576350682107,0.7265367660094812,0.7666549416561865,0.7505366814034369,0.6605163845794084,0.5602672718991275,0.45890367687541356,0.3572867309754768,0.25702690660385197,0.15760479345879563,0.06295157128956963,0.0,0.04766159315574914,0.14306934048518682,0.2408683191709955,0.3424325429746726,0.44038449722593365,0.5380012004772017,0.6156329185616929,0.6444596401129339,0.6321903058331031,0.5946445302674845,0.5633879240115414,0.5741469145544038,0.6035111263777362,0.6467669374765828,0.6797325070523927,0.6906309601930183,0.6820270082484015,0.6905122237908696,0.7017501385102947,0.6967635359955218,0.6839633101828577,0.6309981664338069,0.5968516313932579,0.6384161585161607,0.7118516610581282,0.7663910918951451,0.8170014552387255,0.7966426271108598,0.7044739655717687,0.6028240622847163,0.5046013760992267,0.402825835727213,0.3210145176414223,0.22339394883211305,0.12548057932994872,0.03434432938247656,0.02126470246378509,0.10385492493975312,0.20174479020226688,0.3025525548172405,0.4009245905005223,0.5014369549307711,0.5941180724014632,0.668011223048939,0.683670542462335,0.6633754606479803,0.6449081793607669,0.6570513527331634,0.6927849842941523,0.6866678176168775,0.697966696934355,0.7296345062834619,0.7325414689500962,0.7265090272563179,0.7336252289492526,0.7426294889462144,0.7558538833708781,0.7282794819602472,0.6855342053803952,0.6787594152590846,0.7298769825878171,0.7981275654599285,0.8517046696615871,0.8801066893236309,0.8051421864844233,0.7089517824861205,0.601439758086652,0.4942180982072879,0.4054176723473353,0.3167456839276932,0.2185400433434712,0.12664988186156156,0.09524109786410273,0.16443297595811512,0.2598616439958441,0.3589801222743938,0.4667864117714504,0.5699455745617177,0.6564770569652396,0.666912312513402,0.623361845291784,0.585828534960368,0.5499706678086336,0.533637844942328,0.545977965547203,0.5875219622399606,0.634835208047621,0.679997630894978,0.7070930859235831,0.7120031136118226,0.7091018452124647,MI
0.975313134898169,0.9613613903934464,0.9308834258781191,0.9258983276986197,0.947746170620539,0.9624900767049402,0.9620269032715572,0.953533033966794,0.9516332077258303,0.9430224135190626,0.9393844438688352,0.9423843159103098,0.9568858258696755,0.961691298950405,0.9627575364140657,0.9557035860615777,0.9367187566327331,0.9390909479182794,0.9408184672368929,0.9333309038096083,0.9232601604102237,0.9289392874299076,0.9303321142876513,0.93950514546511,0.9479595666601974,0.9156426106327342,0.8493476222475138,0.7752406807517345,0.7046462767706387,0.6265889920566179,0.5502275059919781,0.4804093653751056,0.433988814248754,0.4896294671924004,0.5635140566032881,0.6354267604153361,0.7121576140283485,0.7820895590471431,0.8558665477967389,0.9159755097962712,0.9450178386123047,0.9358291943735593,0.9078042330936014,0.8976282327994114,0.9204374675615321,0.9391498125282265,0.9410440536040083,0.940007893327925,0.9370308875462268,0.9338510675163767,0.9204865015503336,0.9180122997345641,0.9230930997831284,0.9326758889433793,0.9387500034155836,0.9337970423856585,0.9221869020001594,0.9230625748997279,0.9267405179941537,0.9186078846680037,0.9189057666123481,0.9278978527598971,0.9376586198713943,0.9467195372082371,0.9662742084272156,0.964943830941271,0.9129645302303124,0.842947241116337,0.7673787930933604,0.6970933496601601,0.61919199461912,0.5432381438363043,0.5158785948705282,0.5803201560595486,0.6588812875929082,0.7372761964209809,0.8092200451518308,0.8795444117638203,0.940678588682754,0.9715068514792833,0.9631163052611804,0.9333421323041537,0.9218438295671745,0.9477531217048705,0.9704528457363009,0.9704488089829488,0.9737152432543532,0.9730630946783181,0.9647620418064544,0.9592656623129503,0.9532899366445116,0.9623214180902033,0.974340611947824,0.9749661253620321,0.9640060492650429,0.9463304454933406,0.949291521293331,0.9525167305761055,0.9485756162968793,0.9510584071436845,0.9582049647151385,0.9749288680158779,0.9853979409489941,1.0,0.9818609452316069,0.9099594836867941,0.8342119438294473,0.7637217495907216,0.6860625763700938,0.6149277407518918,0.5399917700802273,0.46140975775923576,0.38433317486772767,0.31443418431173487,0.2371171050503993,0.15862281206794582,0.08763248823886882,0.05638633388868697,0.10488498862954287,0.18254568333580368,0.26116322919844137,0.3397813876560014,0.4183995461135628,0.49694560816544797,0.5667249198947191,0.6067118365246109,0.6751108020639389,0.7524286781428826,0.809575981853679,0.875676998943671,0.9367251276066795,0.939520795388002,0.929598673135007,0.9161557427813514,0.9116310102882723,0.9030012106412351,0.9057550709479472,0.9109785303767259,0.9040776792867529,0.9166197232189577,0.9283090145430757,0.9288522598411726,0.9272824789008558,0.9150762548125215,0.9135904720630963,0.9206529553074319,0.926407817962628,0.9324178133856822,0.9323321012438996,0.931147503539945,0.9260597400667809,0.8950997703001471,0.8764476633208285,0.8828527428230684,0.912675097832425,0.9158346003254276,0.8629069334217427,0.7927278594853435,0.722171233798423,0.6479715738446601,0.5766582034502514,0.4983789171669093,0.42033011022919053,0.3497822202667942,0.2740775973641605,0.19686971104127204,0.12704654890766642,0.06330394458423871,0.08056512236221991,0.14651664202551662,0.22419148150366341,0.3027999636136076,0.3791192854061356,0.449305277352001,0.5270957642752578,0.6056779773928997,0.6805318608898303,0.7517322471132186,0.8287751560860184,0.8937628476499346,0.9079952542952023,0.8978140912913428,0.8936154919326678,0.8841990091370766,0.8734255567684053,0.8780500688744544,0.878585424311993,0.8786071174696906,0.881805991260977,0.8914712038532855,0.8971720307756679,0.8902911063802457,0.8827605166000261,0.8787604765347303,0.8844612721791327,0.8927411162173964,0.8928377920778097,0.9003097641669375,0.9011626071208334,0.8847296166381682,0.8508522154790215,0.8472786990429886,0.8743500326575575,0.896853612992405,0.8647711635941602,0.7974264691451076,0.7233179564500714,0.6526416575294054,0.5761490990827915,0.5087343818167871,0.4487143950670298,0.38460428786083556,0.3217963096817462,0.2505691678195836,0.17231340343116197,0.09840885752198103,0.02936276031732188,0.0,0.05315056000055085,0.12311950699145924,0.1988013525126897,0.2774039758332425,0.3557061292904933,0.4271452285484938,0.5017302296058004,0.5803084944894434,0.6589266529470033,0.7375431943096,0.8150588114239721,0.8787094534435691,0.894988122556456,0.8902332570153908,0.8874076878276906,0.8794991650010664,0.8858184826287359,0.8953760205352439,0.9013317191358758,0.8978728152528992,0.9058774737718582,0.9188241186889816,0.9147247282321582,0.9087167000498486,0.8950217410954255,0.8938566432213388,0.8987829839266746,0.9112892906191858,0.9196425883281945,0.9202133455418398,0.9173317968647616,0.915048961554384,0.8916081847248514,0.8762134741681324,0.8925041375573353,0.9183278891200961,0.9307017471742924,MI
0.9801915555930225,0.9999999999999998,0.9383022543012352,0.8478538789401389,0.7537268708263751,0.6520483305182665,0.5534289839290547,0.44634297425615377,0.34913127026651214,0.3353560056849998,0.4351735130905767,0.5446678758303845,0.6465489321594207,0.7458019019743707,0.8295997535399133,0.858436524411043,0.8574648211668172,0.8463478290481266,0.8250888120985722,0.8034356292667331,0.8264697492590829,0.8297711397864449,0.834236486716913,0.8250596251583049,0.8137795041585558,0.811522646672566,0.8052065677740179,0.7997339053437778,0.8059013275447107,0.8367513117926768,0.8642917661246041,0.9008443556121557,0.9413546226770235,0.9658406214556463,0.9706530859897413,0.9517031961214577,0.9696371036281433,0.9487813568077146,0.8698573849862667,0.7759937008533135,0.6778358662698774,0.578475253224026,0.4744549604589656,0.3959108395978659,0.44516704447236743,0.5263204359669131,0.6207889551476284,0.7205670270573157,0.8142671806486572,0.8538079128075686,0.8451049869210359,0.8409638450693706,0.8268884739230915,0.7995735500000751,0.7993106584762237,0.8148428103581711,0.8066926213848469,0.8166585491994074,0.819872349713114,0.8210312425734225,0.8387285991109399,0.8731968853838772,0.9072709147127223,0.9386683336771264,0.970638972839925,0.9934329101847068,0.9783095914411735,0.9682144681242224,0.9547927542814516,0.8836079800456706,0.7896518916857855,0.6886126909276495,0.5894757081164073,0.48071284429061456,0.38527829042513395,0.41284519910525774,0.5147486664273113,0.6143925263610599,0.716004054335442,0.8072555313938483,0.8518489996944385,0.8549157027157432,0.8491513436224885,0.8324745165739522,0.8027610964313092,0.7995781304602072,0.8060917712558415,0.8165309383223469,0.8043035302980452,0.7922955310761861,0.7990721333865609,0.7987591236003178,0.8023107533104137,0.8285096074539726,0.8642381115015272,0.9021229730515643,0.9411218106128734,0.9637781455970951,0.9555642605262886,0.9472608533667197,0.9562882591835413,0.9806692956785283,0.9211505328303822,0.833293963195427,0.7388724207484432,0.6412620865281344,0.5354247666992189,0.4347814218423032,0.3446507184458798,0.3778286958876085,0.484973539702797,0.5853437533083807,0.6864821999148438,0.7802009763707927,0.8410497448965792,0.8475761191258313,0.839607157955143,0.8306839583875034,0.8133643901356635,0.8025933762781532,0.7646226459748517,0.7628994584867674,0.7857258922962373,0.7960059347081188,0.7894055602202157,0.7180230474070639,0.6207952833107477,0.5201398727785682,0.41900739020982347,0.32017369201403834,0.21757668836009603,0.12757902896196827,0.12084186996874902,0.20710194062329523,0.30414812126277035,0.40284455432467214,0.5075365810144545,0.6095781071221895,0.7111486674716716,0.8069310093518653,0.8806315605630355,0.8900486840796591,0.9012403324359741,0.9178642824839487,0.9047027679386559,0.863869712955273,0.8295220058883095,0.7928265473259419,0.7594965304919323,0.7419166555825825,0.7436085032562947,0.74154110127131,0.7458371166638356,0.7580592096925172,0.7666694065544457,0.7523396907267685,0.7439827254015727,0.7404261937937393,0.7745544743448576,0.7951698796950193,0.8038886882171268,0.7781550183053534,0.6924958194400743,0.5934075566759061,0.49122009852111215,0.3908838714864109,0.29257893071957697,0.19232636417782278,0.1122153316915453,0.13959223445356694,0.2365887107332627,0.3358615206113169,0.43706130174686586,0.536269182012634,0.632542161021507,0.7138323753828419,0.80643942343706,0.8952355686069449,0.909891234804536,0.9201677922463067,0.9378336178438118,0.9295722900913652,0.8977778962081235,0.8635023110838558,0.8335827793242847,0.7949464470497862,0.7783955835853369,0.7797158952878596,0.7632302177226975,0.7572549156954052,0.7635720165856787,0.7584291210429621,0.7483011800499788,0.7372676518628751,0.7730542097373638,0.7893885944241037,0.7966132257378475,0.7871333132748342,0.7108086864106775,0.6128760877376045,0.5102827477377876,0.41056421090300144,0.30883150068718535,0.20624356973458147,0.10209697387389727,0.01035133011125633,0.0,0.087403983274557,0.18557358300395999,0.2906843758731241,0.3893215141124011,0.4954982376533523,0.5941510515721913,0.6979789266668852,0.7942947906178246,0.8759760225909121,0.893375530009408,0.9082689494573863,0.9121801117436139,0.8858301551843895,0.8455958472692908,0.8119856391682807,0.7816703902420359,0.7514672855651521,0.7546652268884355,0.7657680354055965,0.7582660286136094,0.7658436422116821,0.7645475238257322,0.7765770208945602,0.780243947875247,0.7676968670350226,0.7488812300636527,0.7650642024597392,0.7933638596846377,0.7994172718283632,0.7945738661049304,0.7234515247981099,0.621449984675474,0.5228060720002967,0.41781913213029287,0.3214841179522516,0.2401980760710456,0.14695801239348727,0.07739129178224835,0.12402894100736739,0.2198756404171449,0.32060071705022875,0.42228034928248026,0.5237626106896982,0.6266257563239408,0.7268677331527515,0.8244251351165655,0.9088550833079847,0.922947073760976,MI
0.9999999999999996,0.9838558272712681,0.9809184151663155,0.9806893793792968,0.9622705423058444,0.8869833028522955,0.7861678188484382,0.6784763710298023,0.5781827066749656,0.61665772728557,0.7156472774967213,0.8080580220421978,0.8626348674349926,0.8745359244076298,0.8548800626058899,0.8054992011579034,0.8082274513705663,0.8489567120376664,0.8690397936653556,0.8634115165276741,0.8627492048924994,0.8747700957472859,0.8751096591557936,0.8751096591557874,0.8751096591557808,0.8751096591557754,0.8751096591557688,0.875109659155763,0.874961431616291,0.8653506201466166,0.8541888370026864,0.8539512004363412,0.8560685747918884,0.8722321838470122,0.8749135165520405,0.8643639841749291,0.8540521228174955,0.8463672992027864,0.8255925192098146,0.7858292913349003,0.7560783498986461,0.7816732564426472,0.8257237218541884,0.8709897059603842,0.9140221276799645,0.9476069330170489,0.9595825189151252,0.9582754696051787,0.9459563066594749,0.9581453279651857,0.9616066425918941,0.9769000721115586,0.9507425223525261,0.8653096451648636,0.7621393794239668,0.6538103292882842,0.5375465256320706,0.480447239781963,0.5723827686786875,0.6895231123676946,0.7976920064170163,0.8674831646109995,0.8939739547937822,0.8780079823084668,0.8360945166970759,0.8174143597149972,0.8534800690864808,0.8886731122031892,0.8962225439285003,0.8962703680173263,0.8962703680173205,0.8962703680173143,0.8962703680173081,0.8962703680173023,0.8962703680172961,0.8962696608156655,0.8949675686283483,0.8793854552002589,0.8751229176260482,0.8751096591555303,0.875109659155525,0.8751096591555183,0.8751096591555121,0.8751079846431642,0.8733995023986432,0.8522590940425472,0.8216557251791894,0.7829216976266395,0.7974175032919981,0.8437384435394186,0.8830927005800877,0.9234920121586887,0.9601801204709299,0.9792672048054789,0.9827454830455342,0.9987669585135177,0.9939695368698582,0.9812903659031571,0.9807263422274857,0.9633879586831737,0.8835566098633456,0.7790957581563527,0.6710192914835087,0.5801272107740605,0.6176752768009588,0.7235099350030074,0.8183919981309322,0.8762514755340765,0.8919318390905753,0.8701364841526393,0.8312785479348226,0.8217618679034477,0.8506743362969882,0.8533143408271129,0.8326294707283806,0.8049620461934692,0.794604884564234,0.7528521161334405,0.7426091182888097,0.7729748796796501,0.8165733619178028,0.8100676806093436,0.7274974897865971,0.6289678097048457,0.5473644096660308,0.45204725533079193,0.3428709187442349,0.2353475662430422,0.12954532773421645,0.033449560131732614,0.03283833265291225,0.1250741277760885,0.2405122937350921,0.34589031344854737,0.45443819862104595,0.5685917365575257,0.6698004090011076,0.7819332715149234,0.8744847050075748,0.9175612791042203,0.9187745958343667,0.9278036008659081,0.923113801813384,0.9114756781873505,0.9227345432561886,0.9037057339079406,0.865303826047124,0.8228744423703493,0.7785649189850776,0.7354467023111715,0.7056360797824901,0.7244425351920825,0.7665965968951447,0.7975304283219513,0.8169433980990641,0.8242659223662887,0.8243239578873478,0.824323957887354,0.8243239578873598,0.824323957887366,0.8243330442278212,0.8277469693195356,0.8434787753503459,0.8333644516812653,0.8257133872095506,0.8411358201708303,0.8454705492556394,0.8454846667491478,0.8454781111464671,0.8420489518407179,0.8259824333957302,0.8170848411845015,0.7778372281085644,0.7424926403556977,0.7482081562661929,0.7950621153812563,0.8210502888788467,0.7741800058938031,0.676780474972706,0.5760557080994233,0.463991880133082,0.3626911666200563,0.2473201041985975,0.14150539696857756,0.040917117405572245,0.02631606717909385,0.11502623384522792,0.219611599588438,0.3352395300367852,0.43692494970096485,0.5500615240475883,0.6600899406575618,0.7638754719146577,0.8653665438242109,0.8956400600819632,0.8879377872657725,0.8878270143737823,0.8929076631582396,0.9074282133019165,0.8925089478477259,0.8621433698359611,0.8189620190530773,0.773989289055875,0.7332328674920516,0.7003590709977168,0.7041757752345523,0.7418453400450278,0.7777316457514396,0.797188434797504,0.8034385864962803,0.8153329475596709,0.8210304721909596,0.8050400175101102,0.803165207422841,0.8031632490258387,0.8033010027308323,0.8126792038100858,0.8240649425935387,0.8243239578875987,0.8243239578876054,0.8243239578876107,0.8243239578876174,0.8243239578876231,0.8242081669656414,0.8149098590503927,0.8035943235482859,0.8079047532816315,0.7925837032795284,0.7434249285904242,0.722822854332072,0.7265571076453772,0.770283465511783,0.8159522124694076,0.7976871859563621,0.7194335827795153,0.6124419228722857,0.5111967737308047,0.3963303779018639,0.2934044203724899,0.18232888720465246,0.07730972867978991,0.0,0.03369682905678317,0.1302902003177242,0.24193380943116427,0.358676827424782,0.462296725011063,0.5728037068643581,0.6890249677382196,0.7908771624833291,0.8830113525193597,0.908537644286584,0.9116412839276018,0.9232496614921013,0.9252018308493675,MI
0.6258768433001746,0.6147939137835378,0.6204791341361459,0.632543193630431,0.6394205380003443,0.6450280507352558,0.6490463369455642,0.6491522017000789,0.6514596749342468,0.6518801047616755,0.6560631865850329,0.6581639437923682,0.6627597507754878,0.6679592784991534,0.6675850958949653,0.6728625245327041,0.669849125407486,0.6655997260788681,0.665980963236413,0.674763203852149,0.6970791244433742,0.7255381562457365,0.7604525939703218,0.8002328684390793,0.837433427998158,0.873045787091976,0.9061488711783771,0.9393798883578591,0.9692783078620612,0.9891889842360778,0.9985135014037471,0.9999999999999999,0.9881992770605433,0.968064023683389,0.9416981551912488,0.9006142367052271,0.8571583465445601,0.813021289892944,0.7681715122351017,0.72301849654179,0.6757207655971317,0.6276532270080181,0.5870116740157193,0.5824393657520156,0.5812903625980791,0.5571075642337685,0.5122872445869654,0.46048026611466886,0.4125610063080586,0.3611235930258466,0.31310597391164285,0.2619466176602705,0.25568032909776917,0.30051328125628396,0.35355956662987353,0.40160560442856885,0.45188347515171723,0.4983526051741335,0.5368071467421295,0.5430981879954145,0.5450794225317664,0.5481261722644891,0.5333756984532004,0.5417770476559977,0.5578191620068645,0.5677932136103828,0.5764517215424866,0.5836454064001432,0.5903826668793933,0.5951153975913733,0.6047581838152968,0.6081862759042204,0.6096876581622858,0.6107004241850013,0.6152481063364931,0.616434885900731,0.6191589418120748,0.6218849360508084,0.6243825294423789,0.6206966310674148,0.6191129982067546,0.6115397158002503,0.6241473340554343,0.6478240184988565,0.6805107069220401,0.7106393061315622,0.7462406127144771,0.7771119642513681,0.7974210224694193,0.805277783196043,0.8048965822060915,0.7873259424140938,0.769224692816923,0.7504565263611714,0.7364744327872402,0.7243205758689452,0.7148516934590897,0.703828331448953,0.6912743961108149,0.6583529794062534,0.6137290892656154,0.5643681191695228,0.5162777412752287,0.4650917608751778,0.4290781435170693,0.4574637289749054,0.5108388847737532,0.5604033102795144,0.6063640825928874,0.644236511755839,0.652356962477486,0.6466248632896557,0.6427709362753437,0.6255296015327277,0.6276292044728892,0.6380803209037861,0.6414519910494288,0.6464674684513944,0.6423992143424467,0.6443764267180337,0.640491112050864,0.6218564106436729,0.6145927892232378,0.6155847490632983,0.61559059753956,0.6118920187555347,0.6079523599788682,0.5975979353961122,0.5950324174108496,0.614206421193659,0.6195301817518725,0.607267614432449,0.5706622020997486,0.5242116325449143,0.4807689853769056,0.4391474965887242,0.38789174606056587,0.33501361235755434,0.28740421045271014,0.23885608483876763,0.2120368218005506,0.24376710706998717,0.2911922507353166,0.34298560082151364,0.3947995357201194,0.44289564628677536,0.49616368938318034,0.5451694242829158,0.5944096719869211,0.6398354649314629,0.672659254390381,0.684596374123534,0.694081015117047,0.7022812102088855,0.7159577448938771,0.7336831118956498,0.751984501042546,0.769587306349412,0.7798385100136204,0.7723603686709756,0.748306351041509,0.7195209872120497,0.6832749418915088,0.6504426908810418,0.620075749220954,0.5995847805317324,0.5881021835982626,0.5864844141054207,0.5959725328265907,0.5967603245360275,0.5962046891172682,0.5904865252628265,0.5929953021938056,0.589361281484808,0.585774896840075,0.5837640136889531,0.5828157807938664,0.578642439978499,0.5726702511626703,0.569210825906706,0.5605578615692596,0.5529352995423068,0.548332335834726,0.5381494548178288,0.5242473069314518,0.5087725695899982,0.5137367085135188,0.5210826699116101,0.5114129984078063,0.47882012726417,0.4325799658025674,0.38228670348006466,0.3342546925390336,0.28101173482746056,0.2318873324361974,0.1813126583672472,0.12779398891767213,0.0793392373165549,0.029588038035262554,0.0,0.02215869084672406,0.07032265622594924,0.12404186420599128,0.1778872401017687,0.2317272237251191,0.28405479902715514,0.33187064751735307,0.3848549498225141,0.4334914742551953,0.48355643437728457,0.5277535409269435,0.5520218788207342,0.5491079939914826,0.5642653114936763,0.6078192973393816,0.6559506805900178,0.7032531600018345,0.7484839509289475,0.7973570075806723,0.8454692664438149,0.8862652391459732,0.9244253282504783,0.9512199102733149,0.9698759069236337,0.977690795595804,0.9698247765108589,0.9505251316585165,0.9227984482085122,0.8872127583468544,0.853061557269536,0.8172556247650363,0.7813569574250702,0.7445912241157445,0.7051216794821228,0.6761156737027895,0.6537853420224867,0.6407220632219143,0.6380385322437206,0.6435483621031871,0.6458416648191984,0.645829563930394,0.6429255593771409,0.6378816167933489,0.6373294967222057,0.6317377306626512,0.6295050872849043,0.6292101930511659,0.6255397468630978,0.6248919665230003,0.6197539802634179,0.6129684059142845,0.6049640706314364,0.5898556944422758,0.5842591653563246,0.6012671152883379,MI
0.7666982607049511,0.7940804742749272,0.8350827865332533,0.9061716769478994,0.9481262801185204,0.8646290444826941,0.7454027034489521,0.6306702341342196,0.5125622826547549,0.39925584293135263,0.3735785098797202,0.4782006126662395,0.596184859136675,0.6489520374245392,0.6420569702389025,0.673769160431837,0.6179584552553179,0.5671866929592724,0.6123224314419391,0.6660032279116084,0.6912961464607517,0.6798069930245594,0.6753783454281639,0.6875834001646564,0.6720969729928183,0.656009045927689,0.604887396991167,0.5392682172339016,0.5144313146127819,0.5762768175923638,0.6564949543753051,0.7361478468477063,0.8067710816147733,0.8492788931646473,0.8553782987174434,0.9017259772283113,0.9326521890099466,0.8585356787064538,0.7494007130315159,0.6340024823215324,0.5124233229729034,0.39460785547413324,0.3256221384306841,0.4197064750781878,0.5479407689428448,0.6593249813193542,0.6830501749201872,0.6543672348801779,0.62859117466263,0.5665694777467645,0.5922309964226813,0.6163709449902821,0.6131214008087105,0.595263210715854,0.5626790237657102,0.5729947530447757,0.6197216597640305,0.6076686947823131,0.5921958554447462,0.5418316516541648,0.4637669607354977,0.43639741192168713,0.5004171452979758,0.5944367270953046,0.666079516840149,0.7271021566966203,0.7776009870989273,0.812117657382305,0.8672821067836904,0.9430673638527798,0.9156996985661869,0.8097129408747479,0.6894549830868433,0.5726015742540354,0.45671510933970283,0.38819841250415243,0.4741569008837223,0.5813003375101957,0.6646704802881158,0.7074477702414004,0.6741116875785786,0.6094160330383802,0.5877704148068081,0.6425217551588565,0.6744021813339354,0.644217256487335,0.6591499519698576,0.6484996486584327,0.6475281231255476,0.6519353267611991,0.6343565705181888,0.5911051135238707,0.5389661651140083,0.4654152766146693,0.465615836980793,0.5434548685935188,0.6326582672926035,0.709063331618869,0.7619864604100919,0.8020931419684418,0.8501325376968916,0.9298363814982975,0.9999999999999998,0.9775097910077408,0.8676081762129371,0.749586649319846,0.6234473155551121,0.5066509109970718,0.4355385239321137,0.5145632718626716,0.6223802670734069,0.7119573836340833,0.7144145518753222,0.6972169444963721,0.6407372661869613,0.6374156179872135,0.685564586639068,0.713916015715008,0.7198548921533263,0.7402662322694253,0.73709430012429,0.6795877148371574,0.6305947009102753,0.6156516263088785,0.6306522320952166,0.6173629121333841,0.5624876503239624,0.5119497726393767,0.5609306056146293,0.6241553299092455,0.6260572790594672,0.5785021382755191,0.4699274449040376,0.3538613024826909,0.2321938471197431,0.1189089719849441,0.08244897789491645,0.1856123683163522,0.30592635313860206,0.4276991044387868,0.546358966383923,0.6608905831356175,0.7754987542798688,0.8756179530029533,0.8414583243879423,0.76469095666331,0.7177455889348712,0.67396332795044,0.6184319565336505,0.5515623166680796,0.46178798980680535,0.3885754814950222,0.36360491481941204,0.4236054263926341,0.49082622154823885,0.5404859431706839,0.5666375797014072,0.5639195872937999,0.5683312214793508,0.5619814345979759,0.5512392561554276,0.5515606336845071,0.48663538871213086,0.4575350853377109,0.5289124277695472,0.5892531609434533,0.569819353688662,0.4730776180022682,0.3480452156202889,0.23045752142099762,0.10982819448537051,0.010241559742835138,0.033697131900341404,0.14591067225838183,0.265298385255903,0.38700246267039584,0.504652030373993,0.6220654358454245,0.7440934910419938,0.844189790190631,0.7981913658763908,0.7403214736175994,0.7108662025398276,0.6745530965894153,0.6187428669209278,0.5497402239791029,0.4602924229637291,0.37743343366869575,0.3295118520720799,0.3688078007538602,0.4514852032181784,0.4945777600930381,0.5275980911466174,0.5438681222506985,0.49203167713614415,0.4637780768509756,0.5098167040251071,0.5235972167133183,0.5195120187828468,0.5060542390469627,0.45955927955418097,0.49762354793157226,0.5630002715427438,0.5712048940084851,0.5049969681485991,0.38966371856275406,0.26802842604182975,0.15194757058827446,0.049292794442796106,0.0599357798415332,0.17248953763155872,0.2899112335617542,0.41266906705340856,0.5304772922428482,0.6488611858098532,0.7642489400565606,0.8407761339638868,0.7906000179613197,0.767219007168763,0.7652669214762173,0.7233721464375946,0.6425800040146179,0.5603047725361912,0.48931472910904916,0.4243840807094845,0.4434024160471115,0.5135183155877019,0.5703560094994311,0.5868548715791919,0.600610380433207,0.5948662731259542,0.5974736259321263,0.5785105968923887,0.5377651988617413,0.47716216567238523,0.4743342346939483,0.539626243165255,0.5545588617090578,0.4850611678046326,0.36225373083759727,0.24415625123128204,0.12450260449726702,0.01595763450250076,0.0,0.09765070748313853,0.21665143748989935,0.3449542535091823,0.4734254497463588,0.5936266192172479,0.7077195762707971,0.7872821730158897,0.7401262088591374,0.699642874434218,0.6907066816781084,0.6554795429726001,MI
0.9151408911547048,0.9057987015993922,0.9068447462852363,0.9185440000638407,0.9112907101659444,0.9229147695176323,0.9308637072949559,0.9292950941698588,0.9200591423675419,0.901374919406873,0.8703493564966029,0.8348953262735117,0.8204238300728512,0.8441600757278187,0.8798826778878519,0.8607320312732916,0.8701356292737583,0.9069816374173003,0.9257842969049936,0.9405665504783105,0.9424259318670876,0.9498525418198223,0.9480913784273812,0.9607872872068337,0.9749595792305188,0.9743031633965074,0.9865199187376033,1.0,0.9422522030318241,0.857852990273654,0.775765772229998,0.6998147934135952,0.7375894166865358,0.8210431281658055,0.8962855091567477,0.9178114200524501,0.9211129097868547,0.9239739781200091,0.9298942333293003,0.9346360521311552,0.938345179909728,0.923016675417911,0.9068153532639953,0.8911838012593276,0.8945763920808409,0.8891046241901313,0.8593951665401223,0.8752049811205911,0.902512463033212,0.9056082840630397,0.9056402238933265,0.910840499012624,0.9162366372917687,0.9059138217623541,0.9056126568325507,0.9056126568325498,0.9056126568325475,0.9056126568325467,0.9058083087021127,0.9156762858160419,0.9193154613563208,0.9203669084564163,0.923908866869199,0.9230465879291456,0.9087626373338797,0.8853008778117704,0.8483357682525532,0.8357365656600728,0.8628348800495873,0.891577333672533,0.8891007399532862,0.8999963119656789,0.9381941461403351,0.9569237570966984,0.9607242903934763,0.9704636290948816,0.978756011821448,0.9788600329893864,0.9790016940912083,0.9875835835179401,0.9836513453626132,0.9499946094360969,0.8822036139336893,0.8018456087879047,0.7088459862573093,0.6544577905104978,0.7182706702517092,0.8106304263181334,0.8884249323831912,0.9356312675114205,0.9264008733068643,0.9275031151469504,0.9386122569467692,0.9330813953141841,0.9403121755798312,0.9319041156850365,0.930906919936799,0.9215069450803584,0.9072660713200196,0.901597972148521,0.8689425622964619,0.8585663691351679,0.8905264237048787,0.9052433833183988,0.9056126568324951,0.9057478182848984,0.9125582101372434,0.908290495663691,0.9190021665235344,0.9234102403592375,0.9161941363125417,0.9165836729550363,0.9065680758476908,0.9187500527830483,0.9239000512009956,0.9238728936854246,0.9167341529275714,0.8861924313004335,0.8630914299858694,0.8616646859869159,0.861664231138362,0.8616642311383638,0.8616642311383651,0.8616642311383669,0.8616057768873837,0.8549025327987492,0.8536317038579933,0.8451208084378314,0.8433740958322256,0.8479014524578452,0.8539845185745847,0.8380364186594442,0.8038746949287061,0.7989785277592554,0.8003854373960659,0.839771292667566,0.8558314687343458,0.8536772277393725,0.8686057734122552,0.8702423976842537,0.8796930454976115,0.8799760751776056,0.8799505925284459,0.8748205265721745,0.8655819624595336,0.8460225757076416,0.7712029077235671,0.6787969200360591,0.5864448801617743,0.5055141515007078,0.41231418066815495,0.32106995032177377,0.2397399405759546,0.14592571242323293,0.05980772546709101,0.0,0.02362937529014708,0.09858137902150732,0.1917035463008454,0.2866364227304543,0.38149403075958155,0.46914119002810617,0.5533847064303803,0.6480619562574201,0.7429961514732821,0.8369240803016229,0.9022020125463603,0.9303310950421739,0.927918298116083,0.9169194973035699,0.9165997632560519,0.9160682619896567,0.903852264881361,0.8944948393227361,0.8756927076586689,0.8434057563887976,0.8231199874173787,0.8180078861313889,0.8003037359788103,0.7726737284095702,0.7765069668261395,0.807835150538982,0.8382812999726967,0.8552061563412918,0.8758385054130811,0.8691551435888618,0.8617140592215864,0.8569479500316861,0.8576229102351274,0.8616480674574909,0.8616642311384277,0.8616642311384295,0.8616633342539544,0.860206385744692,0.8485479154066655,0.8598720310606334,0.8606984148923953,0.8473088821449362,0.8428053171590904,0.8245766074066947,0.8072025503068705,0.8133760271150909,0.8395886641436756,0.8435964207148476,0.853825513105126,0.8619321696989997,0.8714107985714032,0.8637877710662072,0.8616672407319785,0.8616545747863893,0.8557260137313345,0.7936673044743467,0.7134941074560786,0.6208478364405075,0.5288257823830489,0.4477999708578131,0.35440981501536273,0.2665084141393108,0.18259956757373486,0.10109115494140486,0.09255658083485185,0.16566216075465956,0.2467363690164155,0.33784836551349917,0.432772119278773,0.5277034890300198,0.6204794046991338,0.7012358147758979,0.7941908233079515,0.8835157811255918,0.915918534365415,0.9165547629346054,0.910244308664808,0.8986633142843967,0.898264520979347,0.8932434795543576,0.8792685234697224,0.8629418333749803,0.8321380411071755,0.8035531006318228,0.7921833350343586,0.7902769562422516,0.7592760575273951,0.7574884761386218,0.7903125213098248,0.8242119519449416,0.8456185471382995,0.8672372725910709,0.8701187994769319,0.8617805883822278,0.861664231138485,0.8616635685422,0.8603591159945765,0.8507963665206546,0.8608445980561439,MI
0.6769337670417173,0.6014252632855603,0.5187009874437667,0.4918934939255726,0.5155082976125431,0.5655011700836079,0.6035539714194513,0.6387155788053009,0.6732975769932095,0.7340457541080694,0.8322836295339506,0.8863083078840743,0.908588727142293,0.8786008518536317,0.7749123367416821,0.6989024500144874,0.7800138450705019,0.8778070307469266,0.9305435390164032,0.9457824219525648,0.9410230810216733,0.8875551745968044,0.8151393623147065,0.8144097522394418,0.8546186477148829,0.9043998065788745,0.9386534331936183,0.9092808929500205,0.8999593696374317,0.8916211132088918,0.8889806312119299,0.8889772590019751,0.8889772590019733,0.8889715945596572,0.8852146581737177,0.8475082757586074,0.7901914170197708,0.7188251099650467,0.6356993345637552,0.550880788269696,0.496069677172537,0.5063537644175353,0.5449945925056054,0.5809234688243139,0.611880071772009,0.6585837294796244,0.7172324520583091,0.8063757065648414,0.8841070691601187,0.93022017833853,0.9863512292690171,0.9628236872613591,0.8599057246328021,0.7634149499639733,0.8214980288983824,0.9144469438793807,0.9613937463326048,0.9999018933462525,1.0,0.9511512023721185,0.8599179429636941,0.7978478083718556,0.8278771214951801,0.8534108880251701,0.8961253154557927,0.9169785238342953,0.9165703334767974,0.8973397854756691,0.8890171038354922,0.8889772590019316,0.8889772590019298,0.8889286075445062,0.8790018576482828,0.8286691596262443,0.7624965328474946,0.6877326010225184,0.6073956419475017,0.5303739010378798,0.5021566142046483,0.5311497193570487,0.5691996167975724,0.6044954503413607,0.6358212243489989,0.6758992619549575,0.7434727578447093,0.8416814588247412,0.9242225034283438,0.9384172796913504,0.9681881901641782,0.9166117596644208,0.8014631666203256,0.7257503874221198,0.8128638605397089,0.9114679531107397,0.9535779859775548,0.9736204660481134,0.9618083025373165,0.9008433560265363,0.8225590998392871,0.8059294056894828,0.821927674200964,0.8524713660213381,0.8829406642962603,0.9109369982724971,0.8915097607482894,0.8849925415598667,0.8744462223575669,0.8672014293380421,0.8605020804267278,0.8604718375519171,0.8604628777803827,0.8545657078006403,0.7965458789665467,0.7368850354942822,0.6439892222290018,0.5555191539300663,0.48345602255623454,0.4672434865316255,0.5013748406404499,0.5458331684877837,0.552762902734373,0.4884319892221294,0.4174718692052988,0.26838626264340526,0.11324442992978057,0.00707442654083712,0.0,0.0760120065463381,0.22705500670658374,0.36087486102442323,0.3725263533255889,0.36605065225709854,0.40350914768088497,0.48081265272060136,0.5732290906567981,0.6543403548236153,0.7200882506995434,0.7604464400470832,0.7635507160799202,0.7635534046220283,0.7637486214583156,0.770033436886524,0.7710891853444597,0.7765911461174237,0.7879458823007353,0.7881760537305018,0.7635984530122846,0.7285015080978745,0.7119205055901219,0.662561063380533,0.7042610143072734,0.7934408856580175,0.859474610496826,0.8771856546283763,0.8515722962301888,0.7449079746665817,0.6163195817073222,0.5056558840176182,0.5089587876841808,0.6098298976066774,0.7268099677592357,0.8456638017440374,0.8171475570859918,0.8018645307905503,0.7388074295145355,0.6398010758078456,0.5783690330086548,0.5444964930662266,0.5192115178235417,0.4754027652750139,0.432962664106733,0.39918921737818636,0.41453461543177283,0.4663334177116587,0.5413237346119235,0.6170911646438499,0.7029019099836589,0.7647330967443944,0.7907052830564494,0.7920584782510423,0.7929548378708109,0.8096942676122589,0.7966360181976704,0.8073473666198616,0.8203919320813382,0.815664332222978,0.78037142909215,0.7379650015138699,0.7013280333880463,0.6573398867202833,0.7177051109547774,0.8326628307755977,0.8970208305685796,0.8978598790316905,0.8593370383517716,0.7757405955484868,0.6476384372481512,0.520240367319202,0.4717939064145815,0.5633845304309517,0.6840814572398566,0.7908361362569902,0.8506776652789352,0.8135114446906329,0.7441527781888162,0.65469937377134,0.5929040895303785,0.5434616757549744,0.5145747936219216,0.47462855106846114,0.42400073881490474,0.3950401068988958,0.39680671406266654,0.4458594627153323,0.519176205664408,0.6118054002056006,0.6949110358172117,0.7506245100057081,0.7867361078066422,0.7926498710935164,0.7987473104780101,0.7923589226110224,0.7920669070782065,0.7958626720321398,0.8060000807954371,0.8090201599831239,0.8185078422092671,0.790613528838656,0.7419959452350184,0.6897651698489158,0.6437187324151514,0.709137649054898,0.7978150775195063,0.8460513146519943,0.8451458317774438,0.7925519980908398,0.6743047969685447,0.546620597992538,0.46410485573660143,0.5145736002110315,0.6245827829735626,0.731437519368419,0.7855436847875472,0.7717393120690534,0.7377936801720333,0.6491119898311135,0.5824265658491008,0.5594202511285715,0.5196974331649784,0.47425613109158604,0.44051028158173544,0.4049076594705676,0.39778857199499384,0.45011294309208605,0.522473150738608,MI
0.8124128148964651,0.8200287641401056,0.8316753403491788,0.8602986023528638,0.8356584850949771,0.8476243949506497,0.8494268219122008,0.862077599171136,0.8374959523062175,0.8602919816523009,0.8290059489006412,0.8120087035619932,0.8059112653460447,0.7928949811516262,0.7630372809364339,0.7141220670937596,0.6500127351490255,0.6103532257299973,0.5751268266995044,0.5523318045871255,0.6089143647065836,0.6223625614244375,0.6283342353125665,0.6380279646725588,0.6439332044150419,0.6911900639777855,0.7001122928428662,0.7103280725571421,0.6600091833305539,0.5935039519213436,0.6718294677341321,0.7772481124027459,0.871207434697741,0.8856986115236536,0.8552157773344771,0.8077476636648635,0.806698042660968,0.8228587386133128,0.8417303247027839,0.8374322432788297,0.8338000028677897,0.8350910654552601,0.8433219047979241,0.8397063433747309,0.8165261675784716,0.8186623773112869,0.8127157294382057,0.8158031194021049,0.8138479734556521,0.8100823435094222,0.7977358494434537,0.8126722537348678,0.7854176359942784,0.7753433653311799,0.7381929174633228,0.7060078668228202,0.6343490580551094,0.5976278900708989,0.5733070053469573,0.5756380284666172,0.608307130860072,0.6234831716092559,0.5996397011607852,0.6398184043628241,0.6475225593308913,0.6606389545043845,0.6589649811944991,0.6625963980268086,0.6324878947468155,0.5551554313224374,0.5976212104197014,0.7067669775237286,0.7967689097682769,0.8467663285243683,0.847504408265257,0.8036641031924168,0.7910621216926383,0.7978196031319973,0.857251379196172,0.8390439256125335,0.8642835982729187,0.88482714608626,0.8753650616111468,0.8878853988306368,0.9030842770639849,0.9285361996174792,0.8923949379165332,0.9205343977853451,0.9056739129777149,0.9281052906392127,0.9458168609382218,0.9759146998359691,0.9628563115244528,0.94702627567953,0.9810537703454631,1.0,0.9909167973192607,0.9454877033075331,0.8913843249242737,0.8354825384330233,0.7938491608729494,0.7724599364581639,0.7706396807885039,0.7831765772112709,0.7610618013768242,0.7763898407119889,0.8041737905534792,0.8025788350142582,0.7953133347025512,0.8071752090203006,0.7888336558960249,0.7122713682647532,0.5983337949038745,0.6413320405140226,0.7645186924527954,0.8562305828000341,0.8987906071225487,0.9005127163402706,0.8170851789251223,0.7707108363160939,0.7134518324591772,0.5868150817828433,0.4937446831996679,0.46046049746568407,0.34741563394250763,0.20189771802445566,0.06202054683076197,0.0,0.015628577296810775,0.12369761200185092,0.2689895964398965,0.4082593911335781,0.4312003491457892,0.32882443297549324,0.28048516335051676,0.3696989730719671,0.5044033533023384,0.6306185725502287,0.6820811330159167,0.6668877770011203,0.6868895262811066,0.6973896941775726,0.6944048209316325,0.6539004004269664,0.6428285786536359,0.6630268345527375,0.6536135125483922,0.6421591777364775,0.6818413318599141,0.6855251846277293,0.7392772182181133,0.7898128862315303,0.8170830766894159,0.8541802743411688,0.8555894633490153,0.8440071132514975,0.8650801585832966,0.8795413267039978,0.8433726684731369,0.8184862758427078,0.8154377741997925,0.7966868917527323,0.7456734871145292,0.7759783238519891,0.7706115136545488,0.776199934070311,0.7503768185828674,0.7507689859873681,0.7288294231544485,0.7015360639769126,0.666793851415461,0.648260733968594,0.6801207524749566,0.7103044787808752,0.7085997210433312,0.6448638075829978,0.5337350711119209,0.41188211955003773,0.29041469806202613,0.2577973649067178,0.3587337230236809,0.4731807955475462,0.5405923878571235,0.5536639117599496,0.5438894782826971,0.5128250909561309,0.5252083668354715,0.5073952522264129,0.4924182478134913,0.4738958528966757,0.4777384723700111,0.46045402390808565,0.48903630268790366,0.5301263870828823,0.5806050449596931,0.6200072969664108,0.664358131156372,0.6801318225733386,0.6897226047913794,0.6906038601979763,0.6904770653128827,0.69991806760126,0.6978814478523194,0.7220626589790573,0.7080925826364739,0.7192135750006221,0.693562529876445,0.71013626721391,0.7202872680039514,0.7200846913698289,0.7280436501938734,0.7325539487346511,0.7160644142804093,0.6943492871286256,0.7100889480973427,0.7532838606110817,0.7593303827184483,0.6953925327551529,0.583806041529721,0.4594197516973084,0.33411524581705665,0.23578046226890148,0.26202080805282346,0.37950907346125096,0.5005288329178219,0.5820828254733152,0.5826425306063125,0.5712346539082453,0.5294508267616713,0.5219325961486732,0.499486080382713,0.49243393000220514,0.49171439435763453,0.44332158078393924,0.45030642586437164,0.47535357601360406,0.5174354809550197,0.5618556295545023,0.6352829447253603,0.6718837458207423,0.691756928132393,0.699401951747114,0.7058616926999068,0.7231999085662801,0.6908003595568362,0.7118313938243883,0.6965683981972299,0.7323478932534453,0.7521784081602618,0.7260041721970225,0.7337879392803464,0.7164010539906664,0.7338774413435383,0.7175882668371445,0.6999842268617167,MI
0.6581017169249752,0.6901432216971872,0.6671945909989914,0.5754398354833823,0.47192188753999664,0.3609657357569085,0.3529234993194419,0.46673836773387345,0.5748760618913122,0.695191589265391,0.8182979662871648,0.9242989629894258,0.9745776088393874,0.9199187887949845,0.8310302575595396,0.7831412562114233,0.7805788633868742,0.7798219579556114,0.7618052797362296,0.7119846191032662,0.6689425860892464,0.6941069360161696,0.7307163435352781,0.7587815309524921,0.7668091534499166,0.7599593517542953,0.7601607477807919,0.7696881476942119,0.7630348599762726,0.7749105129866605,0.7805460073885335,0.7805772541218077,0.7805300390979464,0.7717335314144957,0.7250362708542397,0.6695336629351178,0.605109634350598,0.5364675692090302,0.4806236408521558,0.4834356681926826,0.5038984522112853,0.5252263893600349,0.5518161765482983,0.5758535820573436,0.5992754292524212,0.6241196954270065,0.6584286128259298,0.6883777926828674,0.6308065663482796,0.5331517463046467,0.42503383000580053,0.38314444777657375,0.4713836017435846,0.593412452680603,0.7171553991458137,0.8354673714551839,0.9384309703788345,1.0,0.9553239150152075,0.8743435264808652,0.8579149118899316,0.8618686873223624,0.8454635093743477,0.8238313100303949,0.7724573899765192,0.7074759439485039,0.7085498253474003,0.7486510209064363,0.782247931421062,0.8017337539773814,0.8143086297910433,0.8036170914595728,0.8012906154021904,0.7940723292483218,0.7810899682180787,0.7836485869840812,0.7928451547036168,0.786242094861977,0.7993989081416499,0.7915863590609931,0.7666013660107649,0.716522526253005,0.6538925330793433,0.5806963393240778,0.5265967370775662,0.5228362465542853,0.5534376587177747,0.5927033287044936,0.6246336930652827,0.6515601395579886,0.671453597455681,0.6951092043453184,0.7114738189057523,0.7302636480881461,0.6866777704993337,0.595386183299337,0.49217298286650335,0.39111695119311163,0.42691527988051226,0.5331166262217026,0.6544283587754967,0.7640831629542526,0.87630373975002,0.9625317666043989,0.9568685242710218,0.8791015298700895,0.7985752787992775,0.7807063271575276,0.7802654528629889,0.766533093584306,0.7203337941007626,0.6664590877456527,0.6551690689356455,0.6881857330539738,0.7295256489708422,0.7519373447571187,0.7412432958196846,0.7454468366880276,0.7591221663340568,0.759798970652076,0.7597993340997569,0.760624022140385,0.7748611241333943,0.7750003321829184,0.7310936063709903,0.710303502178006,0.7099090513234203,0.7049024746714054,0.6987349672294245,0.6954125694117472,0.6892006310919219,0.689153369089984,0.6889413970579095,0.6735309403512373,0.6336691880730831,0.5902522935062158,0.5740717906874955,0.6109392507139573,0.6700259123261345,0.7121949501466429,0.7292429586997926,0.7207127526906492,0.7317374690412572,0.7742648017113067,0.7476402362021206,0.6437998852232094,0.5236257918245353,0.41138574353069757,0.29654298649140953,0.18108766781542718,0.07643703004212554,0.021466648617682438,0.0786580677949944,0.19138213862591558,0.30073651223210085,0.41718364744832037,0.5220354969713425,0.6152799171283307,0.644659282230891,0.6270852120908965,0.6076405562433647,0.5878983759220833,0.560281420092807,0.5246910709565569,0.4882140062168019,0.4600574803688797,0.4472309062444033,0.48850871308288646,0.5511441909133468,0.6177673759628113,0.6798753093776355,0.7242260412346688,0.7306896825408504,0.7307096804680846,0.7307096804680877,0.7307096804680904,0.7307096804680939,0.730709680468097,0.7310147571119487,0.7413564414206655,0.7345187072020094,0.7158913808065273,0.6808860195756119,0.6373702112134034,0.6384830346160433,0.6943590606523169,0.7572904230287456,0.7859796015768361,0.7929904352927775,0.7936369146983089,0.8151147098793752,0.8158693662501895,0.7099254628121905,0.5918420522060508,0.48242733482893074,0.3625202612421585,0.2545762086881056,0.1355776225696026,0.0328809836835422,0.0,0.08673913771834263,0.1939691388214797,0.31273588111161477,0.42019663593890577,0.5253311084013044,0.589545301823212,0.5653919135841701,0.5437666503917571,0.5127489669023428,0.49815283401407884,0.4729916700414596,0.44735581554632997,0.42088370015831744,0.40116823224939013,0.4243420172672683,0.47776650375948915,0.5441429002969471,0.6141139941189584,0.6735252934147455,0.713185066509658,0.7298544649199963,0.7194979251142293,0.7100756029926529,0.7099315247791611,0.7099315247791647,0.7099315247791669,0.7099315247791704,0.7097510608436037,0.698402635507978,0.6627191860676196,0.6256698094102964,0.5918482319021439,0.6213051685907502,0.6787459959640958,0.7192831134223048,0.7305334988682279,0.7307276440579358,0.7364638125654719,0.7845985495396501,0.7711809280058399,0.6779436880256919,0.585958251581487,0.47856051867565386,0.3609766286948748,0.245128692569621,0.1338468178901282,0.023351876453213904,0.007488222264279809,0.09230299353472438,0.20440567649999242,0.3137143790848005,0.4284012752817863,0.5344426124349009,0.6074162457275785,0.5893951658064656,MI
0.48343458516611193,0.5117871887621783,0.4863000490096905,0.430427193364989,0.38530800933309606,0.4095706498633567,0.47602024534142484,0.5476143920825516,0.5985728689901579,0.6238023299995485,0.6759527816601658,0.7476591780221586,0.8390037721024373,0.9259443264977258,0.9752560611917136,0.9507325824173771,0.8627829118776285,0.763098209314329,0.6637617908620723,0.5617798508959884,0.46343119299266133,0.3707239292859328,0.39259052684553053,0.4814572953337992,0.5471719200833172,0.5597855302410879,0.5244243355538829,0.48836160899419756,0.5170597937294468,0.5573134767543992,0.5571071125890052,0.5068119386832888,0.45442167624606067,0.44659274215923395,0.5028325311269608,0.5704594550981683,0.6314011251748821,0.6531297694724161,0.6794732724400434,0.7555694620164921,0.8423606385581761,0.9324943147771407,0.9903553206591094,0.9817344583251375,0.9030604864059522,0.8040358083649688,0.7064429983693854,0.6021472225339657,0.5014879085030897,0.4096145236769215,0.4120435631175967,0.49569007625697403,0.5435642693495208,0.5301615059527298,0.4813235384070387,0.4676980316501098,0.49561326434109665,0.5192269531999385,0.5115587533250845,0.46384217742652845,0.4058142497994066,0.3744317581050649,0.4213868005236572,0.49058869991067544,0.5430697687836996,0.5676196734801644,0.5939886511197408,0.6749746373271359,0.7647314216591352,0.851896146042362,0.9249043969348076,0.9447083975292998,0.8829822043999613,0.7838293955966182,0.6858588479270922,0.5816275401670816,0.4832843115199925,0.38128357505725696,0.30520468104878273,0.35627684053948494,0.44591884706595564,0.4907243816283524,0.47842899630561586,0.43963267027495956,0.44787453495282326,0.4878265797547179,0.5177522818271152,0.520042815049655,0.47603327050000876,0.4222445311094192,0.4129546841725311,0.47169898656011333,0.5415702066331853,0.608012299759062,0.6509336469658078,0.6811578372498708,0.7524718027566766,0.8396623843081843,0.9254696958630022,0.9938605183109985,1.0000000000000002,0.9309788873355542,0.8317236766786851,0.7318886128404274,0.6312897369098711,0.5316594648370454,0.42693497154513826,0.359634381416843,0.420075625922663,0.5041131207982188,0.5420554500390617,0.5273650355509529,0.48082806883753815,0.48475581015939095,0.5260203566658168,0.5416423348598909,0.5137496978262475,0.45449234736325117,0.39786475518209263,0.31357698609235807,0.2531531821255959,0.2911904899180273,0.3874075132532264,0.4530526342728116,0.4995863719486757,0.4971743820171477,0.4579378456666985,0.43669934980751113,0.46714365389427104,0.5054151900653907,0.46915564247921004,0.3811910727349097,0.2840809820634058,0.18773064960734942,0.122586847831744,0.17462663497767061,0.2779375232850798,0.3833238254221474,0.4859102980441832,0.5840471208170133,0.6887339931026122,0.789210877107198,0.8872767085683673,0.9489966913302574,0.9013643814602561,0.8092041639402121,0.7216218821904792,0.6524931939402205,0.6202534007183482,0.5844161726426516,0.5146534982738684,0.44586003904036886,0.38466106554596435,0.36368753381132657,0.40547134311350397,0.4640904339819505,0.4929628100121224,0.47075690529839265,0.431630697223061,0.4027806120802073,0.41843510613178236,0.4535611676078095,0.41996164573540673,0.33147314452458665,0.23479721708649137,0.13281360276192422,0.03413118775125468,0.0,0.07671667788569714,0.1749222560690371,0.2765569798870984,0.38165154246695265,0.48093096242548294,0.5820160173083857,0.6832758550014031,0.7820633905963563,0.8728009666149676,0.8736438540262428,0.7923733063175156,0.7046327592533053,0.6199953363540183,0.5534293733825659,0.5303101245037227,0.49164882128386944,0.42886459416683365,0.3633265593949455,0.32523741336230105,0.3554966375834472,0.4119718721169974,0.46560449007654925,0.485018020476784,0.4609921716244041,0.43152021055530576,0.43318902508355484,0.4860285696144928,0.5022003172241309,0.4373877798438597,0.3447127564197241,0.24845859508894774,0.1537056772693799,0.1311780492895238,0.21051210198424797,0.31123485184201716,0.4165633464905345,0.5219756372848081,0.6267328698680061,0.7247855585328886,0.8266216286097705,0.9176360667535162,0.9402127465701711,0.8674933630422232,0.7781759742130803,0.6890572917669062,0.6299141782418736,0.6143905594355352,0.5835858766266102,0.51381037600654,0.4474980934270776,0.39934040037223695,0.4118789763574566,0.46443547794982676,0.517003132306556,0.5152553169309173,0.47215216795942627,0.44609315204540456,0.4794542589100794,0.5253924823084652,0.49941933695601626,0.40899265163309173,0.3123213874749171,0.2166793700949261,0.1469093479718626,0.1885046343746064,0.2838193290797013,0.38128341115926556,0.46932401787949907,0.5676465857956254,0.6716754297476069,0.7693140440525938,0.8712634321326276,0.9240663931451853,0.8640319899283344,0.7767456770819792,0.6888535465589862,0.6130920347198388,0.5785185758318159,0.546534113644781,0.48227617628331365,0.40882904512602036,0.3518818268484203,0.3442207957956811,0.39277253269148305,0.4506263523615841,0.4769193960443412,0.44534702133575843,MI
0.6350913950674082,0.5500152532424822,0.4587963678514999,0.44114746472887,0.47494722237061815,0.5137436580873995,0.5888539110987905,0.7151362406601889,0.8547493598537157,0.9803102418938385,1.0,0.9722808653799895,0.9239744578987299,0.7813895237242257,0.6122638751986056,0.4642440788203075,0.50257611709202,0.6560522906096509,0.8037628182919159,0.9094238666719399,0.9107360122274155,0.9058385826503921,0.8897710269165753,0.8722447817727659,0.8170170300512929,0.7151518574057336,0.6661084635051466,0.6240826346765358,0.5383720644742516,0.4634857669597219,0.4591305573668132,0.5054834088464872,0.5455061639562127,0.6183611911401377,0.754755187631523,0.9134736665905558,0.9991538604142836,0.9959110021493975,0.9749226741518742,0.8522780365269016,0.6864881371533116,0.5554401748606619,0.5311913638564008,0.6756394585196563,0.8368936580194699,0.9214646275354026,0.9223934347138876,0.9232039721713932,0.8981479179637226,0.87628792944954,0.8319697226954528,0.7467881978193489,0.6591258175664354,0.6050340986019931,0.5395445474504035,0.45965459574545253,0.4349637019246302,0.47540438107803595,0.5263186957988353,0.6019102461290711,0.7368381587083892,0.8746709787862983,0.9847874757891386,0.9942749223526555,0.9601205340976708,0.8486503507938865,0.6959995705034583,0.5777263460447868,0.6702067876948501,0.8178990824605643,0.90677624602354,0.933901272241088,0.954671559529654,0.9652530326732096,0.953384755365744,0.9016198362859908,0.8131180395219353,0.7534007123571707,0.7163405826779963,0.6295719114187328,0.5267753193401727,0.4766403478425687,0.5102438479883586,0.5546841531716531,0.614292035408015,0.7280801210293317,0.840287156381625,0.9429558299635152,0.9536401887271273,0.9429481890409912,0.8640600198260575,0.7118713208342591,0.5494829584462595,0.47683355746135714,0.6020885246028067,0.7468040180960189,0.8585338868071224,0.8795870054301993,0.8620526818944141,0.8460592259411799,0.8296956096939088,0.7831243819495084,0.725725796939277,0.7728294145473313,0.7798539507341573,0.7219857750739349,0.6421654311493166,0.5554968293557643,0.5201148610919786,0.5327659300568612,0.5559723271212018,0.624094888450796,0.7449993039013618,0.8806619140909637,0.9814322379647855,0.9953304893113986,0.893240803216222,0.7381617105324141,0.5860714249738503,0.4692610641442645,0.3612374649676924,0.1944754469020915,0.03498783407240991,0.0,0.096159647961096,0.27482452805102087,0.4314627760708696,0.5375110731892159,0.6859265270664272,0.8121860153446994,0.9145627435208272,0.857907794408292,0.7184569735740078,0.5911678555567832,0.5062318247960613,0.4617103587152327,0.449169838505882,0.4332750822000295,0.47035301948124175,0.5488814567545512,0.6325657347686571,0.6876818982652679,0.6547353670922087,0.6309103659692852,0.693065769874317,0.7425551299742841,0.7646549349548746,0.7827408058572969,0.7805657837114266,0.6807344183877362,0.5281343274900356,0.36772690875658576,0.22044930939575824,0.1257766997319658,0.15057376314716198,0.30895500094831174,0.4923764696711608,0.6693745080677678,0.8085473775473275,0.8480918389956704,0.8010431988639493,0.6664786223449815,0.5472885680223207,0.4790446789490961,0.4319314156144589,0.3938374929763975,0.3889111291428158,0.45907155986733805,0.5619975944997586,0.6373539400346466,0.6683614584842559,0.7427907529763251,0.8303915605740544,0.8572449464546494,0.8732573945995084,0.8701915476215429,0.8564709055809621,0.7814023572435032,0.6427384410514749,0.5173027555394816,0.3695459210598737,0.24150293207615414,0.2640085268908985,0.4152208447005101,0.5849500797141758,0.7483384854208648,0.8768283699927171,0.9115264709268196,0.8869468120800139,0.7583445752439983,0.6216632942141658,0.5095767532173774,0.44591527699760247,0.39024695620302685,0.3453983130153908,0.3481996366971294,0.4097740983592475,0.49357269926772496,0.5426103096886861,0.6093311667246715,0.7126242006851324,0.7859468809581251,0.8078814237724519,0.8343126028876799,0.8296862561880758,0.8078546682824257,0.6783640344796176,0.5211388725178452,0.35967633872443816,0.20831230565836556,0.18265809532623045,0.3168033490479707,0.48325576245572943,0.6529967747361543,0.8122448494050021,0.8944751763417811,0.8783561957851607,0.752584740552801,0.6080174477105151,0.49531329049690864,0.4408604771335698,0.39425899335195114,0.3523811520900626,0.34445932137194024,0.4118398536214216,0.5022613870148867,0.5603446174841809,0.6196068877149576,0.7120136273271989,0.7739262848156825,0.7973184634896588,0.8100581585380393,0.8200869483516415,0.8236406899505324,0.7188029318150804,0.5663486944545282,0.4144235100739526,0.29287129076456386,0.16251540004886822,0.16934802337525667,0.31820007723322785,0.48739260159399045,0.6592264711161357,0.8308617729928649,0.8966474735256247,0.8627168963539011,0.7276606521199582,0.5924652422339625,0.48430827787107233,0.4240420387852537,0.38679288281412294,0.3526578474379014,0.34707665162857504,0.42553614745342294,0.5167089498405684,MI
0.8352511788437496,0.8700612356462094,0.8847918275260129,0.8877689586371602,0.8825543045073587,0.8509043905629636,0.8046894993838998,0.8204124315624401,0.8382483817924995,0.8634993975478258,0.8716260019947848,0.8735278151507755,0.8723212701220153,0.8692665420564842,0.874738659956054,0.8855526888940162,0.8861517695585399,0.8819280000088683,0.8748894270756922,0.8720212911814711,0.8510001716851132,0.8162498792582444,0.7856298534235924,0.7703231513383688,0.7538609960331581,0.737893420278541,0.7528159323080663,0.7907913345990312,0.8337381418793832,0.8755466158367149,0.8976100612473799,0.8943019184865579,0.876398218504931,0.8606108094832332,0.8457807153803549,0.8450504088302608,0.8512294163027492,0.8829166167078544,0.9466332990084458,1.0,0.9956714757806711,0.9294592761256428,0.8492222648871359,0.7676459866073988,0.6886810792966744,0.6016456473725906,0.5144111104307858,0.4452311970057261,0.4889333829745217,0.5749505551848619,0.6519465484324884,0.7241328472253623,0.7649689711503012,0.7767952058212115,0.7829515999962822,0.7739985825889795,0.7614297243331665,0.717285483576529,0.7290377618036876,0.7630323852109009,0.7904384869444323,0.8017968205344856,0.8031651714597938,0.8116089114358993,0.8115696747943728,0.8101786926326908,0.8025687981742209,0.8021881495746164,0.8019839843337278,0.7942373942990422,0.7880085910934622,0.788839989532828,0.7930419779190863,0.7880804521673639,0.7879025191063476,0.7852558029407128,0.7795680915079104,0.7653666756284121,0.7422496139952779,0.7486790924157414,0.7795215030865577,0.8257772199346256,0.8688503551513755,0.8890274299871219,0.893364852040849,0.8789348212506578,0.852809307483696,0.8291335466320784,0.8107151440550151,0.8024470565918054,0.8113352250548291,0.8576139514378722,0.9125223171352701,0.9340551208518417,0.8809402514500224,0.8028448548577942,0.7158096503004101,0.6285077657084681,0.5412062714362582,0.455685092018983,0.4300437046657277,0.5058629667590395,0.5863706460577394,0.6603899819101309,0.7125791027144999,0.7436105061951608,0.7746191471899739,0.7875009850038492,0.7804137386826002,0.7544306075723339,0.7064309066537953,0.7093923169906362,0.7357951955806086,0.7561891214264942,0.7649192651411658,0.7733807098805365,0.7748649617962897,0.7748378946796501,0.7361363038172439,0.7289701589479347,0.7243003593147921,0.713805802767518,0.704407863659887,0.682544579708023,0.6540883914310065,0.6334625913336165,0.668322078971622,0.712907106661794,0.740120580910447,0.7416418382837353,0.710810854829695,0.6804779050179501,0.6222551338400089,0.5435394807666771,0.4659470458667645,0.38071828812940667,0.3041964113881195,0.21973702596305,0.1428282200123483,0.06060938106590563,0.0,0.02584038709864478,0.10401378976232456,0.19115422703294382,0.27642242508699444,0.35295647417942266,0.43879594092383845,0.5260942106568343,0.6119930209904325,0.6884368629698585,0.7730434219436311,0.8201201291012179,0.7792607728417962,0.7520011435480685,0.7461164504847186,0.7564150121177717,0.7775375818219787,0.7956406836852583,0.8208115502284117,0.8373145136949485,0.8320174524758661,0.8050100133860565,0.7583810775041635,0.7181906252370771,0.6928199954200367,0.6946965729554777,0.7158110102571857,0.7337812621791482,0.7326903222936783,0.7378297116487422,0.7406943292047159,0.7412016087070654,0.7394993494182986,0.7455046637504354,0.7470814799107313,0.7518144186868034,0.753816005954679,0.7609744223139963,0.7678120881089439,0.7679254852173796,0.7652851207429205,0.7638140223833751,0.7540908084791949,0.7304690089419119,0.7041537480435198,0.6638096769552297,0.6480330928811799,0.6847408889692876,0.724624386739761,0.7378353575529886,0.7278501591322328,0.713877255425849,0.6543038666325227,0.5791713904357874,0.49430306774022537,0.413601903302234,0.33373869668689893,0.2516491884729952,0.17324698535259175,0.09256799030695162,0.05342469254180049,0.1051533305409722,0.19015655593288483,0.26747811492230933,0.32716633051397825,0.40943249499106904,0.4967153270976361,0.5833737693706578,0.6606371186354458,0.7443676213538493,0.8313897225670233,0.8914937771105964,0.8576367230018063,0.8196184838465137,0.799741317671014,0.7964926694518324,0.7971555993887054,0.8100659092311382,0.8278918574673888,0.8492579815252457,0.8428484094454172,0.8071097933825921,0.7588888442555621,0.7181945648848242,0.6898835324678063,0.6869716512396034,0.7058541453033329,0.7272175384246893,0.7460737250551861,0.7802521601414045,0.8110401068290121,0.8263038082793202,0.8309496677770598,0.8380400009895554,0.8326230126546843,0.8292595792978372,0.8244426164169174,0.8177740099234554,0.8242986530366601,0.8248712701506151,0.8167153181623483,0.7973287956722608,0.7757366767573495,0.7504881055295378,0.7675838214325048,0.816182688681236,0.8383732613451786,0.8389177226362272,0.8266270437471146,0.7769358565313342,0.700619371528862,0.6242928989941379,0.5419337537373092,0.46532354381360586,0.38646472810261745,MI
0.7815204198952479,0.7766320456257985,0.7393634591578686,0.6819009279289192,0.6789638405496654,0.7330831285845614,0.7443351314143829,0.7318826724215151,0.6680631894828339,0.5785982868249926,0.4644229169365004,0.33926681716099605,0.22610252943098264,0.13458659819842733,0.13802158497965777,0.2276440006264835,0.3169377439739609,0.41676278641174713,0.5006177729701458,0.5754972525603712,0.6682935907292729,0.7806641387506352,0.9116360839088142,1.0,0.9397754550743702,0.8002072575502561,0.6541017843468935,0.5563225147186395,0.6512228175120445,0.7917138597115385,0.8633924496838845,0.832600446330308,0.8164050793643551,0.776683104231974,0.7163486995407,0.6816865915033397,0.7329631461084163,0.7477661399628777,0.7225562670137062,0.6773554484219662,0.5980954845840833,0.49424275331431256,0.3796659143882768,0.2526319816161413,0.1384603951129777,0.08523552719570526,0.16150522119938593,0.2598496750261825,0.35025255165229074,0.43619257018749913,0.5047281938904509,0.5828931458218194,0.699172525759999,0.8224437458374054,0.9022951077094672,0.8388535110815969,0.6979405408627817,0.5427624549984791,0.5131477437359431,0.641969329982349,0.7690327376415524,0.816675104775519,0.8398610869614744,0.8751531997174622,0.8618653396334968,0.824070058981369,0.8536659622083134,0.9101710153696683,0.8925917547291773,0.8265938597813958,0.7299467569424425,0.6247996949162165,0.5251883744335988,0.41928510420579945,0.30490977992737145,0.19728555750574372,0.1302611551774362,0.19335836549351582,0.289916951915433,0.39335781222985,0.4836122047058473,0.5678602139690154,0.6402872794006345,0.7276799709800774,0.8471770788757489,0.9671441614780147,0.9542220072494154,0.8311694461840098,0.6867517585212721,0.5615959296411379,0.6163649983389101,0.7550133274636188,0.8311567168930369,0.8001787544735093,0.7878440336603414,0.7669874277138331,0.7228384779897477,0.7088777654380265,0.7673306740980981,0.8014825255582534,0.7898705232979117,0.7392573034966903,0.6687822252584814,0.5616771790486235,0.4441734446387664,0.3324005989277712,0.22996615265131704,0.2159689272554357,0.2950249315675797,0.387610136387039,0.47336837367287155,0.5376376820437878,0.6168972749140447,0.7164133773730295,0.8370265680220919,0.9235191069910074,0.8620212690330855,0.7221673705732825,0.5825115726059642,0.5781190839940216,0.7097786745289776,0.7859303844455776,0.7351493031897722,0.6666091392905411,0.5395058641614252,0.41983873731580346,0.3089133496183307,0.1515994409945769,0.04793602904974259,0.07633770145638241,0.20005376127541785,0.2975645161764624,0.4361472557664001,0.5810255387343104,0.7193779199941823,0.7275845572091542,0.6258265846963491,0.5395407953552311,0.46832391844401355,0.395832587922508,0.30856211252901256,0.21208295303866853,0.13459528973635004,0.12059114703778961,0.19423969009255115,0.299607645855263,0.4202250787483548,0.5383480268412675,0.6336441901543806,0.6908349842954888,0.7198147133173394,0.6903453867070612,0.6184319287190081,0.6100346734104924,0.6670901052089455,0.7069406953398505,0.7267454793615595,0.7451896235904121,0.69055522347533,0.5534251875380769,0.4330847630123382,0.31196747060736296,0.34052577116079696,0.45757321448677546,0.5863383417305648,0.7317461563190237,0.8309156782427123,0.7508801645217331,0.6376894275597667,0.5629134310104216,0.4873504146187462,0.39851855322043495,0.30612300548732696,0.2027521166578663,0.10354899432776676,0.04010062223591371,0.07469913209755275,0.16967955060777395,0.27731222101177355,0.3934158366752465,0.5042625083740555,0.5943807452448686,0.7033794544643261,0.7977413524713426,0.827793687563108,0.7685795494287793,0.7317837890613341,0.7753741867794797,0.8002176053157659,0.7765433921632101,0.7398133248503234,0.6598905570650597,0.5209648239303468,0.37512587462226454,0.24652400962298637,0.25313412945966274,0.3835143733197728,0.5321459866963547,0.6762842791912638,0.7288841028241038,0.622327456977847,0.5219149844376556,0.44484740558214586,0.3765237569023214,0.28553809452724366,0.19305369448608545,0.09515892073860988,0.00937776748626673,0.0,0.08898324951254422,0.2038648544103161,0.32326444760485673,0.44254011742720456,0.5470211259970132,0.6297435586281592,0.663766590736087,0.6755322348358641,0.6186229745103522,0.5784173387309188,0.6332746883959661,0.6998152586372743,0.7392547869084822,0.7456727937308605,0.7598970705721619,0.6686462204290282,0.5237297751192957,0.3843603443166037,0.30339591149158185,0.38071339295764517,0.523592447328622,0.6730674165160968,0.816732259531364,0.8167400949454433,0.6970429644559255,0.5971859274361035,0.5114107104595904,0.43404120079194497,0.3495252931806059,0.248925439265411,0.1536330517028479,0.07085432081796439,0.053134175550383134,0.12673399238440508,0.23940519191119902,0.3632391798326604,0.47365994151965696,0.5764657670411095,0.6547033942723952,0.6756764917257492,0.6562906977816167,0.5910337694774994,0.58995669008549,0.6419889741452396,0.6959940003963019,0.7156045059189609,MI
0.872471469519863,0.8105557448139966,0.7335822485514769,0.6509157765213462,0.574570733786218,0.4994972977720873,0.4284278762016269,0.4018155387917379,0.42823748370361026,0.4708607976109671,0.5164156799064181,0.5698747134732356,0.6302399490381685,0.6784711645376174,0.7268061187848849,0.7593591508484647,0.7843827475589835,0.7755582078414007,0.7207956309916259,0.6366681526241944,0.539824137468154,0.42765597989901893,0.3151757239256501,0.27490392246810647,0.37457595867910687,0.4920309498116082,0.6130015107170612,0.727447372729563,0.8405732002994388,0.9397805870948872,1.0,0.9794007881849947,0.9618856498391377,0.9302869410916155,0.8802201693292542,0.8570099743685056,0.8881429277651995,0.921371663340016,0.9361994800048268,0.9296507697290073,0.9295103594884835,0.9221985118505018,0.9062036763980901,0.8899685409621898,0.897632719536285,0.8973735298244998,0.892213710050541,0.9010493162810347,0.9059594673041671,0.908322919377412,0.9083286425680073,0.9082156394762482,0.8993011213483162,0.8702126557124035,0.8048174803479071,0.735388317880207,0.6576036626877668,0.578289224241308,0.4962006088621318,0.42062907160153573,0.3807026004739802,0.40783437065544215,0.46176637733198156,0.5119030358453553,0.5732466129578295,0.6302254865219026,0.6885022819445776,0.7385259644088991,0.7762117615608304,0.8001836890453258,0.8142230138908833,0.7706044454047309,0.6938265284148097,0.5991501983526795,0.4968961121375348,0.38837433993706405,0.34833097376105027,0.4540004007861951,0.5684965208380381,0.688667695715794,0.8009345885975794,0.9106056526838913,0.98998420999667,0.9998380702512786,0.9728553278876881,0.9415857043173981,0.8905138554313865,0.8607225343470168,0.8833954582120489,0.9169829490416888,0.9292629016826739,0.9255828325919939,0.9203607588291165,0.9098309952666752,0.9169116275409288,0.9196590499350061,0.9102980656759025,0.9083311074535438,0.9083286425677075,0.9089172236973484,0.9222540073822478,0.9198634128750127,0.9266418399677354,0.9199754434258072,0.9110852674145908,0.9142520228462869,0.8949312752410448,0.8456805065296265,0.7788548523843453,0.693579267295581,0.6068797303510949,0.5317857370688857,0.4583770140935144,0.4166999211620319,0.40990742784151024,0.45338912407585763,0.5180480930952385,0.5803822175803908,0.6354252244746816,0.6876463065797642,0.7422064785495981,0.7825705542780632,0.8091388237552546,0.8326274428218561,0.8004698607097276,0.7387225534474324,0.7145659590748248,0.711522082994605,0.6929636016643475,0.6491656587546402,0.6059677698445118,0.5500138453157981,0.4863999788943052,0.431187249930272,0.3759892509179603,0.32271741233571705,0.29570903091759604,0.32129772937788026,0.37541294948922843,0.43783520858118496,0.5148078104504856,0.6067433440550039,0.6837092815759962,0.7538277687554333,0.8002428652444529,0.8228246274812889,0.8247122158323803,0.8281254093872361,0.8161804001301323,0.8211720879599973,0.8217174045717304,0.8149645327973025,0.8148337481531489,0.8148372852927941,0.8170749299106284,0.8251804259598883,0.8192125945746493,0.815485747940841,0.8287646848157446,0.8360170509021287,0.8338531453588547,0.808829846901681,0.7698720237882344,0.774804303623196,0.8086686858429104,0.8579153148196896,0.8932049809369236,0.9042996258292266,0.8569283793594358,0.7380257854736345,0.6097553916288252,0.4892870165426846,0.37393046403004027,0.2573642695842566,0.14690485779210816,0.042411239615555374,0.0,0.07931207967949039,0.19073700229813806,0.3097779475025675,0.4181140659739957,0.5292482019715772,0.6360563312400949,0.6951528721946185,0.7015157206170133,0.6736421909241384,0.6314625400674698,0.5788129164264499,0.5253648577004721,0.46653003060244735,0.40055396992498293,0.34820770956511415,0.30858398730706416,0.2862004365492079,0.31073805444418,0.3773182024431443,0.45749655764667985,0.5382109920506717,0.6151190202981676,0.6932639474005913,0.7607574982651735,0.7988982580260573,0.800039829809005,0.8079340871102993,0.8147676575769536,0.8147868494295705,0.80884932801193,0.8023571813640809,0.8001507988831986,0.8108682513960912,0.8077771644450631,0.7996769563472022,0.8155633093222412,0.8323664111380427,0.8360720713798289,0.8360776807924553,0.833249816969011,0.8091572002804561,0.7764906202519977,0.7892404882096793,0.8240220402851675,0.8716050164469045,0.8803479700086889,0.8640808292558133,0.7602985327607414,0.6447949118684302,0.5313434647944222,0.41066524116514014,0.2983509753327551,0.17981558972738565,0.08093017790973844,0.04564851132981129,0.11907764096655438,0.236442199317068,0.3639493538080316,0.4773377810188637,0.5745314270796325,0.6479821453175933,0.6800180770746476,0.6554789945463866,0.6206221556607829,0.5690315815383293,0.524225898558853,0.4713273978652395,0.4159904518731854,0.3728149891021193,0.33081820451239485,0.30731760914027584,0.3270745012637599,0.3861711681850557,0.45612332502789865,0.5347539210193086,0.6123679694049211,0.6987614321729674,0.7644583709333372,MI
0.975313134898169,0.9613613903934464,0.9308834258781191,0.9258983276986197,0.947746170620539,0.9624900767049402,0.9620269032715572,0.953533033966794,0.9516332077258303,0.9430224135190626,0.9393844438688352,0.9423843159103098,0.9568858258696755,0.961691298950405,0.9627575364140657,0.9557035860615777,0.9367187566327331,0.9390909479182794,0.9408184672368929,0.9333309038096083,0.9232601604102237,0.9289392874299076,0.9303321142876513,0.93950514546511,0.9479595666601974,0.9156426106327342,0.8493476222475138,0.7752406807517345,0.7046462767706387,0.6265889920566179,0.5502275059919781,0.4804093653751056,0.433988814248754,0.4896294671924004,0.5635140566032881,0.6354267604153361,0.7121576140283485,0.7820895590471431,0.8558665477967389,0.9159755097962712,0.9450178386123047,0.9358291943735593,0.9078042330936014,0.8976282327994114,0.9204374675615321,0.9391498125282265,0.9410440536040083,0.940007893327925,0.9370308875462268,0.9338510675163767,0.9204865015503336,0.9180122997345641,0.9230930997831284,0.9326758889433793,0.9387500034155836,0.9337970423856585,0.9221869020001594,0.9230625748997279,0.9267405179941537,0.9186078846680037,0.9189057666123481,0.9278978527598971,0.9376586198713943,0.9467195372082371,0.9662742084272156,0.964943830941271,0.9129645302303124,0.842947241116337,0.7673787930933604,0.6970933496601601,0.61919199461912,0.5432381438363043,0.5158785948705282,0.5803201560595486,0.6588812875929082,0.7372761964209809,0.8092200451518308,0.8795444117638203,0.940678588682754,0.9715068514792833,0.9631163052611804,0.9333421323041537,0.9218438295671745,0.9477531217048705,0.9704528457363009,0.9704488089829488,0.9737152432543532,0.9730630946783181,0.9647620418064544,0.9592656623129503,0.9532899366445116,0.9623214180902033,0.974340611947824,0.9749661253620321,0.9640060492650429,0.9463304454933406,0.949291521293331,0.9525167305761055,0.9485756162968793,0.9510584071436845,0.9582049647151385,0.9749288680158779,0.9853979409489941,1.0,0.9818609452316069,0.9099594836867941,0.8342119438294473,0.7637217495907216,0.6860625763700938,0.6149277407518918,0.5399917700802273,0.46140975775923576,0.38433317486772767,0.31443418431173487,0.2371171050503993,0.15862281206794582,0.08763248823886882,0.05638633388868697,0.10488498862954287,0.18254568333580368,0.26116322919844137,0.3397813876560014,0.4183995461135628,0.49694560816544797,0.5667249198947191,0.6067118365246109,0.6751108020639389,0.7524286781428826,0.809575981853679,0.875676998943671,0.9367251276066795,0.939520795388002,0.929598673135007,0.9161557427813514,0.9116310102882723,0.9030012106412351,0.9057550709479472,0.9109785303767259,0.9040776792867529,0.9166197232189577,0.9283090145430757,0.9288522598411726,0.9272824789008558,0.9150762548125215,0.9135904720630963,0.9206529553074319,0.926407817962628,0.9324178133856822,0.9323321012438996,0.931147503539945,0.9260597400667809,0.8950997703001471,0.8764476633208285,0.8828527428230684,0.912675097832425,0.9158346003254276,0.8629069334217427,0.7927278594853435,0.722171233798423,0.6479715738446601,0.5766582034502514,0.4983789171669093,0.42033011022919053,0.3497822202667942,0.2740775973641605,0.19686971104127204,0.12704654890766642,0.06330394458423871,0.08056512236221991,0.14651664202551662,0.22419148150366341,0.3027999636136076,0.3791192854061356,0.449305277352001,0.5270957642752578,0.6056779773928997,0.6805318608898303,0.7517322471132186,0.8287751560860184,0.8937628476499346,0.9079952542952023,0.8978140912913428,0.8936154919326678,0.8841990091370766,0.8734255567684053,0.8780500688744544,0.878585424311993,0.8786071174696906,0.881805991260977,0.8914712038532855,0.8971720307756679,0.8902911063802457,0.8827605166000261,0.8787604765347303,0.8844612721791327,0.8927411162173964,0.8928377920778097,0.9003097641669375,0.9011626071208334,0.8847296166381682,0.8508522154790215,0.8472786990429886,0.8743500326575575,0.896853612992405,0.8647711635941602,0.7974264691451076,0.7233179564500714,0.6526416575294054,0.5761490990827915,0.5087343818167871,0.4487143950670298,0.38460428786083556,0.3217963096817462,0.2505691678195836,0.17231340343116197,0.09840885752198103,0.02936276031732188,0.0,0.05315056000055085,0.12311950699145924,0.1988013525126897,0.2774039758332425,0.3557061292904933,0.4271452285484938,0.5017302296058004,0.5803084944894434,0.6589266529470033,0.7375431943096,0.8150588114239721,0.8787094534435691,0.894988122556456,0.8902332570153908,0.8874076878276906,0.8794991650010664,0.8858184826287359,0.8953760205352439,0.9013317191358758,0.8978728152528992,0.9058774737718582,0.9188241186889816,0.9147247282321582,0.9087167000498486,0.8950217410954255,0.8938566432213388,0.8987829839266746,0.9112892906191858,0.9196425883281945,0.9202133455418398,0.9173317968647616,0.915048961554384,0.8916081847248514,0.8762134741681324,0.8925041375573353,0.9183278891200961,0.9307017471742924,MI
0.9999999999999996,0.9838558272712681,0.9809184151663155,0.9806893793792968,0.9622705423058444,0.8869833028522955,0.7861678188484382,0.6784763710298023,0.5781827066749656,0.61665772728557,0.7156472774967213,0.8080580220421978,0.8626348674349926,0.8745359244076298,0.8548800626058899,0.8054992011579034,0.8082274513705663,0.8489567120376664,0.8690397936653556,0.8634115165276741,0.8627492048924994,0.8747700957472859,0.8751096591557936,0.8751096591557874,0.8751096591557808,0.8751096591557754,0.8751096591557688,0.875109659155763,0.874961431616291,0.8653506201466166,0.8541888370026864,0.8539512004363412,0.8560685747918884,0.8722321838470122,0.8749135165520405,0.8643639841749291,0.8540521228174955,0.8463672992027864,0.8255925192098146,0.7858292913349003,0.7560783498986461,0.7816732564426472,0.8257237218541884,0.8709897059603842,0.9140221276799645,0.9476069330170489,0.9595825189151252,0.9582754696051787,0.9459563066594749,0.9581453279651857,0.9616066425918941,0.9769000721115586,0.9507425223525261,0.8653096451648636,0.7621393794239668,0.6538103292882842,0.5375465256320706,0.480447239781963,0.5723827686786875,0.6895231123676946,0.7976920064170163,0.8674831646109995,0.8939739547937822,0.8780079823084668,0.8360945166970759,0.8174143597149972,0.8534800690864808,0.8886731122031892,0.8962225439285003,0.8962703680173263,0.8962703680173205,0.8962703680173143,0.8962703680173081,0.8962703680173023,0.8962703680172961,0.8962696608156655,0.8949675686283483,0.8793854552002589,0.8751229176260482,0.8751096591555303,0.875109659155525,0.8751096591555183,0.8751096591555121,0.8751079846431642,0.8733995023986432,0.8522590940425472,0.8216557251791894,0.7829216976266395,0.7974175032919981,0.8437384435394186,0.8830927005800877,0.9234920121586887,0.9601801204709299,0.9792672048054789,0.9827454830455342,0.9987669585135177,0.9939695368698582,0.9812903659031571,0.9807263422274857,0.9633879586831737,0.8835566098633456,0.7790957581563527,0.6710192914835087,0.5801272107740605,0.6176752768009588,0.7235099350030074,0.8183919981309322,0.8762514755340765,0.8919318390905753,0.8701364841526393,0.8312785479348226,0.8217618679034477,0.8506743362969882,0.8533143408271129,0.8326294707283806,0.8049620461934692,0.794604884564234,0.7528521161334405,0.7426091182888097,0.7729748796796501,0.8165733619178028,0.8100676806093436,0.7274974897865971,0.6289678097048457,0.5473644096660308,0.45204725533079193,0.3428709187442349,0.2353475662430422,0.12954532773421645,0.033449560131732614,0.03283833265291225,0.1250741277760885,0.2405122937350921,0.34589031344854737,0.45443819862104595,0.5685917365575257,0.6698004090011076,0.7819332715149234,0.8744847050075748,0.9175612791042203,0.9187745958343667,0.9278036008659081,0.923113801813384,0.9114756781873505,0.9227345432561886,0.9037057339079406,0.865303826047124,0.8228744423703493,0.7785649189850776,0.7354467023111715,0.7056360797824901,0.7244425351920825,0.7665965968951447,0.7975304283219513,0.8169433980990641,0.8242659223662887,0.8243239578873478,0.824323957887354,0.8243239578873598,0.824323957887366,0.8243330442278212,0.8277469693195356,0.8434787753503459,0.8333644516812653,0.8257133872095506,0.8411358201708303,0.8454705492556394,0.8454846667491478,0.8454781111464671,0.8420489518407179,0.8259824333957302,0.8170848411845015,0.7778372281085644,0.7424926403556977,0.7482081562661929,0.7950621153812563,0.8210502888788467,0.7741800058938031,0.676780474972706,0.5760557080994233,0.463991880133082,0.3626911666200563,0.2473201041985975,0.14150539696857756,0.040917117405572245,0.02631606717909385,0.11502623384522792,0.219611599588438,0.3352395300367852,0.43692494970096485,0.5500615240475883,0.6600899406575618,0.7638754719146577,0.8653665438242109,0.8956400600819632,0.8879377872657725,0.8878270143737823,0.8929076631582396,0.9074282133019165,0.8925089478477259,0.8621433698359611,0.8189620190530773,0.773989289055875,0.7332328674920516,0.7003590709977168,0.7041757752345523,0.7418453400450278,0.7777316457514396,0.797188434797504,0.8034385864962803,0.8153329475596709,0.8210304721909596,0.8050400175101102,0.803165207422841,0.8031632490258387,0.8033010027308323,0.8126792038100858,0.8240649425935387,0.8243239578875987,0.8243239578876054,0.8243239578876107,0.8243239578876174,0.8243239578876231,0.8242081669656414,0.8149098590503927,0.8035943235482859,0.8079047532816315,0.7925837032795284,0.7434249285904242,0.722822854332072,0.7265571076453772,0.770283465511783,0.8159522124694076,0.7976871859563621,0.7194335827795153,0.6124419228722857,0.5111967737308047,0.3963303779018639,0.2934044203724899,0.18232888720465246,0.07730972867978991,0.0,0.03369682905678317,0.1302902003177242,0.24193380943116427,0.358676827424782,0.462296725011063,0.5728037068643581,0.6890249677382196,0.7908771624833291,0.8830113525193597,0.908537644286584,0.9116412839276018,0.9232496614921013,0.9252018308493675,MI
