0,1,2,3,4,5,6,7,8,9,10,11,12,13,14,15,16,17,18,19,20,21,22,23,24,25,26,27,28,29,30,31,32,33,34,35,36,37,38,39,40,41,42,43,44,45,46,47,48,49,50,51,52,53,54,55,56,57,58,59,60,61,62,63,64,65,66,67,68,69,70,71,72,73,74,75,76,77,78,79,80,81,82,83,84,85,86,87,88,89,90,91,92,93,94,95,96,97,98,99,100,101,102,103,104,105,106,107,108,109,110,111,112,113,114,115,116,117,118,119,120,121,122,123,124,125,126,127,128,129,130,131,132,133,134,135,136,137,138,139,140,141,142,143,144,145,146,147,148,149,150,151,152,153,154,155,156,157,158,159,160,161,162,163,164,165,166,167,168,169,170,171,172,173,174,175,176,177,178,179,180,181,182,183,184,185,186,187,188,189,190,191,192,193,194,195,196,197,198,199,200,201,202,203,204,205,206,207,208,209,210,211,212,213,214,215,216,217,218,219,220,221,222,223,224,225,226,227,228,229,230,231,232,233,234,235,236,237,238,239,240,241,242,243,244,245,246,247,248,249,250,251,252,253,254,Target
0.6952148321548788,0.7182619341197224,0.7262674837999736,0.7026799410730273,0.6593160720476318,0.6409779998151405,0.6209319537807394,0.5928234591561318,0.5511192213100462,0.4939599651158124,0.43709254202232617,0.3767268199348224,0.3171950474318711,0.2604727099187749,0.2002266564270563,0.1404511832810598,0.08382698957187809,0.025172091616855213,0.0,0.0434446249807707,0.10377961970201097,0.1629315396518434,0.2198785673242267,0.28029193291178933,0.34100820427699574,0.4017246961943225,0.46244110208247136,0.5229172352734214,0.5800177597879705,0.6389594694253898,0.6996544703341077,0.7603709622514343,0.8210831077591976,0.8784428598566154,0.882853297754455,0.837040859156251,0.8025358691151905,0.7948686068377148,0.8014815322430968,0.804284313934797,0.7782841370322554,0.7411195610979902,0.7001824963048813,0.6668371363377047,0.6718936137595561,0.69371318577562,0.7052283167418367,0.7128434708364577,0.7180207410273652,0.71727067849199,0.7065466687277633,0.6887017333909612,0.6711629815244963,0.681143124685003,0.6965751054372804,0.6870558279734859,0.66912626828464,0.6681895859596388,0.6956997355435405,0.7187968457902709,0.7293662277739619,0.6869114363718426,0.6272177428123921,0.5705971496359147,0.5108164676680055,0.45214919113333063,0.394828699484829,0.3342918825785336,0.2739404552199154,0.21719032161913568,0.1623114086860382,0.10826361110115981,0.05712683039093494,0.06302574468587499,0.1157832823087547,0.17595092754240424,0.2366662719583885,0.29722644887007854,0.354645162536944,0.41320071954266135,0.4738795633689016,0.5345960552862283,0.5953125472035551,0.6559068916767545,0.7135390453961956,0.7718599584023185,0.8325016857488496,0.8860165105544995,0.8755388219110127,0.8289279321902019,0.7990454540645682,0.787396937765801,0.787634846990177,0.7888217201275537,0.7608748593109189,0.721792985124702,0.6815980418047191,0.6573890504264197,0.6764654939009888,0.7035535702778943,0.7173195916338141,0.7249411726535213,0.7230039369494414,0.7205888370145925,0.7205361553967446,0.7205209815051208,0.7178169323330329,0.7034935091857745,0.702631007421597,0.7227412017170164,0.7340066035670323,0.7105612489668672,0.6569082481260556,0.599381369884328,0.5413915088372141,0.4835615055976744,0.42313724324651947,0.36589657470287695,0.30713057552516787,0.24644279860516463,0.18617544882229506,0.12944091307691727,0.0701154526759871,0.02403371948575106,0.04903720067215564,0.10720628601221618,0.16395271460381425,0.22423100367284457,0.28494686508079936,0.345662732695064,0.40596039939225836,0.46272354060069043,0.5221692433577196,0.582876639220585,0.643593131137912,0.7042534070437376,0.7624886642685663,0.8201616138317429,0.87227238696803,0.8591940602652302,0.8144833435053214,0.7880611473866891,0.7829207534619538,0.7853648104259815,0.7940841985376047,0.7993350818977988,0.7980010502822488,0.8123725619587476,0.8538177754442118,0.9062268533264228,0.9589139960195616,0.9890931218681493,0.9542098635663239,0.8955429951862495,0.8382551564614473,0.7795591762153082,0.7188736008535876,0.6581571089362612,0.5974427104183204,0.5393256480882808,0.5312976943667767,0.5825037194860728,0.64188431213951,0.6981356859093546,0.7410109987999164,0.7501274832611898,0.7396398554105307,0.7227501591338068,0.7284729940767246,0.7391695027289554,0.7395547936724872,0.7372999127669408,0.7368666568630692,0.7403561925389732,0.7396143723453684,0.7353490812185726,0.7252262811903902,0.7036655520097397,0.6783612480636724,0.6962901858466004,0.7375412234703872,0.7756735544611549,0.8044762638019285,0.8069146386317128,0.802857323190344,0.8129802105554556,0.8455976865521608,0.8953439189865304,0.9483251832995812,0.9979632885585279,1.0,0.9494567321068983,0.8902425676731811,0.8305782231918792,0.7739198128462971,0.7137517393510969,0.6530364409431376,0.5923199490258095,0.5316144332505515,0.4758877613249788,0.4789716992121055,0.5343238273350084,0.5938446783555654,0.6504842804740136,0.707815870305645,0.7485123003497766,0.7454870770491566,0.7230328717131026,0.6979590089874118,0.6870727298669242,0.702510176618354,0.7146518829697849,0.7090292760676125,0.6940218886251431,0.7085249219938272,0.7250879407216987,0.7362246931047849,0.7360300410588887,0.7289880259011943,0.7219748588679372,0.7085405204132992,0.6876747698459985,0.6998448185763698,0.7413867355351973,0.779955193550218,0.8128096299640863,0.825831250774812,0.8161964524867868,0.8101079440907861,0.8304214236215766,0.8760514188731505,0.9292046740536413,0.9771268718243675,0.9770005130996835,0.92347034500854,0.8658874264740783,0.8076006447662849,0.7469375215424515,0.6862327545454068,0.626918583738517,0.5700789365298307,0.5097238295568333,0.44900774740266725,0.38869039720314025,0.35393911048657223,0.39658217837834275,0.45711255361027536,0.5165895364611732,0.5733264913704664,0.6314438113211482,0.6804635177309503,0.7281943564397485,0.7438337851617425,0.7365074275315608,0.7170305142843137,MI
0.866009018056087,0.8571512310620334,0.8550724482582809,0.8496811006500818,0.8488183122970075,0.8485358736397056,0.8406213329464399,0.8295276290432324,0.8404027693749122,0.8598383960118602,0.8672067822102022,0.8636444561959554,0.8632891808185951,0.8599274583277378,0.8422942779911665,0.795474968094877,0.737652439065886,0.6807007683781058,0.6265807165569781,0.5679255093382805,0.5089331659794831,0.44994068711447155,0.3909482082494602,0.3319563376090381,0.2734990282934262,0.2197053136213839,0.1622340039407849,0.10325273417096731,0.04537241967458755,0.0,0.012282028387131771,0.06533439101912847,0.12008455215169,0.1789057105811115,0.2378981397579647,0.296632647187,0.35097099121751085,0.40763480924392725,0.46660441159181076,0.5254075376533517,0.5800701824274477,0.6363237767760856,0.69146979530263,0.7381562421420519,0.7914689163282348,0.844577860659878,0.8884155764831213,0.9062124231266838,0.9095359549474741,0.9073826584798853,0.8937114693876108,0.8647574238921801,0.8295151646226414,0.7915615336583258,0.7558661961593384,0.7199036727157574,0.6832690060975767,0.643961983510845,0.6160218654559996,0.6328158797091117,0.6737302144706726,0.7212049356365563,0.7638654683989053,0.8025559231939722,0.8342896135865029,0.8521529314885369,0.8605549112012977,0.8694134454326389,0.8746878588493036,0.8797569582818588,0.8801589780730911,0.8813427533595674,0.8819354593716088,0.8876838217051667,0.8908569367830982,0.8837566458694871,0.8632179310440206,0.8685219669615646,0.8904349712248637,0.9051747269081717,0.9098964470443874,0.9070412501821757,0.9064612993324476,0.8906189123221534,0.8436685902141189,0.7857152487790598,0.7309965024690533,0.6864936006393775,0.6304637796887924,0.5714862724921104,0.5125768731402108,0.4570732894032249,0.4016799513673531,0.34278003743311625,0.2837878415379552,0.22522680028843778,0.17131759870874086,0.11406263818890766,0.055189153541430835,0.006102411861897417,0.016205741510966487,0.07010342888696175,0.12402807921033071,0.18260902609235008,0.2416012421996433,0.30059372106465476,0.35958619992966623,0.4185786787946778,0.47757115765968894,0.5365636365247005,0.595556115389712,0.6545333119385284,0.7115288494494211,0.7656166299585753,0.8240574283081997,0.8785863771098515,0.9302554314649562,0.9669892677649284,0.9792357644117525,0.9793122232733572,0.9713082717324205,0.9480846424439132,0.9172199647842344,0.8794439174877887,0.8371928504696878,0.7980047839477803,0.7597594627383174,0.717387300091933,0.6770789654486559,0.6510141352954245,0.6699510501251601,0.7110134288239337,0.7545629026772408,0.7964303804933511,0.832427123177219,0.8563991224243982,0.8624034696046071,0.8572054616502546,0.8527436656766524,0.8489306908156334,0.8486417510132537,0.8443931211028454,0.8437952430330723,0.8572290086108362,0.8649815583887429,0.8663743602621418,0.869542211739743,0.8714028149408312,0.8769814523744947,0.8815756345900957,0.8834151195789087,0.8715653311068811,0.8449799809812254,0.810151684033798,0.7692191152865523,0.7235666162207591,0.6887126581257589,0.7068747018385929,0.746488638440293,0.7899674254024925,0.8290379678238978,0.8683506588762732,0.9082386524663676,0.9466642230916199,0.9739609858480122,0.9935748613348704,0.9970192084543973,0.9999258483823393,1.0,0.9743501854877342,0.9281102860504157,0.8747182402956856,0.8178024518884793,0.7611121881504858,0.7068034328441254,0.6480824472850881,0.5895090427831857,0.5562329148194612,0.5893090412923719,0.6311635457220782,0.6784948026399292,0.7308583572995743,0.7854634984513517,0.8412805347031697,0.8929663829398079,0.9210257420187825,0.9306412968145285,0.9323215991793296,0.9314169489388499,0.9258822051647416,0.91380646364548,0.8946214835272227,0.8924760879334471,0.909956025243199,0.911217368133402,0.9077629342446253,0.9028981278880842,0.9025140398028079,0.899445162885531,0.8936044408931866,0.8915978084273385,0.8835759182838233,0.8728161144388352,0.8606763080459302,0.835532701087926,0.7989899472396554,0.7608858553399959,0.7205912602323098,0.678171855603806,0.6531483308147321,0.6823569797853434,0.7217264910805211,0.7557952856865654,0.7911029677029536,0.8307107399156944,0.8662065843977186,0.8986230443489535,0.9198881277899388,0.9289173819207893,0.9281175104492717,0.9262935843380488,0.9096808862182918,0.8695051471699361,0.8226049104241667,0.7701388242120634,0.7169990316580642,0.6678654771096618,0.6137430552302466,0.557654298039811,0.4987070433756481,0.4400720511222923,0.40657237799893287,0.4491353295052085,0.5050686761728503,0.5599273456292595,0.6187714076518551,0.6776245550280969,0.7325865553941951,0.7884552908491388,0.8426739900782197,0.8728655833230282,0.8802476340164284,0.8830664283109094,0.8877689661536471,0.8870856529389354,0.8783612216857329,0.8594737282919357,0.8529011757958599,0.8643999024895305,0.86624313545262,0.8669657391067161,0.8741700786104348,0.878032700566184,0.8812072941494139,0.886392719475466,MI
0.8762368429996683,0.8762369508314527,0.8767044479530277,0.8809758543832946,0.8632769980048316,0.8561489251926706,0.8754661692878671,0.89563430087368,0.8723374745700867,0.7989296322927353,0.716988378472216,0.6359395749539083,0.5472923697658063,0.4664109095695257,0.37963491738109445,0.28974339513693526,0.20194438409692994,0.12164864120542429,0.043301372711718855,0.04661744148861868,0.1265059080307147,0.20308223471988085,0.27178340369617704,0.3441459548247219,0.4197301410665928,0.5008407966685209,0.5902292792886568,0.6787280460887035,0.7590273445609124,0.8463082561902859,0.9162530771709405,0.9197507386852157,0.899358522218682,0.8796548991195627,0.8634777016334683,0.8377631227084765,0.8016383197622639,0.7583079115792013,0.7110042786050179,0.6761083495698492,0.6818635515521034,0.7229124110639324,0.7769202515995475,0.839182337766986,0.8819741012837703,0.9075968688774911,0.9162840738382263,0.9148297180485767,0.902881829112482,0.9019856390942622,0.9019522082478635,0.8981224063610704,0.8942118456730968,0.890590185203568,0.8889196427423567,0.881943538572886,0.8749426328698391,0.8739394365071087,0.8811450909526308,0.8755012399103261,0.8609907858567865,0.8451918163133483,0.8611937210044323,0.8762251520806306,0.8628921667640932,0.7950584312356304,0.7308864413080445,0.6546392606212494,0.57068644875763,0.4810341506180915,0.39773434385894335,0.3138056049907616,0.2240254985709207,0.13756916461315827,0.057428972156848834,0.003977133891932105,0.053376025715423436,0.13496304749049348,0.21934704527192106,0.3091735397514328,0.3982344383838974,0.4788711154951324,0.5660612404331014,0.6557738123779429,0.7388137531318146,0.8225978030286099,0.8968255244995573,0.8991250621215867,0.8738277846778186,0.8573965852838747,0.8457153203085621,0.8240600814963868,0.78699523976944,0.7460723524810313,0.6950027802564955,0.6614567455339189,0.652196675711614,0.6844187374128274,0.7331193583193809,0.7928682667045486,0.8437096744915711,0.8745486038095893,0.8879430548852509,0.888867022319781,0.8815665051877746,0.8763138672363615,0.8762368429999512,0.876236842999957,0.8762368429999623,0.8762368429999685,0.8762368429999738,0.8762368429999801,0.8762368429999854,0.8762334750423504,0.8744283755560174,0.8580409958968569,0.8630398341668468,0.8777297918241702,0.881189256587886,0.8332705453029039,0.7540629753098733,0.6714046961449311,0.5841768523693467,0.5037052913728723,0.41474877144616396,0.3272409010983197,0.2468081909523765,0.15788966523635173,0.07164485790290143,0.0,0.008526395679049115,0.09270055682803702,0.18212429010240894,0.2634761223798363,0.3495918822026056,0.43947952416841574,0.529181803247708,0.611958265963592,0.6964259641386945,0.7836210151261369,0.8632711373188933,0.9152977675489082,0.9258522868423529,0.9589288457851928,0.9884161846554052,0.9514083608609218,0.8696751507555778,0.7798591091872749,0.6907662393021536,0.6100745234859999,0.5229909254838054,0.44274812814568576,0.4639999662127581,0.5515868273457303,0.6353939617551394,0.7185459135185845,0.8004556511563798,0.8749175113955872,0.9163953898357939,0.9164313968250073,0.9063671694008999,0.8991666982618587,0.9063740958163549,0.9071338973090866,0.9071344824780745,0.9071344824780687,0.9071344824780634,0.9071344824780572,0.9071344824780518,0.9071344824780456,0.9071474546892162,0.9099139639157068,0.9191675560258075,0.9200077818863277,0.91987502331577,0.9133089738011768,0.8916592176896647,0.8451348292772627,0.7916830725300334,0.7357476658138642,0.6974437209269049,0.7117300660780896,0.7561531248006177,0.8014053909258396,0.8398130272061115,0.8716759197075619,0.8927297948945823,0.9033568611179832,0.9214147083162967,0.9605991732881609,0.9883992504476882,0.9429209090343171,0.8648018324833817,0.7805014323908273,0.6988411929520195,0.6094005036175885,0.5383548368483437,0.5821763205543506,0.6690984699175686,0.7487800468102375,0.8277426149387721,0.8958017091778445,0.9187033366656467,0.9054801375446537,0.8918432671650494,0.8982598728210491,0.9128896913160607,0.91576010101757,0.9199549398664164,0.9200084989271184,0.9200275019836597,0.9232745256764119,0.9322205485531381,0.9328821115311752,0.9328825153762939,0.9329002487811775,0.936051614413504,0.9470312556785547,0.956541983598064,0.9486985556940328,0.9424795542873086,0.9136935819194889,0.8661197783330774,0.8075130410740141,0.7534736081509243,0.7143678903600801,0.7323075263428946,0.776665228259203,0.8215816124257338,0.8617350148195801,0.8875432575013518,0.9085784598319457,0.9277231424797048,0.9466238970731582,0.976376429301097,1.0,0.952957674786429,0.8747556162657846,0.7917226066168861,0.7081785317025797,0.6187467041330117,0.5623599349868971,0.6239911501397943,0.7082106856603356,0.7901582109262364,0.8684770852392387,0.9266315499560829,0.9438011263013153,0.9228869780962055,0.9033271097346676,0.9041505686715627,0.9179334895384144,0.9094703586652026,0.9071420549250391,0.907134482477757,MI
0.36869918993553585,0.38364398087101503,0.4209952405814492,0.3986562156936888,0.3197317638272199,0.2519101244292483,0.22500689529932538,0.1888068344013656,0.14586783529710012,0.1579989560026891,0.23552821399475343,0.3137735468067997,0.4022230677131413,0.4960088997867258,0.5898515432420919,0.6866426077603485,0.7688745601966258,0.7477319153001896,0.6590150323218433,0.5662890106790703,0.47250722436739045,0.39702333207309315,0.34761916742685317,0.302917516247474,0.24554571185897278,0.17897610252500407,0.11338166130785354,0.05638043687817684,0.05874285339949625,0.12438936608427298,0.20120978825557412,0.2769461582348123,0.3507656503412222,0.41890519556846684,0.448134397257405,0.4385925970417792,0.4316298649572754,0.4451523945379652,0.428308089140951,0.4110388046442235,0.4422001683806682,0.46237741587128744,0.40351506906469314,0.33088465068057227,0.35018988468828316,0.4347646970274728,0.527021164597981,0.6202425280386734,0.70767869939014,0.7062519214099121,0.6203108828746773,0.5297170385885959,0.44144999845578003,0.3738472136795097,0.3374275554885886,0.2846871444897212,0.21686746844783844,0.14212932525224353,0.07307012252978828,0.013251688259806382,0.0,0.0558640555533938,0.13480793356487264,0.2143643548375873,0.2858493284953698,0.3541168207656915,0.39160791041636966,0.38180004132416023,0.3681412120326184,0.37685914474138316,0.36160207678158374,0.3396025803757525,0.3700287845011141,0.3862384191830879,0.3218882586866674,0.2473440566914622,0.25378088416892064,0.3351992248958964,0.4331973162758598,0.533343553419406,0.6286887769101575,0.7238552652641002,0.7799140869126056,0.712622046440107,0.6213220573211204,0.5408040310449032,0.4586525864207023,0.38152547892364463,0.33110010708179916,0.3110194861420845,0.2603583803129488,0.19997833221906824,0.1270162973008535,0.06436870077857781,0.044125092915275,0.09212102113743237,0.16537571800985384,0.24597529567862342,0.3220543981979316,0.3897847878117988,0.4355724551995157,0.44363127733021246,0.4453591687305902,0.45182214260478437,0.42447257111431,0.4105785272677349,0.44430266072748936,0.4550275262191532,0.389433974999428,0.325294105704941,0.361914092392122,0.449785955594195,0.5432417003961445,0.6380976135143255,0.7277995601111815,0.7403270346019004,0.6558359200907327,0.5651497091522921,0.4730843164263878,0.39967575190625326,0.35844598451456555,0.3180562240736766,0.259609095648083,0.19453242799118264,0.12861091604235786,0.07943009696338854,0.12060128349267885,0.19015078127711016,0.2541859697379789,0.31697562358526166,0.3693435427571763,0.41229842529325134,0.47731403295101305,0.5630943990197197,0.6534580314025575,0.7460902902142919,0.8451546815307776,0.9364667373579514,0.963309066390889,0.8897180148092145,0.7956732627464886,0.7020678405470286,0.6071846593324082,0.5154395973513002,0.4678183328548482,0.5019409865347193,0.48258013424331603,0.4467645850747801,0.46361436758232055,0.48818178256127687,0.47816249605351735,0.47425398795947826,0.4717248292962726,0.44117266572277014,0.3797420719273623,0.30452295694509157,0.22811589246096875,0.15198523738885195,0.08874332015032849,0.1031181256035083,0.1663869194836225,0.23725515827698862,0.3000912642931135,0.3478857079158224,0.3826494217893832,0.45332062665168316,0.5354138179793158,0.6156445675143076,0.7084172356578966,0.802064131705934,0.8945451865549456,0.9773782000684754,1.0,0.9225201907383438,0.8276109148498718,0.7315092593865202,0.636574644375264,0.5404451307607065,0.44635060215009026,0.36075345879322995,0.3669091998536764,0.42711716140807576,0.4229331461271757,0.383990322753776,0.38515722820112397,0.41076042654627143,0.40161268871901834,0.4082209092982987,0.4234265613948702,0.41089777462225463,0.3604408315199372,0.29214758672830987,0.21768006297798537,0.1339924657381497,0.06192641201396665,0.039283271392567265,0.09684232760055589,0.16577466814217057,0.2365952189545466,0.3072974543868414,0.3589062109607759,0.3971394208117873,0.4581239853783867,0.533816417758568,0.6233217135238265,0.7212968282746026,0.8147659884881395,0.9082933227273386,0.9751727253697813,0.9364053802257364,0.8459216595691257,0.7507233299436613,0.6554242451873282,0.5611882608601306,0.46700679314688665,0.4400843146620006,0.49397603990507966,0.4960350664725375,0.46169669960088644,0.4604455939027987,0.47775568851619155,0.464114561884182,0.4665472783986948,0.48099244785042994,0.47240700825531,0.4251511591580943,0.35658113012999504,0.2830928025727548,0.2053581813508445,0.12602123369452456,0.08126830094884507,0.12367030477704666,0.18975109098743093,0.2530452407731545,0.3140887763165261,0.36082302800166555,0.40933810653003677,0.4830880504339723,0.5704211130228394,0.6576545528872733,0.7389226242512292,0.8305824803788262,0.9258129059786953,0.9646890244383726,0.8983046310212379,0.8032810689056102,0.70971301537214,0.6135445743311949,0.5193495624731768,0.4283149147684937,0.4022709199512895,0.46078457621099767,0.46429708413035553,0.42278064370427937,0.4054520370920285,MI
0.0,0.050263830238638896,0.1148125310592849,0.17725537294545424,0.24222353499929472,0.30567855963364665,0.3086743730936097,0.28418939458836867,0.31144086893617584,0.36769517269949525,0.4287811677271691,0.4940899556691485,0.5618902568811692,0.6198069678918636,0.6659806522429021,0.7004073465630427,0.7111099959968252,0.7113543175410075,0.7085091096558604,0.6931241759113116,0.6805469934451878,0.685194918319739,0.6880029110354733,0.6825303592912453,0.6671210698878904,0.6546904278279155,0.6562525629035674,0.6711226359370486,0.6709072831267273,0.6701518761418741,0.6472019602359862,0.6338193494345978,0.641224694083514,0.675066778646767,0.6885633350349569,0.6964514997016129,0.6745670407388529,0.6181324825419454,0.5826362050842095,0.6222784024254533,0.6910196156118322,0.765924723562214,0.7800808068408778,0.710561229343152,0.6414733811351416,0.5906724785782997,0.5620422109286751,0.5316804224433167,0.5148484125818915,0.474468612170839,0.42778964816445364,0.38335954078875933,0.3349226459401793,0.2833916468915876,0.22702960703823583,0.16948687622558767,0.11597476619886304,0.06534676834849384,0.03140989486858947,0.046266605045590437,0.09779086294354378,0.15707185016429515,0.22216718990731543,0.28688512530848365,0.35162933233329663,0.42135575368072664,0.48693089362773967,0.5473064912772947,0.6028800949981585,0.6496336212003007,0.674405249363907,0.6702748913061374,0.6575830857333846,0.650299204827151,0.6410622235382253,0.6276738204004213,0.6199257056406586,0.6295907045159761,0.6419777430995877,0.6482588794292685,0.6464792019133312,0.6530239740489567,0.659978090372533,0.6825623419370561,0.6826731127376795,0.666751452042027,0.6781453381512779,0.7170114713819677,0.7326330456103631,0.7241033177923917,0.6956548468142276,0.633604412759863,0.5939017983347292,0.6308874246341651,0.7016642986155464,0.7483806922229788,0.7019236155666275,0.6314903908211387,0.583528003821955,0.562822957143561,0.5301667807034709,0.49951834991193733,0.45816774661898885,0.4119684106911181,0.36697564891332113,0.3188502606156822,0.26580507099436046,0.21180197127953404,0.1596196640183265,0.10739537528888743,0.05282804114443218,0.01503396020092862,0.01994712577696589,0.07306311865240422,0.13639982884111013,0.19826084039596936,0.262810144358941,0.327958513411992,0.39455946986629,0.456903680307152,0.5254969591642973,0.5860609370044043,0.6398392661829131,0.6774753360090244,0.6878218117446107,0.6920972519041355,0.704508540650308,0.732822193230805,0.7396743059963187,0.7280580949468327,0.725160758416316,0.713810162757744,0.6874270666461053,0.6370999707321992,0.5753764021015126,0.5137371761749914,0.45220625913014123,0.3884304811710928,0.3219520691071178,0.25704726521013077,0.19125127040735834,0.123911030075885,0.06730324282771472,0.06833510107427454,0.11489744468560148,0.17217149285650724,0.2252383068043462,0.27916769553297893,0.3299900647074667,0.38004535658798444,0.4257386885831198,0.46920379504776166,0.5130358214900059,0.5489774333178015,0.5792502145050276,0.6046069364346596,0.639246352902036,0.7049462412583269,0.7760089594715234,0.8532585026029109,0.9329560338023011,0.9921965248556004,0.9780779277283418,0.91063599420693,0.833334709442229,0.7614785490623064,0.7129214897989924,0.7468608961559455,0.7593640351157596,0.7701905617996567,0.7626586621921312,0.740124418355258,0.7097412373782588,0.7128900729325129,0.7146912161634555,0.7014368894696899,0.6884569386516872,0.6813766305001163,0.6805035474630874,0.6723252655845096,0.6648909787933523,0.6547726997370686,0.6642496891520788,0.6731162597395681,0.6843588406945307,0.6948829784216122,0.7100710072068239,0.71420195003878,0.6991907228549212,0.6609576680220757,0.6105922914057185,0.5493645424061642,0.4833441897077082,0.4200668047382645,0.3568095305105552,0.2920120356651488,0.22716574442385218,0.1627210280953273,0.10084135790599946,0.0696683321422995,0.10472987642388887,0.15436008895850017,0.21480186661393308,0.27314997047784506,0.32536861617916113,0.374186322824301,0.4223428835118348,0.46861086965586196,0.5130543525128779,0.5506245354316353,0.569494719078389,0.5982193666156039,0.6315483200697487,0.6922804494548054,0.7632965069688515,0.8350486864127447,0.908764245514867,0.9781114712816603,0.9999999999999998,0.9441377736504466,0.8723538445795558,0.7947268924011006,0.7246042257593384,0.7185174628164284,0.7438374006697461,0.7300325790308257,0.7207271986505968,0.7050076940214491,0.6723386381473508,0.6764356979718009,0.702611691182877,0.7119114052983433,0.7046488004182188,0.6972617350801669,0.6843458078729168,0.6928156124167353,0.710883268133373,0.7159624216857037,0.7160201646302731,0.7162704873906287,0.7261438506788973,0.746829108467433,0.749141333656022,0.7465826564483471,0.7456418255553341,0.7407367306641282,0.713187644004053,0.6704260226744716,0.6126254665185897,0.5513921729027655,0.4956650675710781,0.4819572054130854,0.43966991796002075,0.37739628578909157,0.32456858712529235,MI
0.056717959103204985,0.0917711170394302,0.0639218113442297,0.0647523466327411,0.12612070792806662,0.14814747521530136,0.10209073244834044,0.06752658454391658,0.12210665758392669,0.19226016959403358,0.202776953085132,0.2262682804751408,0.29759756918813474,0.35695644645996816,0.3617385688048127,0.33940161764028653,0.33806160940329577,0.37447826291387365,0.3840133323735351,0.43882203373831286,0.5238036070544221,0.6141102154452387,0.7084852976717069,0.7776043071731653,0.7158706005095374,0.6119535390986106,0.5136545965151245,0.412833969864826,0.31605650790946016,0.2255653847408705,0.1538430456258575,0.10472655979493606,0.07765907638270564,0.062003525434011886,0.10143055102048093,0.17065117978284539,0.24666910136740894,0.3205065307192505,0.3502834621388127,0.3381709365365073,0.31771810504940645,0.33916421830854215,0.35163063628161373,0.3955777433661085,0.48016108322002204,0.5673001974323202,0.666118117819968,0.7621552989797507,0.7526382279493933,0.6595271484388499,0.555873542860587,0.45674390417302635,0.35889539925506875,0.2677581312884538,0.18371207858133598,0.12609010827613742,0.09748114703162458,0.0703711352767562,0.07743655580143227,0.13489341874507454,0.21244001010244684,0.2895524465187622,0.34296950971357654,0.3521679598869618,0.33710905693588433,0.3489421035666602,0.3895663238760281,0.41757940118182124,0.48865996672651657,0.5750486250346774,0.673977753832117,0.7696457649203912,0.8182441303808381,0.7405943132199297,0.6421494557924758,0.5425969393518129,0.4460074860255574,0.35166089486312613,0.2732104738989607,0.2343945808893897,0.22386471992662837,0.2052884556022374,0.23694450882643214,0.3038595619171234,0.37700921253144704,0.4171199732628954,0.3931122081390843,0.3572610102026794,0.3310690001860186,0.34243103257584817,0.3484760659252748,0.4015469940534473,0.493556824731872,0.5835366470611831,0.6718038296268545,0.6691497365972987,0.5754268915385921,0.47589187085516804,0.3768401689903871,0.27820390240883497,0.1883236239834758,0.11619226187620524,0.07250535232108146,0.03605830983825031,0.0,0.012239894239142624,0.07636978185947063,0.14855908656988137,0.20305553895116546,0.19543613130733428,0.17896721131126214,0.17762164335796937,0.2140520017006824,0.26569131467182494,0.3011362630773702,0.3744082128970998,0.45752876663560693,0.551502710734606,0.6452509987486579,0.6638789663197797,0.5799842079854607,0.4826261282851467,0.3806905242579772,0.2907642876215104,0.2945235743037393,0.3875304522771146,0.4881416681747919,0.5931505977822158,0.6964315552486595,0.7895150523425132,0.8288246199421625,0.7607752667772854,0.6651075769688894,0.5684849864348591,0.47363814497623635,0.38515402785222985,0.32603675576210445,0.28720135171013306,0.23807445573735353,0.22533285971073513,0.23964095032049304,0.2538884044737362,0.2186410233897731,0.1495990297063794,0.0758786225272674,0.04193441334705161,0.074944017520993,0.11510163532806339,0.15965049901264017,0.2362874399544126,0.3371788218529126,0.43629055896639923,0.5366600724156314,0.6343856514074164,0.7337850376233175,0.8273658611419141,0.8702853022881158,0.804090587299958,0.7063084027937934,0.6036324539162565,0.5120592503855301,0.4274847583331689,0.39412073240720047,0.3888766949850382,0.3910607209867547,0.42481208725064734,0.4598438945207459,0.46747504393953476,0.4140318509578269,0.34082719580456833,0.27590090019796,0.2586622505114424,0.28048257707138036,0.29791218820119214,0.3627436850007095,0.45595100865266525,0.552462054392324,0.6534362721630722,0.7426086345472127,0.8246069159790852,0.9153074456440873,1.0,0.9907412015876487,0.9052083486563922,0.8166416774592204,0.7190407401868066,0.6246303649650478,0.5362616525198971,0.461604135557135,0.4267633295125053,0.3872076417833037,0.38287687264090753,0.3958830107517941,0.3833962683637133,0.3323199964326833,0.25616086973238605,0.179379657767488,0.12274626194716376,0.12859879354313475,0.15548256775328495,0.19242505036434987,0.27032262329319523,0.3611907575729185,0.46043431435139714,0.5593175245183413,0.660671567696737,0.7613185593233984,0.8588175518942816,0.9282370937103974,0.8853627100764223,0.7900076691081193,0.6922440815941817,0.5962169952927128,0.5063367981389697,0.42491075879512663,0.3940167954729017,0.37568390560211085,0.36862291001322656,0.38988550154863777,0.39583062856627094,0.367730205732153,0.3000962342661522,0.22445361413027154,0.15222126563089944,0.11052230887741832,0.13026674545360106,0.1598505053636532,0.2203377043178858,0.30439027730941315,0.3897326339649356,0.4843296067691021,0.5837672185946678,0.6833555637800823,0.7816103672521533,0.8810305445789384,0.9612077680139084,0.9371513285081514,0.8456343218585505,0.7461540152134392,0.6504051011745065,0.5580768118506296,0.47315357680601755,0.4292357009729919,0.40572602607827757,0.38532335833945663,0.4060662879290289,0.41262040899766217,0.37940190956220454,0.31331785198456985,0.24150519510705104,0.17664977976581464,0.15606674852332358,0.17875768761361321,0.20955263009190173,0.18182858361018894,MI
0.6913801960704173,0.655531708483081,0.6069644563748346,0.5491449502779042,0.5050633064556389,0.47062309666458857,0.4267099953677491,0.37705309015670907,0.3267883486992247,0.3172682693788602,0.37900076229432433,0.45739827795511934,0.537768956833037,0.6193962701822506,0.6879652718184461,0.7078332515570809,0.69592068828714,0.7049593082776358,0.7179399828092035,0.7199277211187713,0.6839212955989298,0.659030023723649,0.6988301066294105,0.7443582874479651,0.7670588946835355,0.7452775335072883,0.6665876163493383,0.5715342388533937,0.4718401299680206,0.37515143585965394,0.27151453322352426,0.17144140775683625,0.07766363289597611,0.04143737881623677,0.10928761942611853,0.1879816243060699,0.2713842034735747,0.35536176211794035,0.44980913828038194,0.5536141965724695,0.6560070895507364,0.7525606446450366,0.8515081505596254,0.872757222966978,0.7974684313352995,0.7421015722138513,0.7004603793624706,0.6625679759688505,0.6133964306146737,0.5581311275539207,0.48781477706404375,0.41780030856947326,0.35435616965705186,0.34288217456926073,0.40065931256036635,0.47789478936623775,0.5643865566683355,0.6417985175907157,0.6948520815405828,0.7029225738612186,0.7002732557316498,0.7058209956469961,0.7161122442614689,0.6993208205558679,0.6613481687140408,0.6612981997919198,0.7104778354587815,0.7518721065955187,0.7590127965487501,0.7075390360036384,0.6167792336351714,0.5183443388913418,0.4220095408131044,0.3188783465620426,0.21512676598741343,0.11843681027711872,0.024399862098106073,0.0,0.07806119146367618,0.18127673659757115,0.2797269297822431,0.3795822051105904,0.4840222714334066,0.5879895573782328,0.6851053309007313,0.7860088757615338,0.8716722561238301,0.8500310110235108,0.7810575794053418,0.726932528916949,0.689861306217773,0.6529546116269973,0.6037006096224034,0.5452185952508661,0.4750822184742265,0.4030462945377653,0.342185141965911,0.32176299180202084,0.37570795105921895,0.453489999098186,0.5374986953259271,0.6203149089681468,0.6865511316002642,0.7100894130536888,0.7051331302018249,0.7147474518657553,0.727034275548861,0.7187274229776621,0.6780366399035531,0.6617350121860781,0.7062631914636395,0.7486727588700708,0.7638856031244439,0.7353172705810009,0.6424330752369873,0.5512443086631169,0.4666171713299303,0.3721550558832687,0.27637690293081607,0.17670366967813478,0.08207987532018435,0.026318618630442714,0.0893892596442043,0.18482526659369158,0.2877243693632172,0.3901124297859171,0.4866766573347032,0.5902519963179353,0.6947833236169487,0.7992302162129212,0.8861375964339235,0.8561829915023398,0.780204745168013,0.7252809775776299,0.6913772454089484,0.6528741652401187,0.6053705979161461,0.5820193030268723,0.6329543652990459,0.679792323727485,0.7194709100065755,0.753749985186325,0.8132937371770279,0.8953608824637691,0.9786411300376161,0.9903660572047681,0.9079721936139864,0.8104815161505443,0.7104713860723231,0.6060430276814233,0.504422900493692,0.42621353796797345,0.46343315566810395,0.5601285393690103,0.6565608596139476,0.74675429948894,0.7991131533151998,0.7947501608082825,0.7688582270035,0.7234801853935724,0.7068876821325889,0.7468196289600646,0.7621288745721626,0.7505787675293558,0.7360199401683798,0.7440536457177511,0.7434918969429516,0.7032771569433016,0.630732276712475,0.5510563280782874,0.4700035313174178,0.39529771928744695,0.3845657274661214,0.44558984122469747,0.5161591641091829,0.5837989392007839,0.6399417252691078,0.6879291718748222,0.7230509788719999,0.7632358024049954,0.8309590049062352,0.9158332020037416,0.9917347412448583,0.9747379060896144,0.885821212363777,0.787033784878941,0.689617701108669,0.6031821022862522,0.5065321316506901,0.41655794708783134,0.44250542988931185,0.5371096918501979,0.6342471643624787,0.7291016808969617,0.7905858617497872,0.794984025491007,0.769644745106788,0.7241306685402324,0.7058703189947302,0.7387294387115058,0.7500374383718773,0.7378308772601807,0.7318247167643597,0.7368460147006617,0.7164738093336784,0.6552399403366724,0.5755176464682052,0.49564341814277957,0.4181572925143544,0.38931456136663356,0.4457269006750928,0.5127067970774084,0.5815438959513386,0.6411594427686498,0.6890962888461567,0.728075561946234,0.7675011206197355,0.8259177980041379,0.9081899895144903,0.9906981053893225,1.0000000000000002,0.9198560984087034,0.81940048578288,0.721997304937382,0.6209709695774952,0.5175189294646185,0.46351478241411637,0.5322479238498827,0.6299101623926417,0.7257592004986468,0.7971228422739289,0.8091856033707934,0.79268164115438,0.7568245244991767,0.7127867277781628,0.7182001404096379,0.7517457435008927,0.7602182365867052,0.7448030533331775,0.7372234036941967,0.7443251512194382,0.7426772105662605,0.6927879808370965,0.6228051586384296,0.5423365042988253,0.46281006842154215,0.38536822312386243,0.3759765625409326,0.4393452872950374,0.506947739964986,0.5629485338125175,0.6012902460347893,0.6539032223243542,0.6967090012663018,0.7286337048880729,MI
0.36869918993553585,0.38364398087101503,0.4209952405814492,0.3986562156936888,0.3197317638272199,0.2519101244292483,0.22500689529932538,0.1888068344013656,0.14586783529710012,0.1579989560026891,0.23552821399475343,0.3137735468067997,0.4022230677131413,0.4960088997867258,0.5898515432420919,0.6866426077603485,0.7688745601966258,0.7477319153001896,0.6590150323218433,0.5662890106790703,0.47250722436739045,0.39702333207309315,0.34761916742685317,0.302917516247474,0.24554571185897278,0.17897610252500407,0.11338166130785354,0.05638043687817684,0.05874285339949625,0.12438936608427298,0.20120978825557412,0.2769461582348123,0.3507656503412222,0.41890519556846684,0.448134397257405,0.4385925970417792,0.4316298649572754,0.4451523945379652,0.428308089140951,0.4110388046442235,0.4422001683806682,0.46237741587128744,0.40351506906469314,0.33088465068057227,0.35018988468828316,0.4347646970274728,0.527021164597981,0.6202425280386734,0.70767869939014,0.7062519214099121,0.6203108828746773,0.5297170385885959,0.44144999845578003,0.3738472136795097,0.3374275554885886,0.2846871444897212,0.21686746844783844,0.14212932525224353,0.07307012252978828,0.013251688259806382,0.0,0.0558640555533938,0.13480793356487264,0.2143643548375873,0.2858493284953698,0.3541168207656915,0.39160791041636966,0.38180004132416023,0.3681412120326184,0.37685914474138316,0.36160207678158374,0.3396025803757525,0.3700287845011141,0.3862384191830879,0.3218882586866674,0.2473440566914622,0.25378088416892064,0.3351992248958964,0.4331973162758598,0.533343553419406,0.6286887769101575,0.7238552652641002,0.7799140869126056,0.712622046440107,0.6213220573211204,0.5408040310449032,0.4586525864207023,0.38152547892364463,0.33110010708179916,0.3110194861420845,0.2603583803129488,0.19997833221906824,0.1270162973008535,0.06436870077857781,0.044125092915275,0.09212102113743237,0.16537571800985384,0.24597529567862342,0.3220543981979316,0.3897847878117988,0.4355724551995157,0.44363127733021246,0.4453591687305902,0.45182214260478437,0.42447257111431,0.4105785272677349,0.44430266072748936,0.4550275262191532,0.389433974999428,0.325294105704941,0.361914092392122,0.449785955594195,0.5432417003961445,0.6380976135143255,0.7277995601111815,0.7403270346019004,0.6558359200907327,0.5651497091522921,0.4730843164263878,0.39967575190625326,0.35844598451456555,0.3180562240736766,0.259609095648083,0.19453242799118264,0.12861091604235786,0.07943009696338854,0.12060128349267885,0.19015078127711016,0.2541859697379789,0.31697562358526166,0.3693435427571763,0.41229842529325134,0.47731403295101305,0.5630943990197197,0.6534580314025575,0.7460902902142919,0.8451546815307776,0.9364667373579514,0.963309066390889,0.8897180148092145,0.7956732627464886,0.7020678405470286,0.6071846593324082,0.5154395973513002,0.4678183328548482,0.5019409865347193,0.48258013424331603,0.4467645850747801,0.46361436758232055,0.48818178256127687,0.47816249605351735,0.47425398795947826,0.4717248292962726,0.44117266572277014,0.3797420719273623,0.30452295694509157,0.22811589246096875,0.15198523738885195,0.08874332015032849,0.1031181256035083,0.1663869194836225,0.23725515827698862,0.3000912642931135,0.3478857079158224,0.3826494217893832,0.45332062665168316,0.5354138179793158,0.6156445675143076,0.7084172356578966,0.802064131705934,0.8945451865549456,0.9773782000684754,1.0,0.9225201907383438,0.8276109148498718,0.7315092593865202,0.636574644375264,0.5404451307607065,0.44635060215009026,0.36075345879322995,0.3669091998536764,0.42711716140807576,0.4229331461271757,0.383990322753776,0.38515722820112397,0.41076042654627143,0.40161268871901834,0.4082209092982987,0.4234265613948702,0.41089777462225463,0.3604408315199372,0.29214758672830987,0.21768006297798537,0.1339924657381497,0.06192641201396665,0.039283271392567265,0.09684232760055589,0.16577466814217057,0.2365952189545466,0.3072974543868414,0.3589062109607759,0.3971394208117873,0.4581239853783867,0.533816417758568,0.6233217135238265,0.7212968282746026,0.8147659884881395,0.9082933227273386,0.9751727253697813,0.9364053802257364,0.8459216595691257,0.7507233299436613,0.6554242451873282,0.5611882608601306,0.46700679314688665,0.4400843146620006,0.49397603990507966,0.4960350664725375,0.46169669960088644,0.4604455939027987,0.47775568851619155,0.464114561884182,0.4665472783986948,0.48099244785042994,0.47240700825531,0.4251511591580943,0.35658113012999504,0.2830928025727548,0.2053581813508445,0.12602123369452456,0.08126830094884507,0.12367030477704666,0.18975109098743093,0.2530452407731545,0.3140887763165261,0.36082302800166555,0.40933810653003677,0.4830880504339723,0.5704211130228394,0.6576545528872733,0.7389226242512292,0.8305824803788262,0.9258129059786953,0.9646890244383726,0.8983046310212379,0.8032810689056102,0.70971301537214,0.6135445743311949,0.5193495624731768,0.4283149147684937,0.4022709199512895,0.46078457621099767,0.46429708413035553,0.42278064370427937,0.4054520370920285,MI
0.4512804657823767,0.5079544794411671,0.5591367844824534,0.5605875684307157,0.516095312267073,0.4636497837103922,0.4186251389665344,0.4104143102844192,0.4588653052853403,0.5218704659216112,0.5830959085984045,0.6538844830444571,0.719060400124656,0.7660238764026271,0.7664585408437413,0.7484317619958373,0.7506393367624357,0.7754079604418472,0.798944256613037,0.7903427319738282,0.778476166555993,0.8088386855043205,0.8309721707715289,0.7817374319065883,0.6970688511188384,0.6072442970062338,0.5185976679496326,0.43137014722864564,0.3445977707980429,0.2554294886445837,0.16762324463022216,0.08582617786913493,0.07271141384061253,0.14966170275243307,0.23613604370019992,0.32817878656814814,0.42064192953277846,0.5131054403634844,0.6055689511941896,0.6979353346068532,0.7828763737692194,0.7943979745806008,0.7229843681168847,0.6535091830260135,0.5983899566173753,0.555292914928957,0.5064614323257716,0.4578199292736721,0.41782276944314967,0.4293001146041905,0.48853819970184975,0.5581557860378491,0.6237656875978755,0.6832461876529615,0.7445993447300286,0.7656903938760616,0.7443116066036856,0.7308143299118385,0.7404244140736648,0.7621540622462072,0.7666754683189171,0.7501823679840415,0.7698484339192503,0.7988464601419297,0.758746683265579,0.675599671084416,0.5857192853996204,0.4986967565821908,0.40952180473947253,0.3201774186117764,0.2333873767551503,0.14809837668652148,0.07224962149101188,0.0,0.022245605720767725,0.10507262623521241,0.19698039350263863,0.2894384557895794,0.3806020989085722,0.4665145046867293,0.5578413532223133,0.6502902190755527,0.7405605490309998,0.7959767121656617,0.7440486760393686,0.6654902593274833,0.5954388927798427,0.54119781150398,0.4982778605770596,0.44904213879040655,0.4004898749292719,0.3674826146354505,0.39815730572298913,0.46212170574206424,0.5310323267563727,0.6006201719836349,0.6715069485590689,0.7274698622682182,0.7407053935990245,0.730371512416968,0.7350686923949162,0.7171733361781142,0.7069465357080621,0.7135114814831464,0.7124094581005233,0.7400016737700373,0.7809419240843108,0.7829715919408285,0.7122843754123248,0.622118049660381,0.5356035087297285,0.44586661190037213,0.3578904491167113,0.2698906553436503,0.18238609505971282,0.09494537735511999,0.03037382323252824,0.06799219086852415,0.15824720004094583,0.25064743390963196,0.3396263713572626,0.4268780915364482,0.5191027474245816,0.6115316490082828,0.7006569070870835,0.7539844889910389,0.7030523717208194,0.6342413955104799,0.5804233235877078,0.5385137815148006,0.4912328363722519,0.4426133347757807,0.40419745767343074,0.42539170213159594,0.4765751582873531,0.45159182957245825,0.4396545181662562,0.4874852381312119,0.534370383375114,0.578103582151971,0.622581363355094,0.6889837390330752,0.7667019014701021,0.8490352376667493,0.931509169895406,0.9835908629094853,0.9325746020905722,0.841463313854962,0.753052982278185,0.6652788802334649,0.5730012115667983,0.4864943218071488,0.47700637145726843,0.5600427145824253,0.6460852372303297,0.7348447054813535,0.8145683149559785,0.8408910244730899,0.8088705528073129,0.7684888170545897,0.7371001043336057,0.7385443585910466,0.7347309187041354,0.758570549616253,0.7709605113035366,0.7544555383063855,0.7617593374915336,0.7639664543775792,0.7280329429527358,0.6646149448342814,0.5963482499074154,0.5269487636861522,0.4560341679350842,0.40532295814521657,0.42973489272541066,0.4785112733176641,0.5249082471931109,0.5688592941511698,0.6263066333433783,0.7035555912917194,0.7850025204725651,0.8682842056638437,0.9527794173646443,0.9999999999999999,0.9480202171319233,0.8639283540639083,0.7784392601085482,0.6871978859077924,0.5949824999963856,0.5287758154428025,0.574959654364061,0.6645437421120889,0.7508367678933409,0.8311876119661431,0.8592880137993085,0.8262171817572944,0.7903472513548545,0.7805187010928526,0.7977409769158835,0.7829445929918585,0.7613920237195194,0.7584581649231826,0.7794594477709923,0.7972011989691513,0.7732402244870119,0.7169953723508157,0.6500751953711145,0.5788726601344364,0.5065758661958523,0.4543088391661968,0.46855939817330305,0.5178128523980791,0.566158775031749,0.6093180610226213,0.6626419364397901,0.7317139343948932,0.8112187733960404,0.8943142984606965,0.9723100863561357,0.9781838258920771,0.9009938509734733,0.8148456879107887,0.7254376461904765,0.6345179326926956,0.5959892449877436,0.6692473189862672,0.75860969651481,0.8399586824403616,0.8857769072327494,0.8627719639350057,0.8271094153779787,0.8056857206912743,0.8240343695639464,0.8199815652762793,0.7956856664773563,0.7740947169991926,0.7793466371172578,0.7986990199219194,0.7876740661273661,0.7392002948962658,0.6716443446205559,0.6003837970523097,0.5314565460927093,0.4683011450868587,0.4454600869498716,0.4923701459769737,0.5566447685337391,0.5847404459471174,0.5733023963561331,0.6089473123075585,0.6616344994437341,0.7335589042295362,0.817960569961835,0.9050543056628767,0.9773696277708771,MI
0.17462748021087254,0.24132102103035885,0.30476195262898315,0.3717728088397894,0.4434210702331122,0.49873389548246033,0.5483125490366727,0.5782317411033226,0.5569289242263236,0.5542859680177101,0.618215548143902,0.6915909619176863,0.7641110248994563,0.8330676283482383,0.8821886204326956,0.8427361920024001,0.7815436357910681,0.743301767844583,0.7178081260203582,0.6732477553320546,0.629567627814057,0.6086054540271473,0.6072743159658955,0.6187658307948232,0.6095686882728786,0.6132566843384075,0.6335088975366858,0.6379414650716999,0.6275311683240945,0.6399892919471186,0.6511669243022562,0.6282056030715193,0.574752129431864,0.5121802112643787,0.4422634211105482,0.37214207493300594,0.30112578169612364,0.22901251439512277,0.15963643000557015,0.08659489422561356,0.016571531849470467,0.0,0.059004048322403635,0.13117799000529323,0.20040019905262457,0.27317368917441825,0.3465670707710507,0.4169675440621083,0.4864026295588367,0.5513237054271247,0.6218546758090233,0.6910862548468877,0.7638656778982806,0.8345934451082386,0.8973267620105592,0.8864035266354957,0.8228800619618291,0.7658061152837754,0.7388904695302221,0.7109194841441422,0.669015330306159,0.6417010815299884,0.6220949552664159,0.6069396364516262,0.5904927346931748,0.583181380054252,0.6078896976253443,0.6231820419653438,0.618439942361193,0.6354424021535163,0.6446387622588028,0.6225557489408693,0.5645364918172546,0.49492038433397906,0.42527306642323853,0.3535366470575028,0.2890935723171488,0.2241920393806332,0.1549979305260462,0.08407844574040485,0.020311432248360184,0.019926913076963093,0.08544524480058968,0.14669689524423113,0.20039793530504385,0.2662186150222257,0.3394541616411884,0.4099318616265973,0.48070632777986383,0.554143656626845,0.6271100783517507,0.6964091990801393,0.7687349511230317,0.8416870049475167,0.9093025706726428,0.9329604604751085,0.8770829949418508,0.8123139369892509,0.7624915682706503,0.7474713834411659,0.7174059970202149,0.6752844100059885,0.6489639804640432,0.6269025558005794,0.615659840350363,0.5951362303489514,0.5885776976289778,0.6106366991831442,0.6142578421820235,0.6277472787689746,0.6463302723902413,0.6333249598300759,0.5791199027218763,0.5076064817182993,0.43827073734257554,0.3679435497054136,0.2976822029346928,0.22797022389501093,0.15654234629892,0.08597479135159036,0.01956878571708992,0.007716786918777863,0.06841224255733963,0.13877337117615168,0.2093304283711545,0.28274553725067236,0.35625831098753996,0.4297710847244088,0.5032820837530936,0.5761662859314884,0.6454218665485061,0.7178730715793671,0.7911511547984476,0.8604536692333509,0.9016585607418404,0.857325029358496,0.7955434230991898,0.7565031943401268,0.7488739716603419,0.7137662600005217,0.6686590657559988,0.648072422620869,0.6635555273324025,0.6954680516356633,0.742488655543825,0.7719138035197235,0.7881305635460032,0.8418380287101257,0.9065126954695717,0.9603513883561123,0.9492029036484084,0.8825975816338458,0.8128497384231848,0.7402727711146364,0.6710373568752954,0.5986033408531122,0.5297371901362604,0.4636182906073067,0.39468014111175903,0.3226390638056848,0.27330802936180937,0.31564725017512346,0.3860414135880948,0.45618334002588495,0.5267935452535111,0.5945895492139841,0.6467117286823836,0.6638531328513346,0.6562122714529575,0.6360688318554426,0.6301369387048448,0.6096285993597574,0.6132038415446144,0.633481555979188,0.6487657706007006,0.6710583634491278,0.7014416104018111,0.7444696208692305,0.7687413561445022,0.7879587606609006,0.8484009654986227,0.9161245534619493,0.9774987600624387,1.0,0.9534661356734591,0.8926734974902459,0.8206343229087116,0.7471276905325424,0.6736149167956762,0.6001022871015769,0.5268198323453006,0.4569817610111557,0.38548879498908645,0.312087673574766,0.2519607130170996,0.27909894407135755,0.3499244341357672,0.41927175756028395,0.4910912731018973,0.5595370362807681,0.6219111732486311,0.6566469376399307,0.6638902291731779,0.6460130095319514,0.6420301805007116,0.6405618297504887,0.6164894524296012,0.6037754807493347,0.6225768942866365,0.633120617662704,0.6534113514233295,0.6715389272448669,0.7103507759925884,0.7471509162592185,0.765887092763923,0.8090903550198081,0.873341902078451,0.9374452468563248,0.9782796241591163,0.9408988162782068,0.8729449353313947,0.8022320708016086,0.7292709840027725,0.6599058433182758,0.5877156488049391,0.5142803975933594,0.44341299498205594,0.3730255532068037,0.30083032566786266,0.2696675918034413,0.3260201869660743,0.39730263448547226,0.467133796656889,0.5402902052290239,0.6093647226325296,0.65531186756307,0.670295132481765,0.6639613003338021,0.6486902515584063,0.6594879023676639,0.6537592941896642,0.6344157939619881,0.6302828849844786,0.6369613996516612,0.6259782313209359,0.6307816817579921,0.6500309424035511,0.6952303072857642,0.7364458934233893,0.7622900368282881,0.8083985126245996,0.8722173028203675,0.9301263946648848,0.9325551656434194,0.8766265055562925,MI
0.8762368429996683,0.8762369508314527,0.8767044479530277,0.8809758543832946,0.8632769980048316,0.8561489251926706,0.8754661692878671,0.89563430087368,0.8723374745700867,0.7989296322927353,0.716988378472216,0.6359395749539083,0.5472923697658063,0.4664109095695257,0.37963491738109445,0.28974339513693526,0.20194438409692994,0.12164864120542429,0.043301372711718855,0.04661744148861868,0.1265059080307147,0.20308223471988085,0.27178340369617704,0.3441459548247219,0.4197301410665928,0.5008407966685209,0.5902292792886568,0.6787280460887035,0.7590273445609124,0.8463082561902859,0.9162530771709405,0.9197507386852157,0.899358522218682,0.8796548991195627,0.8634777016334683,0.8377631227084765,0.8016383197622639,0.7583079115792013,0.7110042786050179,0.6761083495698492,0.6818635515521034,0.7229124110639324,0.7769202515995475,0.839182337766986,0.8819741012837703,0.9075968688774911,0.9162840738382263,0.9148297180485767,0.902881829112482,0.9019856390942622,0.9019522082478635,0.8981224063610704,0.8942118456730968,0.890590185203568,0.8889196427423567,0.881943538572886,0.8749426328698391,0.8739394365071087,0.8811450909526308,0.8755012399103261,0.8609907858567865,0.8451918163133483,0.8611937210044323,0.8762251520806306,0.8628921667640932,0.7950584312356304,0.7308864413080445,0.6546392606212494,0.57068644875763,0.4810341506180915,0.39773434385894335,0.3138056049907616,0.2240254985709207,0.13756916461315827,0.057428972156848834,0.003977133891932105,0.053376025715423436,0.13496304749049348,0.21934704527192106,0.3091735397514328,0.3982344383838974,0.4788711154951324,0.5660612404331014,0.6557738123779429,0.7388137531318146,0.8225978030286099,0.8968255244995573,0.8991250621215867,0.8738277846778186,0.8573965852838747,0.8457153203085621,0.8240600814963868,0.78699523976944,0.7460723524810313,0.6950027802564955,0.6614567455339189,0.652196675711614,0.6844187374128274,0.7331193583193809,0.7928682667045486,0.8437096744915711,0.8745486038095893,0.8879430548852509,0.888867022319781,0.8815665051877746,0.8763138672363615,0.8762368429999512,0.876236842999957,0.8762368429999623,0.8762368429999685,0.8762368429999738,0.8762368429999801,0.8762368429999854,0.8762334750423504,0.8744283755560174,0.8580409958968569,0.8630398341668468,0.8777297918241702,0.881189256587886,0.8332705453029039,0.7540629753098733,0.6714046961449311,0.5841768523693467,0.5037052913728723,0.41474877144616396,0.3272409010983197,0.2468081909523765,0.15788966523635173,0.07164485790290143,0.0,0.008526395679049115,0.09270055682803702,0.18212429010240894,0.2634761223798363,0.3495918822026056,0.43947952416841574,0.529181803247708,0.611958265963592,0.6964259641386945,0.7836210151261369,0.8632711373188933,0.9152977675489082,0.9258522868423529,0.9589288457851928,0.9884161846554052,0.9514083608609218,0.8696751507555778,0.7798591091872749,0.6907662393021536,0.6100745234859999,0.5229909254838054,0.44274812814568576,0.4639999662127581,0.5515868273457303,0.6353939617551394,0.7185459135185845,0.8004556511563798,0.8749175113955872,0.9163953898357939,0.9164313968250073,0.9063671694008999,0.8991666982618587,0.9063740958163549,0.9071338973090866,0.9071344824780745,0.9071344824780687,0.9071344824780634,0.9071344824780572,0.9071344824780518,0.9071344824780456,0.9071474546892162,0.9099139639157068,0.9191675560258075,0.9200077818863277,0.91987502331577,0.9133089738011768,0.8916592176896647,0.8451348292772627,0.7916830725300334,0.7357476658138642,0.6974437209269049,0.7117300660780896,0.7561531248006177,0.8014053909258396,0.8398130272061115,0.8716759197075619,0.8927297948945823,0.9033568611179832,0.9214147083162967,0.9605991732881609,0.9883992504476882,0.9429209090343171,0.8648018324833817,0.7805014323908273,0.6988411929520195,0.6094005036175885,0.5383548368483437,0.5821763205543506,0.6690984699175686,0.7487800468102375,0.8277426149387721,0.8958017091778445,0.9187033366656467,0.9054801375446537,0.8918432671650494,0.8982598728210491,0.9128896913160607,0.91576010101757,0.9199549398664164,0.9200084989271184,0.9200275019836597,0.9232745256764119,0.9322205485531381,0.9328821115311752,0.9328825153762939,0.9329002487811775,0.936051614413504,0.9470312556785547,0.956541983598064,0.9486985556940328,0.9424795542873086,0.9136935819194889,0.8661197783330774,0.8075130410740141,0.7534736081509243,0.7143678903600801,0.7323075263428946,0.776665228259203,0.8215816124257338,0.8617350148195801,0.8875432575013518,0.9085784598319457,0.9277231424797048,0.9466238970731582,0.976376429301097,1.0,0.952957674786429,0.8747556162657846,0.7917226066168861,0.7081785317025797,0.6187467041330117,0.5623599349868971,0.6239911501397943,0.7082106856603356,0.7901582109262364,0.8684770852392387,0.9266315499560829,0.9438011263013153,0.9228869780962055,0.9033271097346676,0.9041505686715627,0.9179334895384144,0.9094703586652026,0.9071420549250391,0.907134482477757,MI
0.8118694169663891,0.8320827857525646,0.852111837882569,0.8458669652289803,0.8134932292274466,0.7788521472159822,0.7388178465419002,0.7009315033315557,0.6604918480085882,0.6271341898715614,0.6093470013910576,0.6041943286975053,0.604234139291929,0.6090194179914477,0.6160088039840383,0.6325043070034804,0.6341419647133999,0.634143282482341,0.6341432824823454,0.6341432824823485,0.6343430919219006,0.6396026531544874,0.6349556113416632,0.6341435631183399,0.6341432824823663,0.6334077332192325,0.6244911312507679,0.6284668309394501,0.6197527370728313,0.6188739765239091,0.6100236856394794,0.6016575603056973,0.5731260062455483,0.5391673376660728,0.5309595441447126,0.5436327969662629,0.5634991274656445,0.5842806388758319,0.5959965350093457,0.6336195884260083,0.6096759132488949,0.5262683192916131,0.45062301807212357,0.3686977315739157,0.2827433413965803,0.19676782238269253,0.11094155881780954,0.034901356707065956,0.0,0.045218967803513976,0.1209734241496554,0.19894599570957316,0.2846126203088444,0.3633990286547477,0.4418132259536205,0.5238525685053541,0.599319463023686,0.683974140937214,0.7593923011656796,0.8353980195006336,0.833884802302999,0.7960358094114706,0.7843750197236226,0.7877159310056263,0.805177423406489,0.8342921256712734,0.8621385266905959,0.892522929715049,0.9184948637716857,0.92921342976457,0.9039543944111359,0.8679187043973307,0.8248447713301603,0.7760420510056774,0.7321167896267733,0.6891311130571878,0.6476447540815529,0.6160324103018318,0.5928301530900075,0.5891067619798025,0.583510993158765,0.5830817018410066,0.5890765910098992,0.5891560923007932,0.5891560923007972,0.5893133620195536,0.5963779451875819,0.593118723245809,0.5892349971163524,0.5950320026772951,0.6038781122462611,0.6041073960101007,0.5987505356654044,0.5914616980324445,0.6024708328346993,0.5973620300064333,0.5772792307640757,0.5671515305385122,0.5565195748085827,0.5304953638195098,0.49792271703545454,0.48555225567513194,0.5033008680437816,0.5258781525570564,0.5534468409101536,0.5612911881989464,0.5932391587909716,0.6221419196027642,0.5550750185592355,0.4805574253213374,0.39674607504509796,0.3159927418295325,0.23946872492366467,0.16232119378164622,0.14295416690355567,0.2003546476811684,0.2783027299136749,0.34806702448544735,0.41231055000997596,0.4883684279029077,0.5660442111246655,0.640465267983203,0.7234867618326954,0.792981434811626,0.7988723648256735,0.7543876969795242,0.7377451564208317,0.7294797596289526,0.7433699341849889,0.7604521533226878,0.7749946372056149,0.7917047852824171,0.825458298148976,0.827321314332091,0.8057882453062386,0.79085792946554,0.7786556477367284,0.7838843447046009,0.8127290781180587,0.868997250080898,0.9431057260646458,0.9909429670377579,0.9650982202390344,0.8891690076115295,0.8139495012790015,0.7316115081489429,0.6489603777990682,0.5742865131181158,0.5247999385307462,0.5868342748750788,0.6711225566713734,0.7298978788628512,0.7313897372022224,0.6720292111654227,0.6179292585171039,0.6027366812871469,0.5771454332749837,0.5509352255150475,0.5284600097533683,0.5447167690514338,0.579324648424786,0.5973599584778668,0.6091867731472678,0.6199811476960897,0.6383203070216208,0.6401392237506216,0.6401415745067371,0.6401415745067336,0.6401415745067296,0.6401112838845648,0.635810051436172,0.6333088574701606,0.6398812709817583,0.6328223120762488,0.6252771033667961,0.6251458444461444,0.62514584444614,0.6251458444461364,0.6251458444461329,0.6254195545612475,0.6348425479910382,0.6550996491952081,0.6855653553323808,0.7307024356890692,0.772467601165042,0.8174617841148573,0.861356444233147,0.9074986022034599,0.9430889279593448,0.9672475539685998,0.967862623854185,0.9507476233854737,0.9253313034861392,0.8945594833256405,0.8631676229832013,0.8375587463544432,0.8256374366977997,0.8400032238353536,0.8772980843202558,0.941234351132124,1.0,0.9874165522134857,0.9143551142962414,0.8335217403873236,0.7572293942004147,0.6716812218271961,0.5910619562013122,0.5143617803091858,0.43120123722112247,0.3802490336896258,0.4330275532308825,0.5165853880468347,0.5911059363769775,0.6727516764124668,0.741296789090939,0.7622752552963172,0.7088896198444674,0.6443082989406128,0.6239200051869678,0.6078063682993968,0.5935524862277348,0.5830796713124289,0.6040532580118989,0.6384270452129002,0.6534196918715205,0.6551349538110514,0.655551974663326,0.6653562241064654,0.6700966361484877,0.6701330346277188,0.6701330346277152,0.6702359192116734,0.6771469038620244,0.684962455650755,0.6851126516826964,0.6813077341411864,0.6710254946495908,0.6787818115166782,0.6849950728593299,0.6792526224820437,0.6696097402197103,0.6584653403832101,0.6488033847392853,0.6406256830947967,0.6496439554520554,0.6704668342926912,0.7081162545590112,0.7468022066239226,0.7824012911499492,0.8262128949196805,0.8592208176602525,0.8882693549199496,0.8943583040252703,0.8826276112920382,0.8624764516327237,MI
0.5028272663608764,0.5326408667645197,0.4941090571407225,0.4129885992321789,0.32589069045533536,0.24020901773882797,0.15231747579501065,0.06691634253242618,0.0,0.029144420370348922,0.11529166225497223,0.20581764395504754,0.28944273839829116,0.3704123739302245,0.43751165045402884,0.5181986862965522,0.6091469557063216,0.7005448937642025,0.7877944808443929,0.8002174509941617,0.7267134085377098,0.6470224237146349,0.5749427976201154,0.5197989059993207,0.47592839787843433,0.42936304330397745,0.38074004858468347,0.3406504741915779,0.36299475737780296,0.42367692491233444,0.481114065798943,0.5160652759059512,0.5198221189713024,0.5424239545719198,0.572481236365638,0.551952331192848,0.5231886456131616,0.5453812837326504,0.5598833269749275,0.4988700135029487,0.4139427174564445,0.32728518855378574,0.24011226862742407,0.15459600830699782,0.07160701101817246,0.04668417523523816,0.11967012094186358,0.20824462606055183,0.2947836675918656,0.385877218446782,0.4772798783128138,0.5686826496326496,0.6600854209524853,0.7512709140971905,0.8267283332473228,0.8031931418958798,0.7251049947052095,0.6485040168092051,0.5826272995721775,0.5348136091878872,0.494460596177277,0.4422745800506698,0.37910700095815986,0.34705261044353075,0.3831784719581566,0.4479851103400172,0.5105324153473769,0.554585320401866,0.5629881201047311,0.5615797723710019,0.5505325405576722,0.5238324285904759,0.5279921726408152,0.5409195470414552,0.48230014255111775,0.39346454979514234,0.3077258396437559,0.2198918562563379,0.13434031284309367,0.060324514149526554,0.0715963934376399,0.15519741438471524,0.24111498620054372,0.331885585170526,0.42312587823299186,0.5103732822596192,0.5983857625153797,0.6894375053988111,0.7552860521987739,0.7120221123637374,0.6337433573088249,0.5648044597275885,0.5129998530133759,0.47307550984487556,0.4296432461896964,0.3860941202375563,0.3836545269927234,0.435577476217913,0.4996316599995505,0.548335165131177,0.5590248849016872,0.5488712212836275,0.5357928619750709,0.511035451900876,0.5102572727005315,0.5241307674895845,0.4778809110203106,0.3951871750021858,0.30884947699299903,0.22108247774051693,0.13509707222229927,0.04722272079920897,0.004450202781547397,0.06815287108481849,0.15383983764138487,0.24306932220828614,0.33443350528214166,0.4239204103627787,0.5099935215052487,0.6008686596852539,0.6913207668237358,0.7645197476099201,0.743083642637768,0.6613558541937303,0.5795407478966847,0.5171245969807214,0.47336376294223115,0.43215732299550225,0.38259074455061426,0.33859051397283313,0.3509522865505279,0.4108935223521415,0.478833168452117,0.5291883303373546,0.5341231154028956,0.551546994067661,0.5615320127911996,0.5313330017933042,0.4677492512849015,0.4032360512226507,0.3637977455381243,0.39692674830124064,0.44772244143245343,0.4890116952549768,0.5316425135275769,0.5949872447551434,0.6734522547995152,0.754532593745511,0.838922324934138,0.927552396913784,0.987329926709561,0.9480912811816675,0.8619940727212281,0.776032645836167,0.6864566394872751,0.5951123580959428,0.5064773264407125,0.42137187952870603,0.384303387752426,0.4563468088634228,0.5309171782383193,0.5598240465262483,0.5407091916209086,0.5405520832944359,0.5655309058688633,0.5792401014171573,0.5847826329661701,0.5730172405422795,0.5293419973640139,0.4643322986955243,0.4134622116184894,0.4320694957898319,0.4776389514226811,0.5167401676564791,0.5642985091543775,0.6316063602741653,0.708318697070921,0.7898321908598132,0.8733324745253557,0.9523549144370176,0.9721300282812333,0.9063600420636184,0.8271279434179861,0.7379995973649609,0.6468358654100286,0.5599401497358072,0.4715887118826432,0.3915614680416648,0.40930917636728137,0.49227068674366237,0.5600242543208367,0.5753722122098561,0.5522260752902095,0.5645796548666073,0.5833274022001891,0.5892321473414692,0.5884648908790728,0.5682457603954603,0.5177863545957042,0.45345875796572566,0.39187664021700264,0.40064223278399114,0.4648312027130368,0.5146426448793475,0.5548189783827466,0.6032543833159947,0.6745882812582029,0.7514093380043632,0.8334304837423716,0.9167165698350574,0.9868809631889894,0.9687101159221012,0.885952441021651,0.7991656184381899,0.7081500855468403,0.6208248040972828,0.5328953655470512,0.44160068263290464,0.35836519931242994,0.366878431436954,0.4485978230305556,0.5317940646358001,0.5910804785932346,0.5913866072835896,0.5600504183435204,0.5741507942055069,0.5979487192621054,0.5796574162271237,0.5479285651301764,0.5474886376455201,0.5223321989093177,0.4775444487814928,0.4148430720149061,0.376254058012216,0.4128309387594862,0.4622172539611349,0.5066528084048827,0.5508210116056822,0.6152111366854753,0.6924315508166143,0.772407768576836,0.8547735511737358,0.9385568048075732,1.0,0.9696176610215568,0.8923191828763837,0.8045439205732241,0.7136199785280144,0.627311544718334,0.5382033435116897,0.4553412286118197,0.46255422500764865,0.5339353602236352,0.5635774531740927,0.5400845762468935,MI
0.3825737698543845,0.3981587671219633,0.3842173342809101,0.38031823550805033,0.3637538966738223,0.38133526292447684,0.3945281756613763,0.3660239772814582,0.37068740695184355,0.36522974556944243,0.3806501231330417,0.3781089227736998,0.3533934405414634,0.3339192112487446,0.32265400508536946,0.32362165473152515,0.26940918839461325,0.200484139575428,0.13576807138696623,0.08584270883158629,0.05731346414459049,0.09816608111918335,0.13070643480365884,0.18267445652607117,0.24907786795017461,0.33237620554504854,0.39574933695863423,0.4479010377941983,0.4944913996938616,0.500758492362622,0.5005370131585067,0.4874633300376523,0.4801368303739033,0.49867440568175914,0.5073634267570348,0.5244364490497189,0.5419168738579305,0.5680975127899641,0.5795888704364636,0.595686604274829,0.596365695623974,0.5959489887252607,0.5815669998943811,0.5724174320224247,0.5581511394522813,0.5040186544060603,0.4464017728683136,0.4104244376327304,0.4204189285750992,0.4583576300287615,0.4896176272396149,0.5000472656219341,0.48462787004500996,0.47629582736072473,0.4604522579253989,0.4488800892401006,0.43075485471123276,0.4283668073557463,0.4075212569711204,0.37132426564076493,0.3907505447058033,0.45226317454389164,0.398550147466048,0.3717204121174822,0.3554571596334335,0.3347040354761477,0.3334119059845744,0.32411454029375,0.30043961724395496,0.2763807888311862,0.25119266718795696,0.2029049288242537,0.13569862975584668,0.0762290739026108,0.026808330288697668,0.0,0.007684489364770286,0.04948095574129674,0.10841027174321693,0.17163794032242397,0.24271304053558262,0.30256474618489504,0.3494243297068853,0.3573545645913452,0.35720483476355547,0.34548361303055053,0.33349591727744654,0.32129553458188154,0.3097693568346771,0.30958797607279154,0.3106623437659639,0.3203165313744112,0.3306477129033256,0.3479193576205679,0.33434408267661775,0.3486426391338431,0.36342341774352427,0.367348563581519,0.37299351288504257,0.3801623601298192,0.350668561394325,0.2890136583338432,0.2733619948049135,0.32264138188964875,0.362861232790888,0.3902453663384451,0.4366364312844744,0.4528519903459389,0.46094324368277384,0.47303004103415214,0.4634533828564864,0.4763398523091129,0.473289168174551,0.45731923576603917,0.47016617084727264,0.4746482622093522,0.5332601258901892,0.5190401925295491,0.4846142964621145,0.5222613643752503,0.578986071802734,0.6467884463090385,0.7565526839604662,0.8614978435895901,0.9697402584211057,1.0,0.9226260105150486,0.8164045230446932,0.7112671004537994,0.6048876467705808,0.555872839088071,0.5455469347533137,0.5508650666971802,0.5404597590265281,0.5498720252921299,0.5348933702737115,0.5302766626172719,0.5181498248152732,0.5310940085419862,0.4920948511777081,0.4429084494788751,0.4237743986933822,0.38349953284386995,0.4010753807086709,0.44718952547476754,0.449148106743515,0.438771077982278,0.4385576921942622,0.4295719799969162,0.4151608148721633,0.4147396227691562,0.4147199427384969,0.4081015341300773,0.37361025299789397,0.37510911942651415,0.39037202349017797,0.399235111856195,0.41427045314125266,0.4149785396279486,0.4281245355767296,0.4384038133988253,0.4276606390176583,0.40004878022372115,0.3450737746670458,0.2849567939938016,0.22231695304032018,0.1532634946139102,0.08989887004868136,0.060479864505090575,0.0958727037615077,0.14825494080583645,0.21638567420229604,0.27933192580608424,0.31799788051421807,0.33977142036313657,0.36379924638073735,0.38628175961127464,0.3908354132042984,0.39478537621543364,0.42633411724472303,0.47083198291962436,0.5287427650965499,0.6423925234661256,0.7624231098887835,0.8695116263789222,0.9306419959582488,0.8805826505489707,0.7723253381789297,0.669762229114176,0.5608500503384626,0.48106732946291153,0.483489481747287,0.49535901939924587,0.5099363246227493,0.5127980373505601,0.53146844289261,0.5437356421806419,0.5577690261784038,0.55811992260415,0.5541771735888004,0.5278799924403135,0.4950992306518991,0.5131691891517214,0.5669139966270098,0.6185755284169012,0.6405604707706338,0.6534482568831885,0.6537212975782198,0.6537212975782127,0.6537210918884764,0.6527938310672372,0.6360607952601045,0.6246611376580775,0.6061513622653498,0.5869249982784694,0.5713756431831261,0.5672628638344381,0.5582195963936742,0.5583456980326531,0.5708681900039769,0.571711435185267,0.5570716925535395,0.5252143474905484,0.4699948969779819,0.41008923081031856,0.3352325406371355,0.2670133959827137,0.2060549150413391,0.15800052800739728,0.1709139419525827,0.22990366546667929,0.29004343483768347,0.35312644227035594,0.40428169325596297,0.4146856977625095,0.4210866323413134,0.4377301063380008,0.4386375930129591,0.4386437909291967,0.44222058184359314,0.46973497141534626,0.5455800931461141,0.6632986442593358,0.7719990876604053,0.8736159252842661,0.9042084708078626,0.841588929873855,0.7403134371583722,0.6301779134609573,0.5245689374105673,0.4561339997602514,0.46204265690777513,0.46253592955389955,0.4621306713977327,0.4476990063565327,MI
0.5456766698572001,0.5731753742904865,0.596823248561034,0.652448909804639,0.7276427265236319,0.7995747112219885,0.8121727822229622,0.7463339966098116,0.6669766068518598,0.5828635238666106,0.5017071938351868,0.44773761315829164,0.42696354682116155,0.39307649377412124,0.3520130154390758,0.28887530646985804,0.21423916370585683,0.13836729454172692,0.06497851171641222,0.040297191512687514,0.10242994447129194,0.18066172286805982,0.25964238643293747,0.33386518234336726,0.3690825852792826,0.3726263636100663,0.39007067911978777,0.4307904829194521,0.49122553143133174,0.5549038455006118,0.6196413094511007,0.6776296755463228,0.6753384453221184,0.6396977374426537,0.6192563122187748,0.6109065317048271,0.6102984043216927,0.602151290755074,0.5930764730511026,0.6046954313682821,0.6304871663046522,0.6592680137256351,0.7222689939997827,0.7980404039377101,0.8723062705886432,0.8953490223315405,0.828776077646365,0.7474070689865512,0.6681815017423572,0.5847995915611371,0.505845935311772,0.423191442009058,0.3393299716444854,0.26129318454814954,0.18751969082638342,0.12134194262752007,0.07444808615715337,0.11423190486007329,0.19008923466102023,0.2719978773289524,0.3459019013646393,0.3669960497040158,0.3497222809169461,0.34921253089088544,0.3844593290942472,0.4452487065941243,0.5102406590033689,0.5756632027708976,0.6383309701908321,0.6609326718357488,0.6280287339860725,0.6057424398796952,0.6027949916304375,0.6000710609203127,0.5800736519271118,0.549209386765923,0.5380095816399294,0.5549995016554293,0.5773327302594217,0.6370492390711643,0.7118913248014317,0.7813374154959633,0.7744069330741726,0.6983407595336474,0.6190162220911989,0.5356499837222651,0.4567813466292917,0.3743806424093922,0.2953198335549584,0.218078489691368,0.1426677810661613,0.061297574919396025,0.0,0.024842731690146835,0.09857176445783433,0.17625054804363793,0.2531413353338797,0.31230798172341967,0.31489262015607833,0.30908836127288375,0.3367738456845545,0.3887176723829243,0.45413218598268934,0.5152769356125925,0.5764600405752599,0.6331140702883756,0.6313462959238457,0.5985354244439397,0.5935855840560654,0.6136476195183708,0.6304430723345505,0.6290670209408556,0.6145545439814469,0.618657255953695,0.6409312607446632,0.6620531983348553,0.7211100708780264,0.7995591500818423,0.8743450702531826,0.8972928027996733,0.82703523942625,0.7483053038512194,0.6657920673254066,0.5867340122123369,0.5045746004945907,0.4250563161889497,0.3448683657571471,0.267867734810596,0.2136819113150854,0.2548331632930153,0.3337438705330268,0.4172300348502319,0.49608762674637863,0.578748894556817,0.6588589109791924,0.7399560691844765,0.8218396341370963,0.9009142389399617,0.9767610160137358,1.0,0.9389295761702682,0.8611923689791973,0.7852401073943233,0.712026446747721,0.6747686579311097,0.6562635014253503,0.6428159214680699,0.6498456330468488,0.6591816007390964,0.6497462792437522,0.6283260302798032,0.6203530939894836,0.6492936656493608,0.6756281708561106,0.6452341109637226,0.5823651308875878,0.512188284630766,0.4456872930480461,0.38612323382437597,0.34699470160554735,0.34463693752083546,0.36466448270397234,0.34212488050546896,0.2736037085702948,0.19710826188826935,0.15000850542917676,0.19891066932890267,0.2744733599497968,0.3574561853711523,0.4418213354205599,0.5244826257111818,0.603392135864765,0.6845684820865768,0.7635473004295233,0.8394939219613408,0.8715849350111978,0.8177597232798249,0.7385961330676724,0.662284815054664,0.6033035330816926,0.5805828051002971,0.5693453751075667,0.5833106662435462,0.6130626796246789,0.6319300512720639,0.6341452402323545,0.6311768711459583,0.6491841003742721,0.6858303156649216,0.6890594149763515,0.6392165284450421,0.5753013479026067,0.5080125358217037,0.4406698913251429,0.38951205828728364,0.37989787823153554,0.3992401032004299,0.4020669199066126,0.34077692475341725,0.2646982919500924,0.21180092877907775,0.2565417678376608,0.3320927505242953,0.41066099725919847,0.48364918762030384,0.5558507543505437,0.6246105371033001,0.7060874765604451,0.7855025988181111,0.8674295102102431,0.949514972900325,0.996968923982262,0.9632522822533128,0.8930684011128355,0.8172280683323422,0.7401216697490901,0.6776381910095112,0.6553748882749514,0.6308221027691182,0.6227895107328295,0.6353897909760923,0.6376159756098597,0.6394714006356316,0.6492390765253856,0.6714769263484931,0.710926005695906,0.7105798746955952,0.6594402262539895,0.5950548066332165,0.5307713258348407,0.46535084928964243,0.41941718486832114,0.40270235273378485,0.4068102425720027,0.3854269714691759,0.3144914625133056,0.23649527171839058,0.16284275865315867,0.1581147941951495,0.22855993383547735,0.30635553165603724,0.3848722289332044,0.45647505064637117,0.5307050042857223,0.6112243963605025,0.6915105733282644,0.7717640752700784,0.8513581500863604,0.9070012801342161,0.8763446086675616,0.8050065423314993,0.7297807859001878,0.6580857538281893,0.6166721111794763,0.5857692510436626,MI
0.8513132171155291,0.830758015578583,0.8208106385189768,0.8141256632593279,0.8277677703319546,0.8404842758540181,0.8400736800607673,0.8526840392099928,0.8666616517248145,0.8685668667899218,0.8679983615806786,0.8547826087740444,0.8531124299158079,0.8773521238763033,0.9054563303979315,0.9322026000772914,0.9104419692461081,0.849192316779708,0.8207204827543395,0.8249535718738368,0.7511251888037973,0.6687037244176863,0.5899944936116173,0.5113310207837365,0.4305244593667388,0.35323794327527613,0.2772013765860639,0.21646219118300936,0.1720241868933814,0.14888816364995017,0.11915552384834505,0.08048017449800837,0.04489243005696131,0.013056818795289304,0.01095774229922708,0.05824718197492551,0.11620458382171961,0.1760248815419645,0.2448018092358364,0.3176974261247607,0.38946294060060693,0.46907977501971665,0.5423368539767894,0.6143925737269047,0.6856517387052694,0.756178586416852,0.8195244388314318,0.8716398752215977,0.8755062176389703,0.8524531715218997,0.8372306650825594,0.8212910708276102,0.8117486078890208,0.8142191390768205,0.825986598093609,0.8337880747971635,0.8444709726937931,0.8475840830008761,0.8379336346624757,0.841567035770274,0.8395579512237272,0.8480074125490951,0.8235915999401773,0.8255233203693375,0.8528738577323021,0.8781009696504667,0.9008216337147317,0.8727591721276851,0.8143538547590568,0.7848964290155871,0.7641837319859335,0.6900323013274867,0.6127331316664244,0.5317518660450302,0.453274586345203,0.371457586244748,0.2956093753457776,0.2236253927229208,0.17232146299569928,0.15983827238684567,0.13162005531194199,0.097957216031894,0.06055882630230158,0.02480334820148955,0.0,0.017233564371237797,0.059627243056874946,0.11969578240313794,0.19498584756759096,0.26532939647238285,0.33467769450269236,0.4062679381297398,0.4799659716521947,0.5521916463193626,0.6242415527402772,0.6950968041095018,0.7707706650364277,0.8372204936148828,0.8728059687844489,0.8715132960002043,0.8544693342826182,0.831960429363481,0.8092209210775254,0.8164228461569072,0.8352684573732476,0.8609124744122674,0.8777385892383982,0.8951041783323579,0.8971916059096465,0.9063031969001287,0.8983870227621795,0.8939844766989953,0.9131031719009728,0.9291090114478286,0.9550143471164712,0.9442053368256522,0.8838365140140081,0.8361288471779813,0.8294043607930719,0.7666390242120522,0.6857372295996613,0.6081491086256661,0.5309556945850742,0.4526821252923301,0.3755665230413119,0.3055373224660449,0.2876719035410784,0.35230334529560214,0.4342898203219925,0.5117832653282792,0.5908862595569677,0.6702525302020303,0.7476450051947958,0.8267444792456533,0.9023376018940834,0.9631232075644556,0.9725728240637499,0.9999999999999998,0.9988110437945148,0.97901989277975,0.9558289258365231,0.938791153925499,0.9536496849699165,0.9610299315760356,0.9500407863092837,0.9381808093638286,0.9237028056140242,0.9006374423219035,0.8755323171348801,0.8663151117473518,0.8773507103339766,0.8985210531438386,0.9170001794364115,0.9175212039637295,0.8859526135062461,0.8231684894190743,0.7570649765220405,0.6852447577498306,0.6135086220638604,0.5423884241136037,0.46836725538508817,0.3949785579219096,0.3202663362761584,0.24591388211003995,0.1752703753352456,0.11134917114083165,0.06096557666911484,0.04821913788009269,0.07753746902331482,0.11496983501453739,0.15157509505008604,0.18079010352724212,0.20768101430682573,0.24648851698364527,0.3168370636570499,0.4005281742428308,0.48667030756159924,0.5658076298391019,0.6456164155440671,0.7224507265308997,0.7993047690195187,0.878603349733931,0.939670090638095,0.9273601401743081,0.9323206578598799,0.9543183536574207,0.9410877547475553,0.9138875488355793,0.8845878553909767,0.8736722990709482,0.8981505187508427,0.8936279128270235,0.889072827596838,0.8864573951124568,0.8906674135699284,0.8858539214558772,0.8847312054100585,0.8764863795298068,0.8638925401083093,0.8574274459631297,0.8632188057546559,0.8897332060873435,0.9049547015769661,0.9238848759943201,0.9171140453303928,0.8712499921326484,0.8144347923130002,0.7458528262944728,0.6731145904128015,0.5963604039142276,0.5217966095326956,0.44927552905029944,0.3777791695410224,0.30706210039598325,0.23544941116754736,0.1704588430409535,0.10773178164718789,0.056524492996423925,0.06334250860706847,0.09916726255990072,0.13304662943200407,0.1717811423277531,0.1986234178066526,0.22933887038499634,0.2714144602311417,0.34265494626876114,0.42239488904359557,0.5013777493532285,0.5811801638884233,0.6596549441935073,0.7370044529856634,0.814398045317845,0.8954509712691159,0.9674848835204906,0.9801318728483308,0.9343828943456087,0.9608444758337089,0.9776976424249153,0.9741695034959188,0.944723216520116,0.9097733979483069,0.8963018300551753,0.9066855025675029,0.90875699458698,0.9061790266607563,0.914050806088986,0.9024560486918058,0.8903179259728631,0.9003879803453805,0.881122714655094,0.8680913042201286,0.8557937811906944,0.8608227588605122,0.8809576270213595,0.9037275343368598,MI
0.5216191532075292,0.5678719501209719,0.5943198762511286,0.5859837595309778,0.5888412397981693,0.5685596110953024,0.5674918730068836,0.5736371961990852,0.5725805185801978,0.5798743167702338,0.583019676222174,0.5880090705479213,0.6092754572580867,0.6141779182957952,0.6025678770025289,0.5576259533173684,0.5324427355656631,0.5382885628820793,0.5825355194300545,0.6165848429279586,0.6247915140866609,0.606032251736877,0.6145281780775722,0.6300042657628384,0.6600172412932159,0.6740225874462205,0.6290394460210043,0.6608945829942008,0.743886608490476,0.8199177918619971,0.800258689962603,0.7122246954309777,0.6210190883926185,0.5336808839834064,0.4518232413067733,0.382478891140575,0.30077577480266715,0.2416532564487599,0.20697392626862188,0.1686419186924888,0.1281111119752314,0.10142098496906193,0.055425699697005726,0.023419930621159324,0.0033956843157003647,0.0,0.03535207579697053,0.09953601580623639,0.16260272591446379,0.22870996652823328,0.29620619727697184,0.3684460915938881,0.44161267539055293,0.5048055599309866,0.5585080835382099,0.5911919584143348,0.5869093671230323,0.5786090640208443,0.5845311722928379,0.5969219115662892,0.5971214134967551,0.5971214134967577,0.5971214966590033,0.5976151388685276,0.6087990257125631,0.6225071325359117,0.6150137385451488,0.5694668905215905,0.5399962091661137,0.5399796129105554,0.5881671635923418,0.6230177057325976,0.6378249261671334,0.6479148824941032,0.6419792618477729,0.64813355653243,0.6713565647836237,0.6794014473534897,0.6114240860860156,0.599883005333333,0.6685870480776059,0.7575369769146199,0.825581742142028,0.7821548365358129,0.6824915761683439,0.585984383772796,0.5011827763110377,0.4170855658160182,0.33638323595753317,0.27240033445014067,0.22707524448133842,0.19959678932613212,0.17221894502402701,0.13480718931645486,0.09790662484906099,0.06549543804845825,0.026260850243086775,0.01777580314870919,0.05228578017133012,0.10771042932129582,0.16596337784830473,0.2320390237088481,0.30230073725099427,0.3776895781603291,0.445407099928425,0.5116510047971476,0.565688845287299,0.6061216971399617,0.6142238903538901,0.6125585165551315,0.5995869673446705,0.5971265747500341,0.5971011118103231,0.5929276049349186,0.5882761548322284,0.5968925417679278,0.597118988966606,0.5947856903757485,0.5617426686190274,0.5235846654170788,0.516307328340508,0.5562337515500286,0.5952267138239926,0.6202289058731725,0.6316462426837908,0.6506095560787899,0.6817195553776485,0.6755636170431787,0.6599163712665352,0.6346334497809036,0.5924243242840572,0.573849049093039,0.6073974875927814,0.6450666389122941,0.6516780836051406,0.6523344761936358,0.6542637963588787,0.6417157863198115,0.6382766202395782,0.6382707149198223,0.6407357355067056,0.6538243065388265,0.659332477562375,0.6714145403733607,0.6616341469780225,0.6295678542269254,0.5865763532064601,0.530578621755482,0.45777045697807006,0.3837398410769204,0.31770091170698356,0.2504026932539283,0.18617538837480652,0.1238410161638801,0.07352689611207408,0.07849217958697974,0.11750560585773195,0.15455376583286728,0.18737750529004282,0.2223883797837698,0.2491650686794289,0.2835817774349074,0.33905989703679795,0.4167822863609727,0.4978015922453718,0.5842270967026044,0.6732163681249408,0.7641349678369034,0.855396013491053,0.9356682668839444,0.9910736183019981,0.9893843981066386,0.9214945414453841,0.8351024857658844,0.7839991481232524,0.8163571062536636,0.7847549084028858,0.7191782237147639,0.6972727440337616,0.6957992617514384,0.6989640589062742,0.6857296476007546,0.6668290725990791,0.6385813798736204,0.5983106722752951,0.6103350308301536,0.6548455591917639,0.6721248861159435,0.6653379932572117,0.6556752485412738,0.6542197092815463,0.6415841377030529,0.6383047147861438,0.6429569098743526,0.649213473068134,0.6478254531923469,0.6424248625017306,0.6549463433273086,0.6470817689312898,0.6148405879761509,0.5668422223630496,0.4975108175767695,0.4309089585222412,0.36195335283902264,0.29260807839029956,0.22525970336690015,0.15558006534101176,0.08867028255713061,0.048815827173188,0.05482517162202072,0.08240605637643394,0.12316184810095132,0.1594526106313725,0.1941415593019511,0.23407474653483806,0.2689620791217946,0.32254880005996345,0.40069451973616,0.48428180289110756,0.5720003954815667,0.6595011844427847,0.7578831734262117,0.8544909173175714,0.9387799970391413,1.0000000000000004,0.983086628980089,0.9126769143860023,0.8266862414130292,0.7705483102544011,0.8122435507447214,0.7938640801631442,0.7229666685332594,0.6806798473022075,0.667973624416395,0.6685058893465889,0.6859918024084735,0.6654073390475888,0.6350016998241661,0.5928823235311635,0.5901701096685565,0.6296201011231548,0.6550441829514422,0.6642898447144296,0.6565581328264143,0.6458797735842445,0.6373377301541154,0.6321963088832105,0.6294408727415646,0.6212703237463155,0.6213274676777738,0.6305167363702342,0.6383135431647591,0.6468202330554873,0.6426151700676792,0.6088064465899214,MI
0.5118283454915928,0.5687997944604033,0.6254866184257757,0.6775801494789837,0.727826737050068,0.7422498772734785,0.7181596606601246,0.7089142423231982,0.7380374429248924,0.7797383021563207,0.7700872041853477,0.6958774809402501,0.6061585728948904,0.5273045226529018,0.45263088928929784,0.3713194819013186,0.28523283228116947,0.19983915305300226,0.16415639831637563,0.23146069152254856,0.3187750806484868,0.40903073560752445,0.5023910820600219,0.5916051073272222,0.6801842726361413,0.7689833135325992,0.8500520610161615,0.9172153444523496,0.9221055957890472,0.8635200030171206,0.8104736410025064,0.772429075689121,0.7508459747077012,0.7241711521251413,0.7127985897457949,0.7403286358900947,0.7762884416705906,0.7839995730181708,0.7622564520576789,0.7558519797973859,0.792674116549452,0.8265669319586195,0.8016300709081912,0.7206979021022419,0.6297328581995012,0.5384354495560797,0.4514535608264294,0.3588337003512918,0.27566236433206703,0.20423806503115804,0.17180546083037151,0.23571107994186935,0.32711066541492717,0.41685897231941627,0.5050339667047525,0.5983138092781171,0.6918177424136818,0.7845079177479459,0.8695325866833521,0.945808452507094,0.9696739646626604,0.9133912884304665,0.8526473283212379,0.8040621003449797,0.7634908670802281,0.7232025736739398,0.6865022371245426,0.6447222707709137,0.6419826628430669,0.6772301562303384,0.6867332944178404,0.6433872686107571,0.5950013907190344,0.5710628776833291,0.6047338686538164,0.6426481306126646,0.6437051298857748,0.5765423939724845,0.5023104537785796,0.42856147856949733,0.3377798435037873,0.24724863713326384,0.15976492701916012,0.06976164906581495,0.0,0.024703409252317732,0.11100630215797924,0.1981436086866002,0.2911129854327632,0.38402400475493303,0.4710817703633279,0.5622730866397612,0.6548888541830673,0.7410695746741225,0.823441473033047,0.8801806740333049,0.8505498518882109,0.7912851208037333,0.7580787610204214,0.7398783523059662,0.7109523221718379,0.6851900558121617,0.6968571375565673,0.7391893015158841,0.7698237065053488,0.7425420930697391,0.7260746205056987,0.7566728409091306,0.8052862556291924,0.8289081782233363,0.7767257999085093,0.6908593892543844,0.5991961727253006,0.5125419453097042,0.420606481701695,0.33308333289415626,0.2444038974274525,0.19937357536637967,0.25831500934237095,0.34790317324650233,0.43476372752629655,0.5274779560119605,0.617701897293393,0.7054286086140629,0.7952911840303019,0.8780240785456745,0.9487897456059446,0.9514861278364344,0.8909509278680341,0.8353041873421763,0.7908395620988036,0.7569303665187674,0.7267774122445914,0.7209211890021789,0.7477846126048191,0.7902107816451416,0.8236096039510994,0.8485233625872091,0.8296378434677063,0.7853357651818005,0.7516875182397578,0.751658500592973,0.7838640137633373,0.8179153864449273,0.8630633026970402,0.9203803504765087,0.9833137819523725,0.9906988691914838,0.9365776026211967,0.8603795718304883,0.7748378959895217,0.6874686093839002,0.597274930686365,0.5040974397027878,0.4387419800010237,0.4925182747884125,0.5829609625008605,0.6700901318684909,0.7629435363546904,0.8444037835149718,0.8605453956843938,0.8358504104614708,0.7879543766096839,0.7578759481702815,0.7870560946898586,0.8046855022101489,0.7702952396847813,0.7273238671286937,0.7204293333644487,0.7493890081934225,0.7723913055682523,0.7937602023724255,0.8463495649158166,0.9075323242899718,0.9212157993223486,0.8812808198635538,0.8051723066775223,0.7222489484559089,0.6311544730148599,0.5376675959797996,0.4441621616579665,0.3506670823419318,0.26333797174740536,0.26258401909559703,0.34521361745737855,0.4377467827140602,0.5246634101678824,0.6149903577078948,0.6885207381467799,0.6890095074074849,0.6583114031637964,0.6195695819126341,0.6257299963444889,0.6743545835551039,0.7190993155714012,0.7225186723317707,0.6830524363868913,0.6687345267713285,0.7073282153974458,0.7427570485870691,0.7841729270807458,0.8228456914767961,0.8730354339800528,0.9351734802082203,0.992093015006384,1.0,0.9395492248172643,0.8569638307894294,0.7707521372674853,0.6840964048191169,0.5917715676182629,0.5043141601410619,0.4154015308740686,0.38217826909825137,0.46020726622608255,0.5514548335950302,0.6384295233648372,0.7296994259938849,0.8140361185975575,0.861466785823729,0.8517728462642653,0.8144257937416775,0.7892900385884969,0.8036659906498937,0.8184286511681726,0.8067597737187511,0.7685259396934239,0.7406864214671849,0.7569555762746962,0.7814188153608559,0.8062806736430013,0.8502833550885482,0.9110250085894076,0.9659854465062083,0.9604583349373281,0.9060189685712841,0.8285146639448533,0.7381800337345354,0.6503818414271099,0.5602238778004938,0.46770437281870625,0.4211090745358368,0.4916282486731667,0.5825502461415606,0.6695327254715706,0.7572591471873011,0.8192461269272138,0.8195046791536045,0.7859508474219423,0.7489937202231807,0.7511667182917405,0.7714214356546851,0.7560203710510454,0.7105734587308978,0.6814553519259992,MI
0.4448155531456033,0.4642454074579536,0.4374427381920536,0.3459739484099593,0.28828544103295517,0.3656211544298986,0.4866362486392428,0.6116149299446128,0.71477410132074,0.6593806887170075,0.5397359558329939,0.42280117134683115,0.31144246207281423,0.2347827709699022,0.22901045205486836,0.16563741390792197,0.08276778676810537,0.037466125709165965,0.007203124932416927,0.031742659403328766,0.09617339126665048,0.17442850750857453,0.23590189279743745,0.26146654199940045,0.3196010447089894,0.38093113673657486,0.4207345697900977,0.44461902460486025,0.44901368595566327,0.3864886876807372,0.2968761361938159,0.31196927164078714,0.42069723551818505,0.5350996186757477,0.5451139949647223,0.4356641281178488,0.3235776569291948,0.24715446475370673,0.2420928755598073,0.2024943180750629,0.12078718317635495,0.062303305469041614,0.02543399934845647,0.029374451433051618,0.08775260357442827,0.1668365292406908,0.23149784434258747,0.2707202236300166,0.31193465776893436,0.3753730620668443,0.40596795763373006,0.42462799094038894,0.4218324291373152,0.3535691277041977,0.2719419178032161,0.31964458481860936,0.4391043791989784,0.5601399847872885,0.6674176096314137,0.6202697229669147,0.50084409224544,0.37618543153322204,0.26262831573763545,0.19323586322717867,0.2056794250721823,0.16903146571665895,0.09307592180560675,0.03699271181507813,0.0,0.02618176145443485,0.08617632994773228,0.16983958005263178,0.23562341577526036,0.2713829330671267,0.31653394017519165,0.38522981093541064,0.42010562862677503,0.4394485503464338,0.44372723946410675,0.4040315846057929,0.30781364838583736,0.2813660612120712,0.37953335682190525,0.5038345279997314,0.6180099402299555,0.6120285717501659,0.5006463957591247,0.38691626875956375,0.2700996419602313,0.20099169681268547,0.20849205899974166,0.15495075861004626,0.08055506010874502,0.03567605140458063,0.00774582088298903,0.03543470640492696,0.10014228487233412,0.1828392750697425,0.23377986252420868,0.2729294934149027,0.3328210620582115,0.3797244992077382,0.4182046156221726,0.44662564229612434,0.42630328209794977,0.3463553737713152,0.26267819542128024,0.30404072857434716,0.4215079517577518,0.5424220789943512,0.6571016965135983,0.6298027676790476,0.5127461973282479,0.40074815143185916,0.2862201098569126,0.21149037494560385,0.21234445300941518,0.16500414498321492,0.08379502767954561,0.049965764984073235,0.08624326719727904,0.14619842851594722,0.23643251945318733,0.29071823555123055,0.2805059284192608,0.37332961210248117,0.49177376364547065,0.6094508861115324,0.7293930411814022,0.8483984314019213,0.9552243073854894,0.9526881576218345,0.8427364683844871,0.7183085564623495,0.5863090770600143,0.45702658395114115,0.4117142804234155,0.4724871436591398,0.4980388176322399,0.48362996041099304,0.4476435706142592,0.416310935018116,0.3585776266759333,0.3025742400985214,0.2664555102699122,0.2028112067485517,0.12330046733905187,0.06486760399845304,0.07543890061480196,0.1231140301536402,0.20213715987684333,0.28749953189543254,0.2825927036141751,0.2594689423397041,0.3489929928148734,0.4621365311385399,0.5752891551543522,0.6853613476096259,0.8066498630019492,0.9224415286120573,0.9873043089785782,0.9153325553525136,0.790742527621421,0.6680251268061861,0.5415743465179963,0.4473812410671374,0.47878082803129285,0.49448061586661307,0.4873908783857006,0.4629313888563096,0.43465731523907314,0.37445655870194683,0.32903032038322033,0.298719432339535,0.24524315377696082,0.16691723371711698,0.09143238306690105,0.05822931466939396,0.09333297293077791,0.15900862610649247,0.24849023653121094,0.30180817514416214,0.263696006307657,0.32141830408627525,0.4336081113816963,0.553318016200234,0.6714740214904458,0.7914105485804472,0.9187017299849152,0.9854453166544523,0.9145168176942065,0.79643854317339,0.6691330474710453,0.5489634880154224,0.45014725963019364,0.4322711361018481,0.47321962759825853,0.47656914137520934,0.46160502624380495,0.4319563216716382,0.3810155587275359,0.32430861947991874,0.29037165847275004,0.24135301411182164,0.16403290201582932,0.09207511087864617,0.07640425401754669,0.1144681387127604,0.18574120482390644,0.277615275929294,0.3198841942835968,0.3163796796144447,0.4080316426526376,0.5238498882233205,0.6416009754748089,0.7607751983702054,0.881372542858768,0.9898421933552264,0.9938920372747098,0.8851524588146922,0.764388470428262,0.641278624763443,0.5387488084113703,0.44074363497443336,0.46833894224104133,0.5012764711241706,0.4861650651003382,0.46120176865862206,0.4287361820559359,0.367950511503115,0.3056351543603353,0.26896424095046445,0.20740692260082705,0.12995189125406403,0.06595872527658253,0.0721962901036135,0.11699274949030691,0.1940015902765846,0.28858632128932404,0.29973781520967746,0.3270616357685925,0.4368460699321064,0.5548465360853787,0.6736166022361623,0.7920275876389602,0.9092940049928941,1.0,0.9556258339219488,0.8316771333630988,0.6995610714064666,0.571319067340363,0.4776930557105912,0.49174168932306905,0.5030810983883103,0.492102614504343,MI
0.6952148321548788,0.7182619341197224,0.7262674837999736,0.7026799410730273,0.6593160720476318,0.6409779998151405,0.6209319537807394,0.5928234591561318,0.5511192213100462,0.4939599651158124,0.43709254202232617,0.3767268199348224,0.3171950474318711,0.2604727099187749,0.2002266564270563,0.1404511832810598,0.08382698957187809,0.025172091616855213,0.0,0.0434446249807707,0.10377961970201097,0.1629315396518434,0.2198785673242267,0.28029193291178933,0.34100820427699574,0.4017246961943225,0.46244110208247136,0.5229172352734214,0.5800177597879705,0.6389594694253898,0.6996544703341077,0.7603709622514343,0.8210831077591976,0.8784428598566154,0.882853297754455,0.837040859156251,0.8025358691151905,0.7948686068377148,0.8014815322430968,0.804284313934797,0.7782841370322554,0.7411195610979902,0.7001824963048813,0.6668371363377047,0.6718936137595561,0.69371318577562,0.7052283167418367,0.7128434708364577,0.7180207410273652,0.71727067849199,0.7065466687277633,0.6887017333909612,0.6711629815244963,0.681143124685003,0.6965751054372804,0.6870558279734859,0.66912626828464,0.6681895859596388,0.6956997355435405,0.7187968457902709,0.7293662277739619,0.6869114363718426,0.6272177428123921,0.5705971496359147,0.5108164676680055,0.45214919113333063,0.394828699484829,0.3342918825785336,0.2739404552199154,0.21719032161913568,0.1623114086860382,0.10826361110115981,0.05712683039093494,0.06302574468587499,0.1157832823087547,0.17595092754240424,0.2366662719583885,0.29722644887007854,0.354645162536944,0.41320071954266135,0.4738795633689016,0.5345960552862283,0.5953125472035551,0.6559068916767545,0.7135390453961956,0.7718599584023185,0.8325016857488496,0.8860165105544995,0.8755388219110127,0.8289279321902019,0.7990454540645682,0.787396937765801,0.787634846990177,0.7888217201275537,0.7608748593109189,0.721792985124702,0.6815980418047191,0.6573890504264197,0.6764654939009888,0.7035535702778943,0.7173195916338141,0.7249411726535213,0.7230039369494414,0.7205888370145925,0.7205361553967446,0.7205209815051208,0.7178169323330329,0.7034935091857745,0.702631007421597,0.7227412017170164,0.7340066035670323,0.7105612489668672,0.6569082481260556,0.599381369884328,0.5413915088372141,0.4835615055976744,0.42313724324651947,0.36589657470287695,0.30713057552516787,0.24644279860516463,0.18617544882229506,0.12944091307691727,0.0701154526759871,0.02403371948575106,0.04903720067215564,0.10720628601221618,0.16395271460381425,0.22423100367284457,0.28494686508079936,0.345662732695064,0.40596039939225836,0.46272354060069043,0.5221692433577196,0.582876639220585,0.643593131137912,0.7042534070437376,0.7624886642685663,0.8201616138317429,0.87227238696803,0.8591940602652302,0.8144833435053214,0.7880611473866891,0.7829207534619538,0.7853648104259815,0.7940841985376047,0.7993350818977988,0.7980010502822488,0.8123725619587476,0.8538177754442118,0.9062268533264228,0.9589139960195616,0.9890931218681493,0.9542098635663239,0.8955429951862495,0.8382551564614473,0.7795591762153082,0.7188736008535876,0.6581571089362612,0.5974427104183204,0.5393256480882808,0.5312976943667767,0.5825037194860728,0.64188431213951,0.6981356859093546,0.7410109987999164,0.7501274832611898,0.7396398554105307,0.7227501591338068,0.7284729940767246,0.7391695027289554,0.7395547936724872,0.7372999127669408,0.7368666568630692,0.7403561925389732,0.7396143723453684,0.7353490812185726,0.7252262811903902,0.7036655520097397,0.6783612480636724,0.6962901858466004,0.7375412234703872,0.7756735544611549,0.8044762638019285,0.8069146386317128,0.802857323190344,0.8129802105554556,0.8455976865521608,0.8953439189865304,0.9483251832995812,0.9979632885585279,1.0,0.9494567321068983,0.8902425676731811,0.8305782231918792,0.7739198128462971,0.7137517393510969,0.6530364409431376,0.5923199490258095,0.5316144332505515,0.4758877613249788,0.4789716992121055,0.5343238273350084,0.5938446783555654,0.6504842804740136,0.707815870305645,0.7485123003497766,0.7454870770491566,0.7230328717131026,0.6979590089874118,0.6870727298669242,0.702510176618354,0.7146518829697849,0.7090292760676125,0.6940218886251431,0.7085249219938272,0.7250879407216987,0.7362246931047849,0.7360300410588887,0.7289880259011943,0.7219748588679372,0.7085405204132992,0.6876747698459985,0.6998448185763698,0.7413867355351973,0.779955193550218,0.8128096299640863,0.825831250774812,0.8161964524867868,0.8101079440907861,0.8304214236215766,0.8760514188731505,0.9292046740536413,0.9771268718243675,0.9770005130996835,0.92347034500854,0.8658874264740783,0.8076006447662849,0.7469375215424515,0.6862327545454068,0.626918583738517,0.5700789365298307,0.5097238295568333,0.44900774740266725,0.38869039720314025,0.35393911048657223,0.39658217837834275,0.45711255361027536,0.5165895364611732,0.5733264913704664,0.6314438113211482,0.6804635177309503,0.7281943564397485,0.7438337851617425,0.7365074275315608,0.7170305142843137,MI
0.5405987043463159,0.5535189602036354,0.6020713638236683,0.6916559852172042,0.7822993128657316,0.8649748606376382,0.853484592313051,0.7662464656150259,0.6759311321140546,0.5897582450059691,0.5081518949253907,0.43495205963691697,0.37832285151961,0.3209945708537365,0.2569754450372468,0.19594878330828602,0.13264636638299243,0.07758042711286861,0.06996358423053861,0.11989642617355978,0.1911926031935638,0.26530756175371306,0.3456465153751829,0.4223410860992227,0.4795450762137885,0.502502165414749,0.4799627252393044,0.43795976857493435,0.45091774561402387,0.4928028538957647,0.5259978545255541,0.5394318679156362,0.5529982567797307,0.5925067459964579,0.6726494886195038,0.7603610676775676,0.8490302534026606,0.8974556656691886,0.8386985075761677,0.7591324987029013,0.6701495490699365,0.582198261968031,0.5000437790479138,0.4390438856753627,0.38745368254976187,0.3265085242412249,0.2648988807653685,0.20130634781710555,0.14213340557833654,0.11116216802587675,0.13958656028304595,0.20428253217689907,0.27728105369474476,0.35971749872166003,0.43600839425799864,0.5012056482970382,0.5400831693981527,0.5276596803351894,0.47991692774007766,0.42657512568359834,0.4299461213470974,0.47656387985675086,0.5041610234116602,0.4960374687606799,0.49166755223251135,0.5106963057704523,0.5826499483407399,0.6676011145959282,0.7469173448885207,0.7270401737622016,0.6319759875406388,0.5435876567343219,0.46038167391454166,0.3886645005935012,0.3288074705544679,0.2713171101952183,0.2150464314553706,0.1532503784332766,0.08922047144555223,0.03100851053716447,0.0,0.03407376646737981,0.10243805900683856,0.180591770321328,0.25679504643724216,0.32761153340084537,0.381910926132065,0.39522884193493724,0.37215113046258486,0.32533221205364526,0.308369271749382,0.36316773944824443,0.4099597341111736,0.4420397268460954,0.46243224550996564,0.48701305229685077,0.5247686591355569,0.6015251799284378,0.6932270788221433,0.7826108118985422,0.8210974152822588,0.7466194638288748,0.6573529057572625,0.5702912994891414,0.49022529278687066,0.41742850501577067,0.36337737578905527,0.30894133360350584,0.24541749912411737,0.18084128434869307,0.11675283222886446,0.060908145449837026,0.06295715540762359,0.12359415705871468,0.1979504622756807,0.2760378329199922,0.35434749467219895,0.43331389246847185,0.49989320503535906,0.5305153766063406,0.5213715246622124,0.47485963125565833,0.4685793422004685,0.5196575382163708,0.5653278838599891,0.6032658906637882,0.6062821812780621,0.5661468911364906,0.5230009419405912,0.5327833580152459,0.562984238866389,0.5571045083954889,0.5241319186344262,0.45657538143936005,0.3832351756070158,0.3065930554623404,0.22699424834344062,0.14871455012636092,0.09224994575860768,0.12122796413497117,0.18639346852426275,0.25204105982780955,0.31325790478184956,0.37249981677983324,0.42658027161960965,0.4887523771585469,0.5730089978102886,0.6610546920083475,0.7515783337776534,0.8423001126916776,0.9275604202069041,0.9521551223113613,0.8788344270645045,0.7851377493931011,0.6959943536646178,0.6114344131666165,0.553777831884904,0.5090802594997068,0.4876726764694512,0.4619263274001544,0.42663953502738594,0.37959501343799484,0.36982389985071396,0.41159366305381173,0.42979425181969266,0.42048450973768925,0.37551864454032424,0.30892059857713394,0.23202914846785938,0.15155198805759484,0.0809864857427729,0.04544899559431381,0.08962675125352915,0.15025135349252472,0.21315521682638305,0.2744619460303408,0.3294489427401077,0.38899624459694193,0.4580749485622855,0.538147152149155,0.6240834678086333,0.7145808183894902,0.8059189728034428,0.8781973912706555,0.8584359089676332,0.7775088367146941,0.6894175078512021,0.6044957779763123,0.5449297996196045,0.530330917452277,0.5403357657576813,0.5351882998644857,0.496981987040479,0.47404926273236003,0.5204471827443184,0.5610649863045576,0.5741914375724664,0.548899741003527,0.49371432717120545,0.4172207043027447,0.3406198592588141,0.26360437272692483,0.19418042916991585,0.1543130303001039,0.19283399691526237,0.2558942194882641,0.32146136149053817,0.378914981064975,0.43675419730279663,0.4906985375748143,0.5612030830048578,0.6448087253591588,0.7349118597161581,0.8326050809604291,0.9239116321795398,1.0,0.9910385490339912,0.9120139349432352,0.8226694072112837,0.7311851989381761,0.6430109604220062,0.5948376372555038,0.5721753529954541,0.5556092071866081,0.5228573846936926,0.4874060635339832,0.49474154491017286,0.5276295650472045,0.5293293301249804,0.5016310299873654,0.43726878731859253,0.3624154066085954,0.2868042188120654,0.21157109639712113,0.14037192626452022,0.11032653798465142,0.15532870742847993,0.22267273624379325,0.2850792734022549,0.34640939211741584,0.40509341799552745,0.4608784063058169,0.5310236184580577,0.620022113491081,0.710692937792226,0.8011774173397206,0.8916109752155226,0.9755917265328478,0.9929387462465216,0.9191292927176811,0.8253420613350069,0.7352064074946214,0.6589919177468775,0.6068475520064602,0.5760392073101057,MI
0.0,0.050263830238638896,0.1148125310592849,0.17725537294545424,0.24222353499929472,0.30567855963364665,0.3086743730936097,0.28418939458836867,0.31144086893617584,0.36769517269949525,0.4287811677271691,0.4940899556691485,0.5618902568811692,0.6198069678918636,0.6659806522429021,0.7004073465630427,0.7111099959968252,0.7113543175410075,0.7085091096558604,0.6931241759113116,0.6805469934451878,0.685194918319739,0.6880029110354733,0.6825303592912453,0.6671210698878904,0.6546904278279155,0.6562525629035674,0.6711226359370486,0.6709072831267273,0.6701518761418741,0.6472019602359862,0.6338193494345978,0.641224694083514,0.675066778646767,0.6885633350349569,0.6964514997016129,0.6745670407388529,0.6181324825419454,0.5826362050842095,0.6222784024254533,0.6910196156118322,0.765924723562214,0.7800808068408778,0.710561229343152,0.6414733811351416,0.5906724785782997,0.5620422109286751,0.5316804224433167,0.5148484125818915,0.474468612170839,0.42778964816445364,0.38335954078875933,0.3349226459401793,0.2833916468915876,0.22702960703823583,0.16948687622558767,0.11597476619886304,0.06534676834849384,0.03140989486858947,0.046266605045590437,0.09779086294354378,0.15707185016429515,0.22216718990731543,0.28688512530848365,0.35162933233329663,0.42135575368072664,0.48693089362773967,0.5473064912772947,0.6028800949981585,0.6496336212003007,0.674405249363907,0.6702748913061374,0.6575830857333846,0.650299204827151,0.6410622235382253,0.6276738204004213,0.6199257056406586,0.6295907045159761,0.6419777430995877,0.6482588794292685,0.6464792019133312,0.6530239740489567,0.659978090372533,0.6825623419370561,0.6826731127376795,0.666751452042027,0.6781453381512779,0.7170114713819677,0.7326330456103631,0.7241033177923917,0.6956548468142276,0.633604412759863,0.5939017983347292,0.6308874246341651,0.7016642986155464,0.7483806922229788,0.7019236155666275,0.6314903908211387,0.583528003821955,0.562822957143561,0.5301667807034709,0.49951834991193733,0.45816774661898885,0.4119684106911181,0.36697564891332113,0.3188502606156822,0.26580507099436046,0.21180197127953404,0.1596196640183265,0.10739537528888743,0.05282804114443218,0.01503396020092862,0.01994712577696589,0.07306311865240422,0.13639982884111013,0.19826084039596936,0.262810144358941,0.327958513411992,0.39455946986629,0.456903680307152,0.5254969591642973,0.5860609370044043,0.6398392661829131,0.6774753360090244,0.6878218117446107,0.6920972519041355,0.704508540650308,0.732822193230805,0.7396743059963187,0.7280580949468327,0.725160758416316,0.713810162757744,0.6874270666461053,0.6370999707321992,0.5753764021015126,0.5137371761749914,0.45220625913014123,0.3884304811710928,0.3219520691071178,0.25704726521013077,0.19125127040735834,0.123911030075885,0.06730324282771472,0.06833510107427454,0.11489744468560148,0.17217149285650724,0.2252383068043462,0.27916769553297893,0.3299900647074667,0.38004535658798444,0.4257386885831198,0.46920379504776166,0.5130358214900059,0.5489774333178015,0.5792502145050276,0.6046069364346596,0.639246352902036,0.7049462412583269,0.7760089594715234,0.8532585026029109,0.9329560338023011,0.9921965248556004,0.9780779277283418,0.91063599420693,0.833334709442229,0.7614785490623064,0.7129214897989924,0.7468608961559455,0.7593640351157596,0.7701905617996567,0.7626586621921312,0.740124418355258,0.7097412373782588,0.7128900729325129,0.7146912161634555,0.7014368894696899,0.6884569386516872,0.6813766305001163,0.6805035474630874,0.6723252655845096,0.6648909787933523,0.6547726997370686,0.6642496891520788,0.6731162597395681,0.6843588406945307,0.6948829784216122,0.7100710072068239,0.71420195003878,0.6991907228549212,0.6609576680220757,0.6105922914057185,0.5493645424061642,0.4833441897077082,0.4200668047382645,0.3568095305105552,0.2920120356651488,0.22716574442385218,0.1627210280953273,0.10084135790599946,0.0696683321422995,0.10472987642388887,0.15436008895850017,0.21480186661393308,0.27314997047784506,0.32536861617916113,0.374186322824301,0.4223428835118348,0.46861086965586196,0.5130543525128779,0.5506245354316353,0.569494719078389,0.5982193666156039,0.6315483200697487,0.6922804494548054,0.7632965069688515,0.8350486864127447,0.908764245514867,0.9781114712816603,0.9999999999999998,0.9441377736504466,0.8723538445795558,0.7947268924011006,0.7246042257593384,0.7185174628164284,0.7438374006697461,0.7300325790308257,0.7207271986505968,0.7050076940214491,0.6723386381473508,0.6764356979718009,0.702611691182877,0.7119114052983433,0.7046488004182188,0.6972617350801669,0.6843458078729168,0.6928156124167353,0.710883268133373,0.7159624216857037,0.7160201646302731,0.7162704873906287,0.7261438506788973,0.746829108467433,0.749141333656022,0.7465826564483471,0.7456418255553341,0.7407367306641282,0.713187644004053,0.6704260226744716,0.6126254665185897,0.5513921729027655,0.4956650675710781,0.4819572054130854,0.43966991796002075,0.37739628578909157,0.32456858712529235,MI
0.4512804657823767,0.5079544794411671,0.5591367844824534,0.5605875684307157,0.516095312267073,0.4636497837103922,0.4186251389665344,0.4104143102844192,0.4588653052853403,0.5218704659216112,0.5830959085984045,0.6538844830444571,0.719060400124656,0.7660238764026271,0.7664585408437413,0.7484317619958373,0.7506393367624357,0.7754079604418472,0.798944256613037,0.7903427319738282,0.778476166555993,0.8088386855043205,0.8309721707715289,0.7817374319065883,0.6970688511188384,0.6072442970062338,0.5185976679496326,0.43137014722864564,0.3445977707980429,0.2554294886445837,0.16762324463022216,0.08582617786913493,0.07271141384061253,0.14966170275243307,0.23613604370019992,0.32817878656814814,0.42064192953277846,0.5131054403634844,0.6055689511941896,0.6979353346068532,0.7828763737692194,0.7943979745806008,0.7229843681168847,0.6535091830260135,0.5983899566173753,0.555292914928957,0.5064614323257716,0.4578199292736721,0.41782276944314967,0.4293001146041905,0.48853819970184975,0.5581557860378491,0.6237656875978755,0.6832461876529615,0.7445993447300286,0.7656903938760616,0.7443116066036856,0.7308143299118385,0.7404244140736648,0.7621540622462072,0.7666754683189171,0.7501823679840415,0.7698484339192503,0.7988464601419297,0.758746683265579,0.675599671084416,0.5857192853996204,0.4986967565821908,0.40952180473947253,0.3201774186117764,0.2333873767551503,0.14809837668652148,0.07224962149101188,0.0,0.022245605720767725,0.10507262623521241,0.19698039350263863,0.2894384557895794,0.3806020989085722,0.4665145046867293,0.5578413532223133,0.6502902190755527,0.7405605490309998,0.7959767121656617,0.7440486760393686,0.6654902593274833,0.5954388927798427,0.54119781150398,0.4982778605770596,0.44904213879040655,0.4004898749292719,0.3674826146354505,0.39815730572298913,0.46212170574206424,0.5310323267563727,0.6006201719836349,0.6715069485590689,0.7274698622682182,0.7407053935990245,0.730371512416968,0.7350686923949162,0.7171733361781142,0.7069465357080621,0.7135114814831464,0.7124094581005233,0.7400016737700373,0.7809419240843108,0.7829715919408285,0.7122843754123248,0.622118049660381,0.5356035087297285,0.44586661190037213,0.3578904491167113,0.2698906553436503,0.18238609505971282,0.09494537735511999,0.03037382323252824,0.06799219086852415,0.15824720004094583,0.25064743390963196,0.3396263713572626,0.4268780915364482,0.5191027474245816,0.6115316490082828,0.7006569070870835,0.7539844889910389,0.7030523717208194,0.6342413955104799,0.5804233235877078,0.5385137815148006,0.4912328363722519,0.4426133347757807,0.40419745767343074,0.42539170213159594,0.4765751582873531,0.45159182957245825,0.4396545181662562,0.4874852381312119,0.534370383375114,0.578103582151971,0.622581363355094,0.6889837390330752,0.7667019014701021,0.8490352376667493,0.931509169895406,0.9835908629094853,0.9325746020905722,0.841463313854962,0.753052982278185,0.6652788802334649,0.5730012115667983,0.4864943218071488,0.47700637145726843,0.5600427145824253,0.6460852372303297,0.7348447054813535,0.8145683149559785,0.8408910244730899,0.8088705528073129,0.7684888170545897,0.7371001043336057,0.7385443585910466,0.7347309187041354,0.758570549616253,0.7709605113035366,0.7544555383063855,0.7617593374915336,0.7639664543775792,0.7280329429527358,0.6646149448342814,0.5963482499074154,0.5269487636861522,0.4560341679350842,0.40532295814521657,0.42973489272541066,0.4785112733176641,0.5249082471931109,0.5688592941511698,0.6263066333433783,0.7035555912917194,0.7850025204725651,0.8682842056638437,0.9527794173646443,0.9999999999999999,0.9480202171319233,0.8639283540639083,0.7784392601085482,0.6871978859077924,0.5949824999963856,0.5287758154428025,0.574959654364061,0.6645437421120889,0.7508367678933409,0.8311876119661431,0.8592880137993085,0.8262171817572944,0.7903472513548545,0.7805187010928526,0.7977409769158835,0.7829445929918585,0.7613920237195194,0.7584581649231826,0.7794594477709923,0.7972011989691513,0.7732402244870119,0.7169953723508157,0.6500751953711145,0.5788726601344364,0.5065758661958523,0.4543088391661968,0.46855939817330305,0.5178128523980791,0.566158775031749,0.6093180610226213,0.6626419364397901,0.7317139343948932,0.8112187733960404,0.8943142984606965,0.9723100863561357,0.9781838258920771,0.9009938509734733,0.8148456879107887,0.7254376461904765,0.6345179326926956,0.5959892449877436,0.6692473189862672,0.75860969651481,0.8399586824403616,0.8857769072327494,0.8627719639350057,0.8271094153779787,0.8056857206912743,0.8240343695639464,0.8199815652762793,0.7956856664773563,0.7740947169991926,0.7793466371172578,0.7986990199219194,0.7876740661273661,0.7392002948962658,0.6716443446205559,0.6003837970523097,0.5314565460927093,0.4683011450868587,0.4454600869498716,0.4923701459769737,0.5566447685337391,0.5847404459471174,0.5733023963561331,0.6089473123075585,0.6616344994437341,0.7335589042295362,0.817960569961835,0.9050543056628767,0.9773696277708771,MI
0.8762368429996683,0.8762369508314527,0.8767044479530277,0.8809758543832946,0.8632769980048316,0.8561489251926706,0.8754661692878671,0.89563430087368,0.8723374745700867,0.7989296322927353,0.716988378472216,0.6359395749539083,0.5472923697658063,0.4664109095695257,0.37963491738109445,0.28974339513693526,0.20194438409692994,0.12164864120542429,0.043301372711718855,0.04661744148861868,0.1265059080307147,0.20308223471988085,0.27178340369617704,0.3441459548247219,0.4197301410665928,0.5008407966685209,0.5902292792886568,0.6787280460887035,0.7590273445609124,0.8463082561902859,0.9162530771709405,0.9197507386852157,0.899358522218682,0.8796548991195627,0.8634777016334683,0.8377631227084765,0.8016383197622639,0.7583079115792013,0.7110042786050179,0.6761083495698492,0.6818635515521034,0.7229124110639324,0.7769202515995475,0.839182337766986,0.8819741012837703,0.9075968688774911,0.9162840738382263,0.9148297180485767,0.902881829112482,0.9019856390942622,0.9019522082478635,0.8981224063610704,0.8942118456730968,0.890590185203568,0.8889196427423567,0.881943538572886,0.8749426328698391,0.8739394365071087,0.8811450909526308,0.8755012399103261,0.8609907858567865,0.8451918163133483,0.8611937210044323,0.8762251520806306,0.8628921667640932,0.7950584312356304,0.7308864413080445,0.6546392606212494,0.57068644875763,0.4810341506180915,0.39773434385894335,0.3138056049907616,0.2240254985709207,0.13756916461315827,0.057428972156848834,0.003977133891932105,0.053376025715423436,0.13496304749049348,0.21934704527192106,0.3091735397514328,0.3982344383838974,0.4788711154951324,0.5660612404331014,0.6557738123779429,0.7388137531318146,0.8225978030286099,0.8968255244995573,0.8991250621215867,0.8738277846778186,0.8573965852838747,0.8457153203085621,0.8240600814963868,0.78699523976944,0.7460723524810313,0.6950027802564955,0.6614567455339189,0.652196675711614,0.6844187374128274,0.7331193583193809,0.7928682667045486,0.8437096744915711,0.8745486038095893,0.8879430548852509,0.888867022319781,0.8815665051877746,0.8763138672363615,0.8762368429999512,0.876236842999957,0.8762368429999623,0.8762368429999685,0.8762368429999738,0.8762368429999801,0.8762368429999854,0.8762334750423504,0.8744283755560174,0.8580409958968569,0.8630398341668468,0.8777297918241702,0.881189256587886,0.8332705453029039,0.7540629753098733,0.6714046961449311,0.5841768523693467,0.5037052913728723,0.41474877144616396,0.3272409010983197,0.2468081909523765,0.15788966523635173,0.07164485790290143,0.0,0.008526395679049115,0.09270055682803702,0.18212429010240894,0.2634761223798363,0.3495918822026056,0.43947952416841574,0.529181803247708,0.611958265963592,0.6964259641386945,0.7836210151261369,0.8632711373188933,0.9152977675489082,0.9258522868423529,0.9589288457851928,0.9884161846554052,0.9514083608609218,0.8696751507555778,0.7798591091872749,0.6907662393021536,0.6100745234859999,0.5229909254838054,0.44274812814568576,0.4639999662127581,0.5515868273457303,0.6353939617551394,0.7185459135185845,0.8004556511563798,0.8749175113955872,0.9163953898357939,0.9164313968250073,0.9063671694008999,0.8991666982618587,0.9063740958163549,0.9071338973090866,0.9071344824780745,0.9071344824780687,0.9071344824780634,0.9071344824780572,0.9071344824780518,0.9071344824780456,0.9071474546892162,0.9099139639157068,0.9191675560258075,0.9200077818863277,0.91987502331577,0.9133089738011768,0.8916592176896647,0.8451348292772627,0.7916830725300334,0.7357476658138642,0.6974437209269049,0.7117300660780896,0.7561531248006177,0.8014053909258396,0.8398130272061115,0.8716759197075619,0.8927297948945823,0.9033568611179832,0.9214147083162967,0.9605991732881609,0.9883992504476882,0.9429209090343171,0.8648018324833817,0.7805014323908273,0.6988411929520195,0.6094005036175885,0.5383548368483437,0.5821763205543506,0.6690984699175686,0.7487800468102375,0.8277426149387721,0.8958017091778445,0.9187033366656467,0.9054801375446537,0.8918432671650494,0.8982598728210491,0.9128896913160607,0.91576010101757,0.9199549398664164,0.9200084989271184,0.9200275019836597,0.9232745256764119,0.9322205485531381,0.9328821115311752,0.9328825153762939,0.9329002487811775,0.936051614413504,0.9470312556785547,0.956541983598064,0.9486985556940328,0.9424795542873086,0.9136935819194889,0.8661197783330774,0.8075130410740141,0.7534736081509243,0.7143678903600801,0.7323075263428946,0.776665228259203,0.8215816124257338,0.8617350148195801,0.8875432575013518,0.9085784598319457,0.9277231424797048,0.9466238970731582,0.976376429301097,1.0,0.952957674786429,0.8747556162657846,0.7917226066168861,0.7081785317025797,0.6187467041330117,0.5623599349868971,0.6239911501397943,0.7082106856603356,0.7901582109262364,0.8684770852392387,0.9266315499560829,0.9438011263013153,0.9228869780962055,0.9033271097346676,0.9041505686715627,0.9179334895384144,0.9094703586652026,0.9071420549250391,0.907134482477757,MI
