0,1,2,3,4,5,6,7,8,9,10,11,12,13,14,15,16,17,18,19,20,21,22,23,24,25,26,27,28,29,30,31,32,33,34,35,36,37,38,39,40,41,42,43,44,45,46,47,48,49,50,51,52,53,54,55,56,57,58,59,60,61,62,63,64,65,66,67,68,69,70,71,72,73,74,75,76,77,78,79,80,81,82,83,84,85,86,87,88,89,90,91,92,93,94,95,96,97,98,99,100,101,102,103,104,105,106,107,108,109,110,111,112,113,114,115,116,117,118,119,120,121,122,123,124,125,126,127,128,129,130,131,132,133,134,135,136,137,138,139,140,141,142,143,144,145,146,147,148,149,150,151,152,153,154,155,156,157,158,159,160,161,162,163,164,165,166,167,168,169,170,171,172,173,174,175,176,177,178,179,180,181,182,183,184,185,186,187,188,189,190,191,192,193,194,195,196,197,198,199,200,201,202,203,204,205,206,207,208,209,210,211,212,213,214,215,216,217,218,219,220,221,222,223,224,225,226,227,228,229,230,231,232,233,234,235,236,237,238,239,240,241,242,243,244,245,246,247,248,249,250,251,252,253,254,Target
0.6932475209443238,0.7016202936528607,0.7079778095051884,0.7088684773976474,0.7091042959592359,0.7135137125137714,0.7150313092327099,0.7158517092570116,0.7206596547524795,0.7212001805641055,0.7213481431881219,0.725334508194952,0.727594896688309,0.73203546356301,0.7335268982091385,0.7335295819046905,0.7322878220259241,0.7212665912393112,0.710263931717281,0.7117942022972636,0.7150747279214349,0.7216966372745275,0.7390645280036834,0.7486604751726806,0.752228719675982,0.7567286197865251,0.7553739119272513,0.7334798559639624,0.7076142998371973,0.6810185921455617,0.6522999018315355,0.6314704561549523,0.611583993898984,0.5914775294700063,0.5653088698443689,0.5360508201056653,0.5067460108287932,0.47744120155192094,0.44813639227504865,0.41889889072338893,0.39299532435807216,0.3663563014570137,0.33708277098076345,0.30777796170389127,0.2784731524270192,0.2491683431501469,0.21986353387327484,0.19062875362038684,0.16475065512361559,0.13808478785746514,0.10880991257898953,0.07950510330211735,0.050243110061512164,0.02410109447862735,0.0007695679600566718,0.0,0.02197244327769099,0.04912648322364427,0.07841705345272942,0.10772186272960166,0.13702667200647378,0.1663314812833459,0.19563629056021808,0.22494109983709032,0.2542459091139625,0.2835507183908347,0.3128446520132462,0.3402636092188075,0.3654457557978408,0.3946043599029486,0.4239091489619923,0.45321395823886446,0.48251876751573664,0.5118235767926088,0.5411283860694809,0.5704331953463534,0.5997380046232257,0.6290428139000979,0.6583476231769699,0.6876524324538421,0.7169572417307144,0.7462620510075866,0.7755668602844585,0.8048635635199675,0.8325141532698759,0.8575101705742441,0.886620525500234,0.9159250639346572,0.9445189929728588,0.9492305478183225,0.9220573793403597,0.8965790381834207,0.8696890708413714,0.8448714990647328,0.8217760672594197,0.8054665671701347,0.7977567043965244,0.7952098937011916,0.7952431128796289,0.7988497559388108,0.8064628888675973,0.8089352224899986,0.8099623857822549,0.7989654025026005,0.7840094100973904,0.7655622401623847,0.7486352370392708,0.7287736009313734,0.7099945581171346,0.689546148076611,0.6687886510066545,0.6488287390258697,0.6365818738254063,0.6405467690206456,0.6546489369676703,0.6696038430099069,0.6855391401752812,0.7013027785371865,0.7098998463530146,0.715177925789408,0.7203276346376888,0.7251425395694591,0.7273501480669107,0.72734306166787,0.724858549193482,0.7212756780780121,0.721074827989086,0.7171341447110473,0.7136390981878318,0.7091222938183415,0.7078888358869397,0.7028556213991854,0.6975824590001098,0.6891273357474238,0.6748756254262934,0.666116304308266,0.6602328541265026,0.6490560123392267,0.6529215855905586,0.6706087687231084,0.683486968983227,0.6892579056882828,0.690975081890501,0.6952987781746213,0.6827531077619113,0.6542945548035717,0.6269752375282275,0.601687666640298,0.572536737996418,0.5432319567804975,0.5140611193799131,0.4887671233855292,0.4614707951740342,0.4321783278173801,0.402873518540508,0.3735687092636357,0.34426389998676366,0.31496960007397246,0.2876861132466002,0.2623675809245454,0.23321025934610806,0.20390546941560633,0.1746006601387341,0.14529585086186197,0.1159915285921731,0.0872350639784143,0.0627400169360075,0.03435772274349996,0.011529959584500094,0.011801326610387797,0.03730261771934823,0.06659357842273833,0.09589838769961051,0.12520319697648274,0.15450800625335487,0.18381281553022705,0.21311762480709928,0.24242243408397135,0.27172724336084353,0.3010320526377157,0.3303368619145878,0.35964167119145984,0.38894648046833213,0.4182512897452044,0.4475560990220766,0.47686090829894867,0.5061653482305998,0.5349172589990268,0.5594647128856408,0.5879154877829171,0.6172193388701066,0.6465241481469786,0.6758289574238506,0.7051337667007236,0.7344385759775955,0.7637433852544679,0.7930481945313399,0.8223530038082123,0.8516578130850845,0.8809626223619564,0.9102674316388286,0.9395712826437661,0.96819413236034,0.9922355910602834,1.0,0.9738717698076491,0.9479582709550052,0.9213395627721321,0.8937190084949793,0.8687774268232205,0.8432407756282092,0.8219288063245864,0.8071670985774946,0.8015663509569044,0.8020574114461059,0.8082034691542506,0.8135400357199696,0.8179277213814822,0.8185207217539081,0.8085386407231725,0.7956960724547653,0.7808912459797794,0.7630268729166634,0.744972491153963,0.7250324692792376,0.7044035696831008,0.6838000960763629,0.6613258068849096,0.643525302060308,0.6355961444344815,0.6408500342509482,0.6577238978232968,0.6788562278003333,0.6964781488619056,0.7106923767098398,0.7222815795991007,0.728437910182727,0.7331608792971045,0.7335317583146461,0.7335318677697884,0.7335318677697891,0.73353186776979,0.7335316586394662,0.7331083077480813,0.7283956152895947,0.7273496171550766,0.7250387081698391,0.7213012539992776,0.7212006478209285,0.7212006361433907,0.7212006361433914,0.7212005336599163,0.7208203774807385,0.7128536707041193,0.7034195306915948,MI
0.5705956178769876,0.5969456832158021,0.6248843067532218,0.6528223040198721,0.682406474447428,0.7136208862794459,0.7373232167147844,0.7235950616222356,0.7273409712237601,0.7525787447884839,0.7808399181252571,0.8054822459041547,0.827753800800905,0.8434266447854547,0.855479238551819,0.86806212730351,0.8747315620383801,0.8751077650183728,0.8751077650183742,0.8751077650183751,0.8751217483024688,0.8777943515677967,0.8830326631009838,0.8832468399885803,0.8872076371667487,0.8910641638957005,0.8858943371444049,0.8832032432347398,0.8831598736900682,0.8794940025932904,0.8664046448599575,0.8543738295589919,0.8439820988320158,0.8509241174630168,0.8647422556556873,0.8778093338205545,0.8916446962412713,0.8989595190894973,0.9040251783503853,0.9022660945471311,0.8993698563572087,0.8993517832858134,0.8993517832858146,0.8993465650032882,0.8969974627548821,0.878743817114915,0.8476121097149377,0.812251482422076,0.781039978786399,0.7442374890601337,0.7070317507945686,0.6699422363388877,0.6375237825344636,0.6034683791720431,0.5662896787349755,0.5290838258644596,0.4918779729939433,0.4546722907327386,0.4179563151713973,0.38689072156600235,0.3511336353182052,0.3139300480638345,0.27672419519331826,0.23951898470394994,0.2032595193390121,0.17238023093362864,0.13601401581552464,0.10548816349930101,0.11198721657195165,0.14516473016568443,0.1823468273497102,0.21955255152146247,0.25631398005219974,0.2874607279343775,0.32309259641086174,0.3602947522798192,0.3975006051503356,0.4347064580208515,0.47191231089136776,0.5091168708266732,0.5453599956547456,0.5762467153968301,0.6124931751920067,0.6420080421112312,0.6711004168602107,0.7081092627175664,0.7453151155880823,0.7823719627679163,0.8145767994316825,0.8488721917514371,0.8859479318159574,0.9181397217156887,0.9411000579434116,0.9561497292108284,0.9616322821489868,0.9617753772608141,0.9688452688745183,0.9711714679728841,0.9648184332768971,0.9597155072948959,0.9454554988224227,0.9230447914281877,0.8982632627910242,0.8734551782964238,0.8473604322071823,0.8211679734195559,0.7963549210906443,0.7715470776328729,0.745828345099235,0.7172623198603455,0.6891177005708583,0.6639079923272725,0.6383336113719053,0.6171204565329221,0.5925589256433762,0.5702904542201804,0.5611688531169995,0.5747102372135034,0.6009773768060461,0.6282675004144181,0.6535273818946469,0.6831075879667142,0.7125049781532252,0.7404412905209213,0.7683351435328843,0.7945641943823664,0.8213246875025452,0.8401660740039233,0.8560474715925891,0.8654025207322938,0.8727065440914211,0.8749415823740477,0.8697160110778287,0.869155128199513,0.8748340303389254,0.8751077650184337,0.875107765018435,0.8751077650184361,0.8751077650184377,0.8749726442209941,0.8699740583032259,0.8670449182212828,0.8676223086478759,0.8738173612368468,0.8721269066806724,0.8584162566486179,0.8450463520488692,0.8428413214454974,0.8471114335286757,0.8639706354206461,0.8830457714201706,0.894588143878695,0.8992613341011145,0.8993516304792674,0.8988708753633964,0.892747958410195,0.892126674311931,0.8984656443597402,0.8992818890697111,0.8931693167861191,0.8685496558631906,0.8359734971214984,0.7988421049393327,0.7618978000869724,0.7303472443870304,0.6952962567403181,0.6581000328797403,0.6208941800092241,0.5836883271387078,0.5464831285178128,0.5102371826089783,0.47935301030835353,0.44294536813246865,0.4057404022085992,0.36853454933808283,0.33132869646756646,0.2943265049737903,0.2625976512962679,0.22778087847786355,0.19058662440797414,0.153380771537458,0.11617491866694263,0.0791001255381718,0.046847438383595286,0.013362739705871207,0.0,0.027158695243338582,0.05864026116507759,0.09557542602142444,0.1327812788919408,0.16998713176245694,0.2071929846329731,0.24439883750348967,0.28160469037400493,0.3188105432445212,0.3558201526727355,0.3877379110028798,0.4223604954487543,0.45955261530411406,0.4967584681746303,0.5339643210451467,0.571170173915663,0.6083760267861794,0.6455808320062423,0.6819465230849927,0.7128085333948205,0.7491186967201428,0.7863239517162884,0.8235298045868046,0.860718779038825,0.8950311699288421,0.9272041469709932,0.9639394234734296,0.9879894034560178,0.9957868129985147,0.9963824562120834,1.0,0.9984224667126677,0.99631592908523,0.992773051105189,0.9802313028325332,0.9635883677617659,0.9400729678840062,0.9108967837138512,0.8854871451846674,0.8606709900572996,0.8317498590739211,0.8066069112181767,0.7793589023651651,0.751496433068023,0.7255971830039151,0.6995868932322157,0.6673895895373848,0.6377681250186799,0.6142335618232472,0.5894391864735925,0.5647041921422397,0.5434791933539861,0.5367050089093753,0.5542744771779476,0.5813404577560707,0.6088538869389296,0.6401328409962282,0.6685864838753194,0.6964753554267885,0.7245198734686248,0.7538554614149128,0.7791106237210438,0.8055356525197718,0.829910590753938,0.8495348239312267,0.8604253510489442,0.8704182062747946,0.8795533721146355,0.883156999110173,MI
0.8144053463233534,0.8143794058943308,0.8083792340806282,0.7994409593679146,0.7992765904296442,0.7992765904296477,0.7992765904296517,0.7992765904296553,0.7992765904296588,0.7992765904296624,0.7992765904296659,0.7992765904296695,0.7992765904296726,0.7991254866019863,0.78915198301776,0.7841663213305812,0.7841478345359651,0.7841478345359683,0.7841478345359718,0.7841478345359758,0.7841478345359794,0.7841478345359829,0.784147834535986,0.78414783453599,0.7834328010195857,0.7674601442880307,0.7447365301950799,0.7387914013668748,0.7421902858934679,0.7619418712121777,0.7689832442125746,0.7692874012605535,0.7817644485079587,0.798254675262434,0.7871029040137425,0.7612046723427484,0.720568039359414,0.6845521721326548,0.6376642649992865,0.5992893808847453,0.55728300865943,0.5116053114763126,0.4759500460833235,0.42933362174882506,0.38163393508130383,0.33393385767521666,0.287501181968032,0.2522191641402698,0.20596172570461113,0.15826230394459273,0.11056222653850578,0.06368013244420223,0.02861780859297669,0.0,0.021267400202573228,0.059951784705561284,0.10098905000844427,0.14865109431799883,0.19635117172408578,0.24405124913017207,0.29175132653625857,0.33945094697690426,0.3859776248366935,0.4215395783383773,0.4674234895541409,0.5151229576729732,0.56282303507906,0.6105231124851467,0.6582231898912334,0.7059232672973206,0.7536233447034069,0.8013234221094931,0.84896903257882,0.8895837927819685,0.9293555738121047,0.9750283890666149,0.9720442013955428,0.9340367268661236,0.893895141808148,0.8602428510991711,0.8324845691977645,0.8090557536630891,0.7921644493426103,0.7842435147233737,0.7841478345360495,0.784136185441354,0.778919133969787,0.7692263733699622,0.766433179874614,0.7540236213228679,0.7404610420558124,0.7244932557921335,0.6988926211556983,0.6737146822092868,0.6498564713153194,0.6265419740949012,0.6091171826882165,0.5859740488915879,0.5715271494468808,0.558731640908027,0.5572285524752538,0.5613584544417889,0.5827648887372621,0.6079368170265003,0.6379010633882132,0.6624147005528527,0.7000629105786995,0.7322066212073808,0.7559270234461217,0.7738207335424034,0.7945425242326993,0.7992723254190484,0.799276590429836,0.7992765904298396,0.7992765904298431,0.7992765904298467,0.7992765904298507,0.7992765904298542,0.7979725638123765,0.7855719215470569,0.781892202436314,0.7699773846703568,0.769019376663366,0.76901907864243,0.7690213402615989,0.7716497709526822,0.7835134847055052,0.784147834536165,0.7841478345361685,0.7841478345361717,0.7841478345361756,0.7841473312119254,0.7824043088957606,0.7702288602348366,0.7690195620986584,0.7690190786424704,0.769019078642474,0.7690190786424775,0.7690190786424811,0.7690190786424846,0.7690190786424886,0.7690190786424922,0.7690190786424957,0.7690190786424993,0.7688251322931166,0.7534006845745673,0.7385498413810407,0.7272609840189617,0.72507001500925,0.7430384874797178,0.764945135201561,0.7690211746045068,0.7721719313105124,0.7836176530754781,0.7806510819190877,0.7530920777702166,0.7133274355958088,0.6782246715117775,0.6322364725002494,0.5845372494208574,0.5368371720147711,0.48913709460868304,0.4415212223023386,0.40300710298666953,0.3611412904263638,0.31346554087806,0.2657654634719715,0.2186707411363631,0.18272096487298284,0.13779075201774194,0.09009425412109962,0.04405445678823039,0.01728949736005081,0.02260789626062687,0.056632161843496176,0.10397676809088807,0.1513579268690719,0.18782293857868448,0.23195139681470156,0.2796483218215151,0.3273483992276014,0.3750484766336881,0.4227485540397744,0.4704486314458607,0.5181487088519487,0.5658487862580355,0.6135332974010841,0.6566720146992866,0.6940583506907991,0.7415203399886625,0.7892204173947488,0.8369204948008351,0.8846205722069236,0.9323206496130103,0.9796770475696035,1.0,0.9698139769104115,0.9449402930772743,0.9134885379708857,0.8769423346451104,0.8450707187707924,0.8141290888830977,0.799639731882773,0.7945999441012797,0.7843877611005938,0.7841478345362827,0.7841478345362862,0.7841445231925137,0.7804631882112125,0.7693193428633651,0.7637169782071491,0.7430798130091123,0.7270016601532387,0.7087448803076617,0.685004474116309,0.6642822008930773,0.6437841304913636,0.6191035956909796,0.606757063077616,0.5956081920482483,0.5876045086781505,0.5931434704200704,0.6160289375251935,0.6469392278231401,0.6779480483262654,0.7052717422752326,0.7337457789982746,0.7576192247968065,0.7814914157731723,0.8048968373906482,0.8215321587241564,0.8294864036807272,0.8335796155896236,0.836820998614074,0.8399930771097406,0.84368403180568,0.8311006533945773,0.8238154483825006,0.8145868874498161,0.814405346323809,0.814327737224529,0.8054962841738753,0.7993028653089342,0.7992765904301007,0.7992765904301042,0.7992765904301078,0.7992765904301113,0.7992727492713345,0.7952133376986792,0.7844221054761866,0.784147834536403,0.7841478345364066,0.7841478345364106,0.7841478345364141,0.7841478345364168,MI
0.44487608447903504,0.43472441425173514,0.4284443901898719,0.4349214358749153,0.4492473742136115,0.4572998067830486,0.46233897705177174,0.4503868538837986,0.4259017953947072,0.40003647895494543,0.36994872088474906,0.33551516055775876,0.2994778765464664,0.2607082219542206,0.22115220955028791,0.18385072598280428,0.1473838760940137,0.11026987113795272,0.07520137053752507,0.04199895059166303,0.011604366583983894,0.011822310922152468,0.04577804303299082,0.07847983521467938,0.10986027050332214,0.1399753504641329,0.17052756552744308,0.20266417841481477,0.23061655599338604,0.2611356115988229,0.2881879882224553,0.30526512556793095,0.32159098518118123,0.34743674549913484,0.3828873631601074,0.41786193536253047,0.4474171311216927,0.4884379988528976,0.5305597437674626,0.5709336722582484,0.6156346401094511,0.6560215743023013,0.6981686532325241,0.7425590613706731,0.781790968971999,0.8254878524213135,0.8678172130480674,0.907886393357446,0.9467863061886693,0.9610859551954375,0.9320681296134915,0.8875901208726481,0.8425725193692616,0.7981352766247728,0.7588487754328678,0.7152025868378297,0.6706049785565505,0.631118285490789,0.5878350037201822,0.543452519350334,0.5042255346614676,0.4604735150533744,0.41769842646650146,0.4138304300774672,0.4473856176543659,0.4746917945650545,0.4768371299600619,0.45743375325366065,0.4405760770726307,0.4248831797179954,0.4306873548919058,0.44813487753472436,0.45669098933465835,0.4488027054474387,0.43312457510747093,0.4337587817553997,0.4460930524802619,0.45887738818785484,0.4697525183735941,0.4666741802294082,0.45261956995328656,0.4295980734714605,0.4007341506612484,0.36622718377743746,0.3314625418620788,0.2954715723279534,0.2594422797323387,0.2233691796068339,0.18607060019445487,0.15017193834979314,0.11537627609496115,0.07952291250258603,0.04634740903341816,0.02913853483389406,0.05383238747876806,0.08655890154495816,0.11765809777723846,0.15092751855181874,0.18305431807963657,0.21509569135915696,0.2452512797954246,0.2736928396591497,0.3002333846614794,0.3233603510032824,0.345565914455659,0.36323902787726425,0.3904398746719956,0.42707785423626954,0.46680992025255386,0.507968938864429,0.5482991808629193,0.5903159404764079,0.630989582432311,0.6727888564218444,0.7175767399751464,0.7576882491783433,0.8001381694964443,0.8443953028076879,0.8835942592226028,0.9263136939704458,0.9634781862028755,0.9721322794780197,0.9402882250560188,0.8986739435076846,0.8546626354379664,0.8154906952222784,0.7713506019623407,0.7270134147520498,0.6878477500966164,0.6440765299833341,0.6031342010775816,0.5615846644007846,0.5166379295706564,0.47403784946027894,0.4343253846195395,0.4099386037473792,0.4383139272218145,0.4742228659891964,0.49446581754090035,0.4853083253831728,0.46524975999064366,0.4472694733995607,0.4338069043607763,0.44695059307462903,0.46450297400858676,0.47037320343263567,0.45897776397323364,0.4479844011526001,0.44730532214691066,0.45660225036386903,0.46885585336854374,0.4798678409041185,0.47689366302581304,0.46221976227803696,0.43436547677357573,0.40161519270719304,0.369225227263276,0.3336058163245911,0.2981205926111229,0.2630670741714317,0.22607132709215605,0.19078946081516646,0.15489795724205224,0.11742821126814451,0.08038177720223816,0.04830207964428901,0.03929076263940168,0.06457318706842197,0.09656190412334642,0.12781441689513706,0.15834503097038677,0.1939920118330326,0.22623905868399097,0.2549456955713908,0.28172698245793326,0.30441921432343555,0.3271651442673488,0.34445576694648083,0.3686414934934331,0.4005383707804516,0.43763288156771074,0.47836840440063655,0.5186082269305531,0.5536917928536954,0.5875102097277459,0.6308738882903352,0.6751534117339945,0.7143564628489979,0.7582367610558723,0.8032526775173626,0.8482709492413244,0.8931197052960577,0.9334081291987945,0.9740806127873126,0.9999999999999999,0.9842202024745291,0.9430325008710546,0.9038034068122557,0.8593686998468882,0.8153978277418424,0.7786409946314415,0.7457958946898932,0.7023621472465863,0.6586567595736491,0.6194230484419286,0.5749947428199881,0.5301937617415261,0.49010200588962183,0.4476117683522952,0.40368514965783564,0.38768427562436847,0.42314313132840964,0.4550621354722234,0.4699868642403561,0.4578569020350082,0.43846621544573183,0.4191758478532853,0.4034019293261878,0.4132452238264256,0.43185175586939584,0.43277366186217614,0.4258610849115817,0.4100710529295676,0.41068771939188176,0.4213056800398082,0.4356587886062172,0.44159975662979456,0.42963578226213917,0.4089957712271176,0.3841698407057469,0.3525053323519193,0.3190103879311762,0.2871375693337169,0.24963234103051068,0.22531246958297435,0.19039841833199633,0.175438234455649,0.14848759881507678,0.1092004254817277,0.07371279069788816,0.0399009448521257,0.008874374826912779,0.0,0.028015917710262017,0.06080775978854969,0.09592868976205604,0.13211163118144842,0.1662846621088686,0.20368697468894303,0.23657869060612147,0.2634515233227034,0.28256403518400786,0.2846956594680131,0.2560621824858663,0.22659778582115286,MI
0.09450197354908363,0.11598634511765316,0.1394004820204826,0.16430751457698634,0.19364263562848283,0.21752883383279575,0.24274624599751193,0.266920681888661,0.28879025815189163,0.3135459119332894,0.3348943315258598,0.35644310729128026,0.3766901963958852,0.39954057696998413,0.4196172554784755,0.43589541137907617,0.45259729162677764,0.4713923910018888,0.4890934271615145,0.5025483967811609,0.5155988994514779,0.5305759758640444,0.5581197356251598,0.5898763493448395,0.6245001592274838,0.6535978370901933,0.6873398171848061,0.7222063751239932,0.7518323888814792,0.7848420816093783,0.819563590147352,0.8488015633572678,0.882335301267566,0.9174505522068453,0.9521139491560883,0.9716545819636105,0.9609267513783671,0.9371939984951129,0.9090607955152948,0.8778067855188384,0.8482007088613569,0.8152810784800198,0.784089533664274,0.7528592096925174,0.7215996001294899,0.6923379879964083,0.670047231082758,0.6447415802222657,0.6263882507990962,0.6180824463327771,0.6096103985309552,0.5972027517919897,0.583662151949604,0.571072837396467,0.5558895879132023,0.5405023131957306,0.5281045714128222,0.5298390978352613,0.5296139781571246,0.5249478391130872,0.5242281853997491,0.5181230612168529,0.5169843744836661,0.5184772073405587,0.5253763554600047,0.5319887826337683,0.5327210583249679,0.5354292867384151,0.5423462658784316,0.5450266104118952,0.5491903375618238,0.5562180573412364,0.560356212891833,0.5713769236319995,0.5790640208120875,0.5879034738409407,0.5997975883244232,0.6073312441716615,0.6113212764550026,0.615195738003994,0.6238764959174407,0.6323448683697667,0.6349129624332494,0.6371836768196723,0.6482355015268507,0.6452042971211595,0.6486384407361886,0.6494176271011994,0.6384256600258428,0.6267106549611415,0.60681978153276,0.5854635760314807,0.5585396762325868,0.5296501535474972,0.49634563940458143,0.46806747781291536,0.43961781354068663,0.4087182419145555,0.37813198576692286,0.3479889829098556,0.31811425100715496,0.2889403406766483,0.2601751096873387,0.22913169689340307,0.1990753134500699,0.17005485168152135,0.14219173384283434,0.11542988030665269,0.08985233766214784,0.08550421650480822,0.10310896588802954,0.12803576786049498,0.14952854834284157,0.1735840115873829,0.19810973515851527,0.21943437110284758,0.24478376094641596,0.27091050585335197,0.29545709463238057,0.3185650238230274,0.3387153673487896,0.3568111262953618,0.3746311426354797,0.39306711500588387,0.41729694192253863,0.4379222797190906,0.4550479514683906,0.47210060822815747,0.49234965900999417,0.5100123109681475,0.5263196718753954,0.5512405032162407,0.581109014047812,0.6156357142278365,0.6448269015169014,0.6784300534886384,0.7133419093192311,0.7431330865436258,0.7759324288738246,0.8109511800432178,0.8415825380412253,0.8734528015661976,0.9085119781809431,0.9401205765426491,0.9705008012080222,0.994929048299292,0.9999999999999999,0.9764117297930758,0.9463544958435778,0.9146605732351506,0.8853637344775308,0.8522675650087009,0.8228926128692119,0.7898563378940021,0.7604223256212318,0.727993161075612,0.7010711423170958,0.6906073467156472,0.6965102153952701,0.6978085676462372,0.6953797698101963,0.6884248156622964,0.6773888037758126,0.6671837394316821,0.6729527421523879,0.6816873334962058,0.6799737925002135,0.6730328143289098,0.6668068348982202,0.666370265722206,0.6663699071723627,0.6658514051853445,0.6580149976828086,0.6509676110365451,0.6506452225815503,0.6514574302643795,0.6569336786105601,0.650549514937845,0.6396622451433537,0.6229643818654681,0.6021337678996851,0.5800590450736048,0.5523171983380423,0.5258066252426193,0.49937444788888763,0.4711885776767445,0.4416831897045487,0.4129500704847219,0.3838800424751544,0.35254084423266285,0.32321504747948004,0.2884400892344535,0.2544194489827384,0.22542247676140004,0.19316631765804548,0.16407184961308585,0.13537939862178316,0.10586511879295368,0.0749167973959124,0.046533602470903546,0.02027406240989671,0.0,7.400224340459172e-05,0.019870348591398912,0.04263463292701364,0.06499259872734764,0.08812736403615617,0.11364666147890368,0.13618029250650687,0.16046850217877673,0.18421650968555314,0.2061528957496409,0.23334473026405356,0.2555654432287807,0.2778825353824853,0.29822061487932416,0.3157570971570346,0.33083175885657246,0.35223639270167084,0.37242077338728696,0.38872299567579593,0.4036947636712428,0.4211865719197604,0.43886282913454566,0.46312658990417355,0.49758574623171603,0.5327050272435109,0.5674579956128784,0.5967427339385295,0.6302070577873898,0.6652870069799853,0.6967859626124456,0.7277572655184442,0.7628164075434803,0.7966851430887297,0.8257417007531832,0.8598789217483723,0.8887587158110427,0.912759372275166,0.9113402428912666,0.888067136855294,0.8682156498277308,0.8463568088579766,0.8151482439541978,0.7856084560339395,0.7507625109205652,0.7157982370761712,0.6856655776746751,0.6537331609795053,0.6266319875523253,0.6124895744267073,0.6150142693216888,0.6191677243989645,0.6308416013671115,0.6376850701305653,MI
0.07592839402311369,0.10496617410118603,0.152552791426523,0.20587734774054622,0.2576825803285905,0.31446725220944494,0.36629544750319987,0.42387878742175866,0.4834526908527894,0.5368895364293995,0.5924217008921877,0.6465084273218582,0.6914678378719192,0.7500551811396319,0.8038039221485884,0.859044632951961,0.9186426010908355,0.9721414105177302,1.0,0.9741912177473777,0.921307542915291,0.8634628530570727,0.8118212680479697,0.7529044339611759,0.6931432822856127,0.6344585580475806,0.5829114908845381,0.5245980974083864,0.4648459839698784,0.40813296052978987,0.3672267094713153,0.3268745280459908,0.3207200563863781,0.31420723825047525,0.3007499644597653,0.2788517609746608,0.2860959768199409,0.2986816106880963,0.3082457751392782,0.31157419567702704,0.3112105987483387,0.30002134605446207,0.2763915726140098,0.23792584229238978,0.19399817410163833,0.14475543220428366,0.09820936335414099,0.058940283614981936,0.02140296966512234,0.0,0.013966746527930285,0.04036028796624569,0.057118812972400956,0.0766333968407753,0.09793309361923419,0.13105151250080826,0.1747212114560699,0.2228565352315861,0.2798121774596467,0.33336749987412273,0.3718408627419516,0.4269299480364823,0.48666857184920387,0.5454233144616429,0.5969979524330453,0.6552141198032695,0.7149405623669338,0.7708831620896395,0.8239918965537272,0.8822457984935816,0.9336966580529804,0.9824672560188299,0.9745664027616283,0.9242505005478288,0.8646825466066677,0.8070778903883404,0.7552523135648368,0.6961340963625697,0.6364909158085972,0.5824930988280701,0.527677064680947,0.47402958270200735,0.42422917215915246,0.3763613909461152,0.33371532028819817,0.3170289247709459,0.3148432606169915,0.2982668284807639,0.2860081174897813,0.2960462110283284,0.3029910160159488,0.3095909913959063,0.31198859270917123,0.3093981494987381,0.2856258949844468,0.25031879048498373,0.21263383758498544,0.1671800713726348,0.1261466297524756,0.08227919424150931,0.04166476080682546,0.00993088840658185,0.017194640524137883,0.03807465914137764,0.0600836313905968,0.0795456219612447,0.09480990307702064,0.12429080532928305,0.17280985191227582,0.22592694561224924,0.28155644574025596,0.33628486976455974,0.3904735185761441,0.4499640902350843,0.5035885332540357,0.5589595286910418,0.6186685521423887,0.6772226824028684,0.7286671133798595,0.7798864622189923,0.8261358596320738,0.8825539471233532,0.9342002626278578,0.9750512123723496,0.9611260484674422,0.9115861341998759,0.8569125992412276,0.8063572258370675,0.7627171834838156,0.705779853349354,0.6538838994302423,0.596367454481761,0.5366122393959247,0.47687956203180315,0.4214992245309013,0.3810451107209498,0.3430281399773938,0.3344409002572455,0.3374817516110771,0.3248872908104943,0.3009793678695287,0.3113414563731445,0.3225967767799205,0.32297942090817644,0.32802388004996885,0.3312891398722586,0.3185490227299592,0.2949851716504768,0.25736650657711646,0.21481541675353655,0.16793744125980803,0.12623446748443246,0.08457236411063884,0.04746558117306732,0.03045227405763784,0.04600885067577565,0.0688307001896653,0.08259655077446859,0.10186059758337707,0.12412416698262585,0.16148885462933427,0.20962943392037148,0.262123739037349,0.3205190518248162,0.3720798972208452,0.4303652812206842,0.4900882719018802,0.5459076033058214,0.5991285898322873,0.6586659353498785,0.7174178916796508,0.7689918424526487,0.8270339408652285,0.8805174919770828,0.935752865208971,0.9760656908253882,0.9541990651931282,0.8994515764625279,0.8415637480504405,0.7898940531808032,0.7309464522291464,0.6712810753573617,0.6168641268277018,0.5626329864418613,0.5100717338002188,0.45675622941007665,0.4086004989365746,0.36648419992476056,0.34487085132213724,0.33827071011496845,0.33460174486511485,0.31509421823780825,0.317294067803503,0.32778421840716954,0.3375671615661753,0.34735072353661867,0.34281132339439635,0.3188462981902913,0.2806089608192741,0.24404385459329214,0.19957439496229146,0.16144378173638096,0.11430070965630201,0.06998452160081192,0.032270493040428505,0.018467464425144575,0.03384660169470455,0.05488424073323461,0.07598452101398778,0.08896350010932497,0.11707713548875565,0.16330177309349514,0.21654291518518742,0.2687174966044772,0.32509508678009125,0.3774519307630064,0.43681060857753673,0.49601053761977276,0.5479309407619706,0.60535973750721,0.6651122444466848,0.7233378022549752,0.7749067089455219,0.8336487927997829,0.8910689093387201,0.9405582549159703,0.9636073259190452,0.9340854914158236,0.882241068861068,0.8286315125230841,0.7734585864646042,0.7137803817003121,0.6577219378495318,0.6047359357646762,0.5452100009339027,0.485449381688813,0.42769108939256717,0.38597118401222796,0.34021022105613974,0.31686038723611043,0.3099153431807107,0.3020879317577265,0.2824815824807452,0.28735135760379493,0.3036786917250405,0.30603636748479945,0.3111236263770263,0.29734597101463867,0.2761553048916787,0.24496720755631385,0.20060099277465215,0.15516965791594917,0.10795461496096181,0.06657570443452498,0.02805701079565459,MI
0.3353969659817131,0.2773452635983997,0.2159548918898755,0.16167533539960166,0.10051596276816444,0.0440589812355221,0.009128195896175972,0.04215362186857141,0.10356072037215736,0.1585743960083641,0.2183336991789886,0.28095606507853454,0.3435933986244579,0.4059051032583343,0.45531716098306707,0.47884627283194736,0.5214078138875218,0.5801206957787743,0.6427317754970701,0.7053691090429943,0.7680064425889181,0.8305574652257697,0.8880916335139726,0.9447845465891005,0.9799751520027571,0.9403487870821983,0.8847810296185492,0.8327043607094853,0.7899068881722182,0.7568419837231519,0.73519665147659,0.7158615489324669,0.6971361603522306,0.6736094047033747,0.6425054755198127,0.6074445466536673,0.5710233099410538,0.5270045615291836,0.4835356100785073,0.4334463520437626,0.38975057947601743,0.34550701571068543,0.30906943700157563,0.2824695085742752,0.2985461093760142,0.3409181570004274,0.38840339974739924,0.4382073023668811,0.4864331918275919,0.536459427285106,0.5846495544055876,0.6276769477919464,0.6654554086135163,0.680717664557674,0.6769164620743049,0.6705630636330611,0.6717912514275763,0.6823177305480836,0.6916248353602792,0.6937596115471774,0.6942679230958739,0.6677135792829687,0.6433873805068437,0.6227477170496869,0.6410528977429193,0.6773836087080345,0.7034770775784704,0.7307682217438283,0.7498609630298096,0.756764987918251,0.7316708773972131,0.6793634442754788,0.6175636048119413,0.5604060908934383,0.5030544126541054,0.4405232304589568,0.3804018038183481,0.3320476504359675,0.2901227416262555,0.2462969013600682,0.19257235696124497,0.13380719307243827,0.07938478362966928,0.04225125852465883,0.0685666328705774,0.1264334482479066,0.18104780980928514,0.24306455535075178,0.3057016783312918,0.36833825130186293,0.43009995298639936,0.48445982161737144,0.5453000144643005,0.6079332568604923,0.6705705904064168,0.7332064901919026,0.7947090586330505,0.8489617336707767,0.9101674069490819,0.9722185452104282,1.0,0.9481751742813409,0.8890653667963573,0.8370023333715761,0.7944260684960867,0.7574472278597995,0.7377093607897582,0.7188729202911368,0.6971622095039489,0.6748272341033152,0.6467440673548697,0.6105888318076391,0.574376300794974,0.5350740499772948,0.4937119682588078,0.44737610443698483,0.4041735092420955,0.3580338954450102,0.31251662451872053,0.2816828348987741,0.2892741340682363,0.32487567733120737,0.36995445919170455,0.4260550581579292,0.4779955716508706,0.5281283820202101,0.5775132654721624,0.6206385196582249,0.6583384264269816,0.6795401358905275,0.6808146547291749,0.6730655106617871,0.6713734493425922,0.6805138150772105,0.6928624818807596,0.7047035776593098,0.7059067092920055,0.6798662200034709,0.6453435392723552,0.628048683365368,0.6418849668554041,0.6772685954877331,0.7097386757608612,0.7403285473721539,0.7550629665670348,0.7517769412021142,0.7363338248175559,0.6859561265172074,0.6321536986251703,0.5711853061369823,0.515944502498584,0.45647450804484957,0.3939109732708519,0.3357221809734918,0.2793661488148449,0.21739295705103934,0.16245112162265007,0.10324272291215153,0.0488291928017921,0.0020103504900030877,0.020603430032939185,0.07977377258551699,0.1364888493162093,0.19428463768604032,0.2568548688377048,0.31949220238362774,0.3821282057360502,0.44367391414151713,0.497939807189792,0.5590892527094231,0.6217237809128291,0.6843611144587536,0.7469607570237535,0.8055565595473597,0.8615382569231218,0.9236519581715226,0.9596284512625011,0.9217186401582977,0.8794094056831332,0.8358186499081519,0.7921510315235956,0.7577863079861287,0.7378878448809081,0.7185458578615129,0.6998472642215612,0.674969433653243,0.6457108411606098,0.6131278669587834,0.5772902125255268,0.5309139737017812,0.48582938442785073,0.4401191030259859,0.3990085715503935,0.35900487521541025,0.3255102409425543,0.3182051245216424,0.3499253860109053,0.3939074638316207,0.4438810720687709,0.49367468795711833,0.5410084951040892,0.587984327236456,0.6338377938553019,0.6761913239808768,0.6918595680867261,0.6889198539160051,0.6816716203337143,0.6816975097478011,0.6890989836664905,0.6945682966439077,0.7029367008395231,0.7041309385282437,0.6829111129075216,0.6560787408284032,0.6314241386478299,0.6422520587967351,0.6733574137313507,0.6930584461974636,0.7266350297404114,0.7385559681889282,0.741293555522001,0.7044232287985182,0.6519305910333175,0.5925026084962708,0.5381628338784847,0.4773189114051217,0.41981673880627834,0.3628097639925876,0.30031354278464084,0.24137952141644758,0.1856844939270439,0.12364412946080461,0.06822283924918326,0.0143745360924461,0.0,0.046482112686765165,0.10073246035691508,0.16251278984640516,0.22514562671742322,0.28607770974930813,0.340423535348251,0.402107167185068,0.4647437968409933,0.5273811303869171,0.5900184639328412,0.652655797478763,0.7151609215362069,0.7718840229405455,0.8296798113103769,0.89222492138494,0.9446789713164292,0.9195506456850064,0.8659964393119512,0.81218998316318,0.7731626802437572,MI
0.44487608447903504,0.43472441425173514,0.4284443901898719,0.4349214358749153,0.4492473742136115,0.4572998067830486,0.46233897705177174,0.4503868538837986,0.4259017953947072,0.40003647895494543,0.36994872088474906,0.33551516055775876,0.2994778765464664,0.2607082219542206,0.22115220955028791,0.18385072598280428,0.1473838760940137,0.11026987113795272,0.07520137053752507,0.04199895059166303,0.011604366583983894,0.011822310922152468,0.04577804303299082,0.07847983521467938,0.10986027050332214,0.1399753504641329,0.17052756552744308,0.20266417841481477,0.23061655599338604,0.2611356115988229,0.2881879882224553,0.30526512556793095,0.32159098518118123,0.34743674549913484,0.3828873631601074,0.41786193536253047,0.4474171311216927,0.4884379988528976,0.5305597437674626,0.5709336722582484,0.6156346401094511,0.6560215743023013,0.6981686532325241,0.7425590613706731,0.781790968971999,0.8254878524213135,0.8678172130480674,0.907886393357446,0.9467863061886693,0.9610859551954375,0.9320681296134915,0.8875901208726481,0.8425725193692616,0.7981352766247728,0.7588487754328678,0.7152025868378297,0.6706049785565505,0.631118285490789,0.5878350037201822,0.543452519350334,0.5042255346614676,0.4604735150533744,0.41769842646650146,0.4138304300774672,0.4473856176543659,0.4746917945650545,0.4768371299600619,0.45743375325366065,0.4405760770726307,0.4248831797179954,0.4306873548919058,0.44813487753472436,0.45669098933465835,0.4488027054474387,0.43312457510747093,0.4337587817553997,0.4460930524802619,0.45887738818785484,0.4697525183735941,0.4666741802294082,0.45261956995328656,0.4295980734714605,0.4007341506612484,0.36622718377743746,0.3314625418620788,0.2954715723279534,0.2594422797323387,0.2233691796068339,0.18607060019445487,0.15017193834979314,0.11537627609496115,0.07952291250258603,0.04634740903341816,0.02913853483389406,0.05383238747876806,0.08655890154495816,0.11765809777723846,0.15092751855181874,0.18305431807963657,0.21509569135915696,0.2452512797954246,0.2736928396591497,0.3002333846614794,0.3233603510032824,0.345565914455659,0.36323902787726425,0.3904398746719956,0.42707785423626954,0.46680992025255386,0.507968938864429,0.5482991808629193,0.5903159404764079,0.630989582432311,0.6727888564218444,0.7175767399751464,0.7576882491783433,0.8001381694964443,0.8443953028076879,0.8835942592226028,0.9263136939704458,0.9634781862028755,0.9721322794780197,0.9402882250560188,0.8986739435076846,0.8546626354379664,0.8154906952222784,0.7713506019623407,0.7270134147520498,0.6878477500966164,0.6440765299833341,0.6031342010775816,0.5615846644007846,0.5166379295706564,0.47403784946027894,0.4343253846195395,0.4099386037473792,0.4383139272218145,0.4742228659891964,0.49446581754090035,0.4853083253831728,0.46524975999064366,0.4472694733995607,0.4338069043607763,0.44695059307462903,0.46450297400858676,0.47037320343263567,0.45897776397323364,0.4479844011526001,0.44730532214691066,0.45660225036386903,0.46885585336854374,0.4798678409041185,0.47689366302581304,0.46221976227803696,0.43436547677357573,0.40161519270719304,0.369225227263276,0.3336058163245911,0.2981205926111229,0.2630670741714317,0.22607132709215605,0.19078946081516646,0.15489795724205224,0.11742821126814451,0.08038177720223816,0.04830207964428901,0.03929076263940168,0.06457318706842197,0.09656190412334642,0.12781441689513706,0.15834503097038677,0.1939920118330326,0.22623905868399097,0.2549456955713908,0.28172698245793326,0.30441921432343555,0.3271651442673488,0.34445576694648083,0.3686414934934331,0.4005383707804516,0.43763288156771074,0.47836840440063655,0.5186082269305531,0.5536917928536954,0.5875102097277459,0.6308738882903352,0.6751534117339945,0.7143564628489979,0.7582367610558723,0.8032526775173626,0.8482709492413244,0.8931197052960577,0.9334081291987945,0.9740806127873126,0.9999999999999999,0.9842202024745291,0.9430325008710546,0.9038034068122557,0.8593686998468882,0.8153978277418424,0.7786409946314415,0.7457958946898932,0.7023621472465863,0.6586567595736491,0.6194230484419286,0.5749947428199881,0.5301937617415261,0.49010200588962183,0.4476117683522952,0.40368514965783564,0.38768427562436847,0.42314313132840964,0.4550621354722234,0.4699868642403561,0.4578569020350082,0.43846621544573183,0.4191758478532853,0.4034019293261878,0.4132452238264256,0.43185175586939584,0.43277366186217614,0.4258610849115817,0.4100710529295676,0.41068771939188176,0.4213056800398082,0.4356587886062172,0.44159975662979456,0.42963578226213917,0.4089957712271176,0.3841698407057469,0.3525053323519193,0.3190103879311762,0.2871375693337169,0.24963234103051068,0.22531246958297435,0.19039841833199633,0.175438234455649,0.14848759881507678,0.1092004254817277,0.07371279069788816,0.0399009448521257,0.008874374826912779,0.0,0.028015917710262017,0.06080775978854969,0.09592868976205604,0.13211163118144842,0.1662846621088686,0.20368697468894303,0.23657869060612147,0.2634515233227034,0.28256403518400786,0.2846956594680131,0.2560621824858663,0.22659778582115286,MI
0.8070402213358429,0.7746409444530277,0.7355272368102327,0.6995319847992661,0.662239614046673,0.6283334292188169,0.5978715012840944,0.5602750996001625,0.5349658034876187,0.5261244230655916,0.514218701319647,0.49706529863140314,0.48809845675186037,0.49971146820488854,0.5186898830812202,0.5204559919115482,0.5129444623205649,0.5039929058753526,0.49514311015063195,0.48053760053770744,0.46444806048084286,0.4566268569813329,0.4630456627319167,0.4775600266727741,0.49489705174611276,0.5076321312521413,0.51354432989598,0.5002352729312368,0.47647657942673527,0.44706796546404337,0.4147307267497812,0.38072407256304197,0.3466095309897327,0.3124776990145893,0.2774004307506782,0.24186060385048946,0.20859215635198414,0.17958658086797863,0.1456184839861807,0.11177004708061988,0.07900710384459153,0.047477568696686956,0.020324582526089707,0.017913896714848332,0.04467653310225217,0.07477145778355343,0.10091197196854851,0.12746152476892636,0.15162518442698014,0.17512310098839023,0.20058537910113405,0.22534943781694705,0.24740103227336296,0.27280549660041375,0.30468899920627457,0.3357348753959487,0.37063915087456445,0.40788279989610643,0.44584435398112154,0.4827659998030015,0.5235881672482011,0.5645133627110758,0.6054384848684747,0.646102294485874,0.6822378974830742,0.721197548043924,0.7621118178230305,0.8029016374027601,0.839652575199478,0.8778879188326579,0.9185852797171344,0.954870381429645,0.989794082785305,0.9992574284320183,0.9717071012811619,0.9334572911665452,0.897106898309619,0.8574736155513273,0.82361890186764,0.7887974284885132,0.7575293863341387,0.7251781577970554,0.6888813037908462,0.6532642355927468,0.6183033405967612,0.5847199696317883,0.556572646465482,0.5439567933316868,0.5315429670487474,0.5181415655189853,0.506932530566507,0.5137288465273729,0.5260938372755953,0.5317842934899936,0.5280118909976003,0.5205665469250124,0.5116315532597112,0.502603017756193,0.4866811856842589,0.46931653388190064,0.45343560569554164,0.4446026526830119,0.4513557112139538,0.46784840543628137,0.48243312029380403,0.49046152260310094,0.48245437045639383,0.4610589242544386,0.4310818429033577,0.4001867687813391,0.3675402660211723,0.3334050362117761,0.29817024829943495,0.2640296730950634,0.23096018601496737,0.1949552731852492,0.15936573903853835,0.12187927493131723,0.08878348521153279,0.05485441700284366,0.023260146448982666,0.0,0.00923112980452323,0.033789664909463224,0.06379310856408338,0.09141067874383768,0.11919090195131254,0.14184936997542674,0.1652188733603316,0.1887011701043404,0.2120996025510643,0.2355684177760088,0.26457597294466473,0.2947095716239484,0.32985237848167104,0.36725522907253694,0.40394384781869064,0.44208583614582186,0.47914994400684086,0.5170159424188375,0.5577498091095415,0.5943869927400022,0.6327472670279509,0.6736472375009078,0.7145724405471069,0.7554976435933075,0.7964228466395075,0.837348049685707,0.8782709768259084,0.9181723784445296,0.9528367535341385,0.9862998885267426,1.0,0.974024380904778,0.9376444434746231,0.8969161919806415,0.8601242546525506,0.828397318180362,0.7898229824240585,0.7539045657839173,0.7140494885248271,0.678500759203886,0.6391505980830178,0.6073117599476549,0.5708546120837213,0.5364425900436071,0.5177889493594966,0.5043594009335443,0.4844217414940538,0.4682848227658155,0.47264445373544206,0.49544145720466914,0.5053310140077628,0.5108695236870727,0.5121739964140838,0.5117048529996552,0.5038986403300946,0.49010510171288957,0.47810922114705445,0.46561182170311943,0.44836736614951833,0.4343098496884018,0.4233019849858096,0.43163266414864,0.449970617135912,0.46647716119163174,0.48421678942240376,0.4898379366298685,0.47683598021021656,0.45235186815017026,0.4241371088925877,0.39185106915645285,0.35909377860357294,0.3248152897622435,0.2860141588677302,0.25151380189254036,0.21687539234143183,0.18224481903390077,0.14814975383378093,0.11447167802275038,0.08110815107334124,0.049750634328718624,0.019959337383846032,0.008433741078315737,0.03283581919583356,0.058330420244600334,0.0828278436630171,0.10356856621346433,0.12005029427953506,0.13664593199259623,0.15615279627621503,0.17908675701061727,0.20651108581673483,0.2321616913516661,0.25183860304036354,0.2381155364467592,0.2581356475892994,0.26857240187418674,0.2805259228790745,0.3106358811649873,0.3301196867709991,0.3109790296760867,0.2880539416003719,0.3068270697150218,0.334991731386444,0.3441619869205982,0.3672958040942741,0.4025840100716077,0.4416922107009754,0.47761258353243286,0.5051933101622358,0.5434489465738005,0.5843558854000724,0.6252478494008505,0.6633525863359991,0.7002168127124005,0.7410291475769274,0.7819076994272939,0.8196890136310809,0.8563025989592016,0.8916223755130716,0.9223439243107011,0.9223348292003076,0.8922282584351496,0.8526444535531715,0.8130786706780956,0.7776441948909597,0.7420418491732984,0.7029873278552335,0.6621388240628551,0.6246486972211912,0.5875125070594326,0.5538793089104478,0.5243766536734725,0.49226126841705875,MI
0.45271991841852854,0.4587763662539631,0.44997487082428445,0.431008362659124,0.4205946934352306,0.4290568262949538,0.4436355662022472,0.45892563962678634,0.47006149188215185,0.4639274779161048,0.45506634312690875,0.44480329958241727,0.4160263177096005,0.3780350836424725,0.336628061202939,0.29728036682259706,0.253230006599798,0.214851045985757,0.17187757320670627,0.12726377764698216,0.08737702043199358,0.04647045424025931,0.012295405764798817,0.01754780248994836,0.05301402338382877,0.0928614486936562,0.1371972926902748,0.17610748826661415,0.2183394784551168,0.2628779686789243,0.30222577837651265,0.3439172261461648,0.3886176876820332,0.4333406853388785,0.47806368299572466,0.5227866806525702,0.5675096783094157,0.6122326759662614,0.6569138031818721,0.6980179499773908,0.73790470719238,0.7825240901211737,0.8272457642044427,0.8709797715087225,0.9090558660208515,0.9527866448464896,0.9891334591384159,0.9723512751059314,0.9302653704767959,0.8920556369328901,0.8512397098854528,0.8116232671440083,0.7683857500856445,0.7302064588100635,0.6879200505195936,0.6505957192427899,0.6180383133433821,0.5997656748883594,0.5997520339608192,0.6131596066004917,0.6157353967481921,0.5949865263078339,0.5702747883202518,0.5460974419309327,0.526450854322854,0.5095162938570262,0.49928617294697053,0.48578758302019953,0.4629904574207869,0.44010845585168645,0.4266517705331395,0.41901527305864417,0.4003934284342322,0.37554801815683014,0.35949921047608313,0.35704243834623905,0.3661935329107143,0.38597585432049086,0.39990966226573466,0.41594947536034754,0.43275133383749675,0.4376659742648995,0.42346347469102386,0.4103611623847837,0.41478985106159005,0.4278226825086663,0.4438515713786161,0.455551949315112,0.45383304394446056,0.4434576049019062,0.42834713637967503,0.4036045114561412,0.36338853742405075,0.32516288812716987,0.2819678962428288,0.23821090116821952,0.20013480665609096,0.15640079935181117,0.11170166138951954,0.07001021361986781,0.03084577255547627,0.0,0.013624845666280305,0.052949226699030794,0.09143428387013974,0.13576029016915492,0.17976494323734815,0.21794885584760226,0.2613316636260875,0.30605215354637727,0.3507751512032221,0.39549814886006807,0.44022114651691313,0.4849423834245491,0.5285410678468722,0.5666056453396241,0.6105132064484048,0.6552342347550947,0.6989682420593751,0.7370443365715041,0.7808048051109105,0.8255269724835846,0.8702422688670876,0.9128255654155791,0.9431887147810779,0.9784621833188148,1.0,0.9654158398454616,0.927203241200098,0.8841110337596364,0.8442277500094452,0.80330512520142,0.7639798648666077,0.7225691132353987,0.6838355944518216,0.646539084235909,0.6119538033980861,0.5916278460296672,0.5991757466895592,0.6150924388186053,0.629503790410099,0.6282405821987401,0.6070574475077458,0.5834640307710318,0.5619885754578214,0.5414730441613061,0.5317175039128995,0.5219610576147572,0.5029133227521291,0.4784956874275318,0.4506407345081501,0.4348462196151014,0.4265008823066755,0.4080911951140377,0.3824809583366934,0.3634688036525954,0.3493658323414205,0.3516428382537663,0.36650255542378674,0.38178750517970406,0.39676843937686435,0.39371508856641146,0.40017498251692885,0.41419826189128817,0.4301344346635426,0.44989376677609616,0.4596506390991143,0.45578348658810175,0.44556658779407343,0.43529514929951285,0.40541271283069225,0.36450740804598547,0.32231728829871875,0.28340709272237896,0.23897331213143957,0.1961989981888207,0.15770633809348344,0.11341699577033271,0.0715722699927287,0.04469001294737207,0.06188172160331307,0.10238229110614772,0.14054366759542403,0.18392471462469884,0.22752089131046616,0.2655854688032181,0.3094874425429287,0.3524602695454008,0.3908392301594429,0.435060685316241,0.47920076453696103,0.5174385861962788,0.5606327816671689,0.6053522147883993,0.6499039099402036,0.6892517196377915,0.7309431674074437,0.7756436289433125,0.8203666266001587,0.864918321751961,0.9042661314495498,0.9459099585316043,0.980305949854715,0.9614108003475185,0.9192258072461653,0.8811647032182105,0.8375660187958868,0.7928626524127379,0.7509009334336615,0.7121028443537906,0.6738094252034902,0.6377332909689976,0.6130564218107423,0.6074485615408204,0.6203959963232094,0.636572675168109,0.6324270679587748,0.6080535274083719,0.579905063576006,0.5495401349677392,0.5266820020534376,0.5098855554627525,0.4990478308909648,0.49055236828009263,0.46751693745335443,0.44200006588860863,0.42684061423715647,0.42996474895082837,0.42471032428971467,0.40214574565452044,0.38439221899072396,0.369310009775785,0.37092771461072116,0.3853149337725147,0.4040771023146409,0.4141962890809817,0.4089131916284364,0.41523292984071125,0.43680469047121273,0.4543592577023291,0.4732241641540348,0.4771262155312531,0.4731432456547574,0.46528341383763616,0.46008004757476206,0.42627375679407653,0.38191874849171226,0.34255161771566456,0.3008664425973119,0.25627242473420553,0.21638566751921628,0.17528152072369718,0.1306039580437005,0.08752471826368258,0.0599151839687605,MI
0.8144053463233534,0.8143794058943308,0.8083792340806282,0.7994409593679146,0.7992765904296442,0.7992765904296477,0.7992765904296517,0.7992765904296553,0.7992765904296588,0.7992765904296624,0.7992765904296659,0.7992765904296695,0.7992765904296726,0.7991254866019863,0.78915198301776,0.7841663213305812,0.7841478345359651,0.7841478345359683,0.7841478345359718,0.7841478345359758,0.7841478345359794,0.7841478345359829,0.784147834535986,0.78414783453599,0.7834328010195857,0.7674601442880307,0.7447365301950799,0.7387914013668748,0.7421902858934679,0.7619418712121777,0.7689832442125746,0.7692874012605535,0.7817644485079587,0.798254675262434,0.7871029040137425,0.7612046723427484,0.720568039359414,0.6845521721326548,0.6376642649992865,0.5992893808847453,0.55728300865943,0.5116053114763126,0.4759500460833235,0.42933362174882506,0.38163393508130383,0.33393385767521666,0.287501181968032,0.2522191641402698,0.20596172570461113,0.15826230394459273,0.11056222653850578,0.06368013244420223,0.02861780859297669,0.0,0.021267400202573228,0.059951784705561284,0.10098905000844427,0.14865109431799883,0.19635117172408578,0.24405124913017207,0.29175132653625857,0.33945094697690426,0.3859776248366935,0.4215395783383773,0.4674234895541409,0.5151229576729732,0.56282303507906,0.6105231124851467,0.6582231898912334,0.7059232672973206,0.7536233447034069,0.8013234221094931,0.84896903257882,0.8895837927819685,0.9293555738121047,0.9750283890666149,0.9720442013955428,0.9340367268661236,0.893895141808148,0.8602428510991711,0.8324845691977645,0.8090557536630891,0.7921644493426103,0.7842435147233737,0.7841478345360495,0.784136185441354,0.778919133969787,0.7692263733699622,0.766433179874614,0.7540236213228679,0.7404610420558124,0.7244932557921335,0.6988926211556983,0.6737146822092868,0.6498564713153194,0.6265419740949012,0.6091171826882165,0.5859740488915879,0.5715271494468808,0.558731640908027,0.5572285524752538,0.5613584544417889,0.5827648887372621,0.6079368170265003,0.6379010633882132,0.6624147005528527,0.7000629105786995,0.7322066212073808,0.7559270234461217,0.7738207335424034,0.7945425242326993,0.7992723254190484,0.799276590429836,0.7992765904298396,0.7992765904298431,0.7992765904298467,0.7992765904298507,0.7992765904298542,0.7979725638123765,0.7855719215470569,0.781892202436314,0.7699773846703568,0.769019376663366,0.76901907864243,0.7690213402615989,0.7716497709526822,0.7835134847055052,0.784147834536165,0.7841478345361685,0.7841478345361717,0.7841478345361756,0.7841473312119254,0.7824043088957606,0.7702288602348366,0.7690195620986584,0.7690190786424704,0.769019078642474,0.7690190786424775,0.7690190786424811,0.7690190786424846,0.7690190786424886,0.7690190786424922,0.7690190786424957,0.7690190786424993,0.7688251322931166,0.7534006845745673,0.7385498413810407,0.7272609840189617,0.72507001500925,0.7430384874797178,0.764945135201561,0.7690211746045068,0.7721719313105124,0.7836176530754781,0.7806510819190877,0.7530920777702166,0.7133274355958088,0.6782246715117775,0.6322364725002494,0.5845372494208574,0.5368371720147711,0.48913709460868304,0.4415212223023386,0.40300710298666953,0.3611412904263638,0.31346554087806,0.2657654634719715,0.2186707411363631,0.18272096487298284,0.13779075201774194,0.09009425412109962,0.04405445678823039,0.01728949736005081,0.02260789626062687,0.056632161843496176,0.10397676809088807,0.1513579268690719,0.18782293857868448,0.23195139681470156,0.2796483218215151,0.3273483992276014,0.3750484766336881,0.4227485540397744,0.4704486314458607,0.5181487088519487,0.5658487862580355,0.6135332974010841,0.6566720146992866,0.6940583506907991,0.7415203399886625,0.7892204173947488,0.8369204948008351,0.8846205722069236,0.9323206496130103,0.9796770475696035,1.0,0.9698139769104115,0.9449402930772743,0.9134885379708857,0.8769423346451104,0.8450707187707924,0.8141290888830977,0.799639731882773,0.7945999441012797,0.7843877611005938,0.7841478345362827,0.7841478345362862,0.7841445231925137,0.7804631882112125,0.7693193428633651,0.7637169782071491,0.7430798130091123,0.7270016601532387,0.7087448803076617,0.685004474116309,0.6642822008930773,0.6437841304913636,0.6191035956909796,0.606757063077616,0.5956081920482483,0.5876045086781505,0.5931434704200704,0.6160289375251935,0.6469392278231401,0.6779480483262654,0.7052717422752326,0.7337457789982746,0.7576192247968065,0.7814914157731723,0.8048968373906482,0.8215321587241564,0.8294864036807272,0.8335796155896236,0.836820998614074,0.8399930771097406,0.84368403180568,0.8311006533945773,0.8238154483825006,0.8145868874498161,0.814405346323809,0.814327737224529,0.8054962841738753,0.7993028653089342,0.7992765904301007,0.7992765904301042,0.7992765904301078,0.7992765904301113,0.7992727492713345,0.7952133376986792,0.7844221054761866,0.784147834536403,0.7841478345364066,0.7841478345364106,0.7841478345364141,0.7841478345364168,MI
0.4758282626100625,0.4936785097639107,0.5212192037018757,0.5474866930145357,0.5805806834211249,0.608427622984725,0.6383470226160992,0.664462197812278,0.6990382427242006,0.7350479594443113,0.7791337691812887,0.8129930381057924,0.8392542658324174,0.873141511277471,0.8976735620115837,0.9196678705053132,0.9087597888640926,0.8715044760507626,0.8318510156644545,0.784521036092181,0.73171983759282,0.6846595239670412,0.6310656438806044,0.5842329963572737,0.5375684754959837,0.4837942587964097,0.4367748984490909,0.38417968505890476,0.33119673900880553,0.27545482492082796,0.22167729610149856,0.17480759663954704,0.12829314018829097,0.08331626066361597,0.06481981969539108,0.06469490890027707,0.07856731629081448,0.10199938099028572,0.12423860390627439,0.12922979704972715,0.12923553937581111,0.12923553937581467,0.12923597362645634,0.13070009975608787,0.14816035235531544,0.16570283252422602,0.17244879451946282,0.17245792910935087,0.17149716622530686,0.15456888890128484,0.15084913028435798,0.15084673424260808,0.15117184826918928,0.16493515697258276,0.15974363799669566,0.16780369270142126,0.16868482100672866,0.15194422638681937,0.15084674956912414,0.15084673424263473,0.15084673424263872,0.15084673424264272,0.15084673424264672,0.1508034750754188,0.14183583027498559,0.12945093138449693,0.12923553937590393,0.12923553937590748,0.12923553937591192,0.12911712713932522,0.11709302977824754,0.10767438202070334,0.10762434450916825,0.1075073105827844,0.09051170755157756,0.05123989412403063,0.02520325739145468,0.001185267071315721,0.0,0.015400468682974289,0.03151509788674112,0.04298947478531545,0.05879258528804199,0.08440997950898277,0.08617178888312393,0.09699882084005873,0.09090857149433162,0.10438674835042283,0.14928660865180632,0.20733573649662862,0.2707473006835732,0.3259706265824489,0.3948175790936417,0.44832884769016745,0.5121248827257006,0.5645978508025968,0.6324373806362709,0.7024407020478076,0.772117017673835,0.8281825068351183,0.8908441427690987,0.9517148905043293,0.9215277096456993,0.8519393206554882,0.782118731675038,0.7263948097248156,0.6635102338668313,0.5935372298761008,0.5235339084645645,0.45353058705302773,0.38352726564149053,0.31352394422995333,0.2436979624722868,0.19718898756843606,0.2070700148075595,0.2558801607894985,0.32269841372370855,0.37493749831361356,0.43359978738557814,0.4158054553577011,0.3923954913546819,0.39176057430598865,0.41033129350407105,0.43009503916461167,0.45822076382916865,0.4778446211963221,0.5070089690775208,0.5420093613310821,0.5769776494156966,0.6059228491779418,0.6362093035146046,0.6712115672505372,0.7062173425617906,0.7407474077587453,0.7695094019908271,0.8111102749198245,0.8479081377801738,0.8912825301988554,0.9166378921531941,0.9412722273736374,0.9645913753348929,0.9459258752453841,0.9072782624773583,0.8552289076517705,0.808479452299903,0.7617664500760903,0.7150405009196881,0.6660699725035322,0.6138761120955709,0.5608337681505904,0.5141628585686329,0.46744985634481884,0.4200265107546248,0.36681802990948764,0.31301032245325855,0.26584903721921194,0.21031186475021135,0.1514651512172649,0.10594618992562621,0.07028278051126202,0.035989603964524,0.021449067890728202,0.029000494287976242,0.05192639429805235,0.0645052454951438,0.0790286549107404,0.10580657360434076,0.12370772606774194,0.13993917024889857,0.15254497660943178,0.17003257193396193,0.17245792910961155,0.1724579291096151,0.17245792910961955,0.17287195580594306,0.18802054965872284,0.19406101115270946,0.19409612011875677,0.2008621445283465,0.21541871873263174,0.2156803188431602,0.2156803188431642,0.21568031884316818,0.21568031884317174,0.21532245719136922,0.2004393441517638,0.19409217610064378,0.1940691239764294,0.19416911869025766,0.20494844241219212,0.21559575934055175,0.21572578959688604,0.2245283255189583,0.23715820627043938,0.23729151370996915,0.2372915137099736,0.2371008431561874,0.22273213858204421,0.20549052134807333,0.17220897306733018,0.137189569733418,0.10027932289554231,0.06310550351433841,0.04409781020205594,0.05088142139258167,0.07478313922029045,0.10011337509790597,0.08773839697132146,0.100816633785624,0.11109250367156509,0.12821904612617274,0.12923708735203254,0.13172485157770808,0.16250962960170234,0.22215733036348162,0.2758636950972493,0.33782872319126733,0.39049684707973054,0.42839084282521167,0.4846380093669316,0.5392139733225485,0.6087074411749911,0.6787107625865274,0.7487140839980619,0.8187174054095991,0.8887207268211363,0.9577551686536645,1.0000000000000004,0.9618044318196781,0.892110718172789,0.8224703248099678,0.7673673026925312,0.7036891042606213,0.6337086273934025,0.5637053059818662,0.49370198457032943,0.42380827368455654,0.3654710867215898,0.30527004140567593,0.24394777952230573,0.21766074646511768,0.23968347189113404,0.3066560872895554,0.37242791869223657,0.4230169881514456,0.42327871021956875,0.3858825390268277,0.36739937154957714,0.36722893592818195,0.3804159692431637,0.396610081137009,0.4139049771725083,0.4436803722063152,0.47391001063567106,0.5011047433283999,MI
0.6295122522719119,0.5902833646218875,0.5508734693937145,0.5143197510043993,0.48162237788166506,0.4599279600214361,0.4457831981939737,0.42605977478039914,0.40127538738617474,0.391629504413207,0.3694093161928904,0.34161454882321285,0.32859671646004573,0.3091745213630954,0.2753718160482945,0.24304902385213956,0.21098633482307327,0.19360242140451023,0.20982669807906917,0.2413486384075627,0.27531982187040427,0.31210904229391156,0.35051144182496563,0.3865677237992611,0.41525647280220523,0.43962485511381577,0.44868630175438873,0.4450966284704825,0.43485169231744125,0.4321824934795655,0.42944945358557507,0.41805291467503647,0.40727478377809057,0.40788122911944225,0.4208647978691431,0.4353733837534517,0.4309241779434523,0.4008355981658207,0.36028934783674893,0.31864949020146005,0.276790043292931,0.23185748334486833,0.18713073912863099,0.14651269555797175,0.10334954347582315,0.059178828527748806,0.02023035063277545,0.0,0.02586020865336125,0.06620705583260089,0.11101425767808704,0.15601471535374523,0.20101520290617636,0.2460031836096006,0.28921841332247766,0.3297988096800565,0.37451210342229646,0.4195124681479967,0.4645129557004277,0.5095134432528583,0.5545139308052891,0.5995144183577201,0.6445149059101507,0.6895153934625817,0.7345158810150128,0.7795163685674438,0.8245168561198746,0.8695173436723052,0.9145178312247362,0.9594981409875547,0.9979936875415854,0.9823327949910114,0.938197032628229,0.8973220129133561,0.8544969780260576,0.8101389672213859,0.7699883428874046,0.7270129890203951,0.6869204703831118,0.645565717654675,0.6044337327201705,0.5651193754809773,0.5287386264553204,0.49800034284908357,0.4748275637998953,0.4579594210162139,0.4378673335232486,0.4110238488459772,0.3790100767520268,0.34570526494053744,0.3120055610404491,0.2786542257512413,0.24579702184338892,0.21492794775901602,0.1941757722085744,0.20944486748926328,0.24137544154043356,0.2756693598400525,0.3115654602210075,0.34692034852312503,0.3753096787649919,0.40537324898051574,0.432153740117164,0.44424462531108144,0.447039321048029,0.4509336151806893,0.4500573872161553,0.4448329182118753,0.4304402168196273,0.4168923340587809,0.4141063559060434,0.4265616244659822,0.4408301318968644,0.4280765746444002,0.39337656322992776,0.3495589733114457,0.3045623194934117,0.25980194909218113,0.21908978748881847,0.17605062788492098,0.1310998244203474,0.08870859825664845,0.04766039370271846,0.014153462316813692,0.024795677084297196,0.06444402291590234,0.10933053609021604,0.15432997354074762,0.19868853705611922,0.23884521874383868,0.28283011363017674,0.3278278013320366,0.37282828888446806,0.4178287764368984,0.462829263989329,0.5078297515417602,0.5527348151999767,0.5942545178644494,0.636375971720224,0.6813265292311492,0.7263270167835798,0.7713275043360113,0.8163279918884421,0.861328470865133,0.9060159730350306,0.9310772444357513,0.8994291095746618,0.8547574151626474,0.8137548297937134,0.7712189473485698,0.7301209760310503,0.68757123554959,0.6426532182456077,0.6006084151611022,0.5620083075396811,0.5251951962815193,0.49327782270277076,0.46988879145869844,0.4546516408991872,0.4348533019588159,0.4114063236864638,0.3836870319795158,0.3515056415370622,0.31656735450254714,0.28386979924485667,0.2562527220652757,0.2387915277319097,0.25648870522756395,0.2893649370407392,0.3228766644276916,0.3573465711722902,0.3905526462325337,0.4197929407537475,0.44098135697040397,0.45355685251051514,0.45226750854882236,0.4433535237531743,0.4392361880295854,0.43192011689768695,0.41840499852247603,0.4143553194769094,0.42246355753394815,0.4402657590136958,0.4431209485771985,0.4216996093132108,0.3846515716696599,0.34233594930831246,0.3018206806803835,0.25855514522208434,0.21361573323017813,0.17148463098479616,0.12997436599086432,0.08516285790089839,0.043743504969655955,0.010670214130257816,0.022463276962896184,0.06400488977972607,0.10427362308752797,0.14778431507739964,0.18345213070639832,0.22582516979222034,0.2708109478534141,0.3152057483161208,0.35537219234315287,0.3993112024284058,0.444308655166777,0.48930914271920845,0.5343096302716384,0.5793101178240694,0.6243106053765008,0.6692747948735589,0.7116721887577315,0.752935144624306,0.7978073830658892,0.8428078706183204,0.8878083581707519,0.9328088377007151,0.9774658268189766,1.0,0.9646793801902254,0.9208268363163328,0.8806519929869818,0.8365328547165436,0.7960097533843766,0.7528484961765924,0.7116055181147509,0.669311485518143,0.6279770682238728,0.5870413902121165,0.54995780365352,0.5166184178790385,0.487441413923112,0.4751020203751102,0.45816376725893404,0.4326887315408976,0.40378136133466036,0.3717993665906427,0.33915710083051454,0.30581577690681994,0.2720230514408116,0.2385446869705391,0.22446234520869812,0.2443783632389912,0.2760052138609421,0.3104004817187823,0.35054095704432253,0.38625791889676986,0.41757240772768633,0.44012403498790253,0.4536326207510628,0.45550607842237745,0.45414064652784747,0.4476763542961215,0.4350808342926995,0.42166564721550137,MI
0.8530962994756497,0.8496972087293304,0.8624716001844714,0.8767394343504658,0.8911494910066802,0.9062996900071165,0.9123730598094095,0.9194243525978587,0.9208116925203311,0.9208136916059759,0.9208136916059779,0.9208135933197747,0.9204263355158988,0.9137013462436159,0.9046843610265294,0.8714230151316915,0.8391043758203851,0.8019630966148146,0.7629244620601314,0.7244422123229517,0.6923477426998723,0.6547905378966723,0.6157490887676536,0.5767047734590613,0.5376787200597004,0.501889504486819,0.46841885879157563,0.42952957751461884,0.39048527684710654,0.3514409615385149,0.3123966462299229,0.27335233092133104,0.23430801561273895,0.19526370030414697,0.156219384995555,0.11717506968696312,0.07823668719522581,0.04536161654568849,0.03232481785303798,0.057047495163511486,0.09552985005899706,0.12814207498077002,0.16494538635390077,0.2039833620412349,0.2430276773498269,0.28207199265841865,0.3211163079670104,0.3601600750691424,0.39849702939168186,0.4304841558611303,0.4682930360132558,0.5073358045789662,0.5463801198875582,0.5854244351961502,0.6244611400979727,0.6611201104441138,0.6938435216581784,0.7325996445085359,0.7716439318081059,0.8106882471166974,0.8496845896479586,0.884419506376749,0.9188460389402557,0.9520522938969156,0.9693775202895949,0.9817041013429229,0.9875435428994204,0.9927322191590737,0.9928303310540312,0.9927113901496312,0.9869317738596253,0.9746936909541413,0.9526333066067787,0.9310939854782925,0.9055405041615139,0.8788992968424001,0.8518554089642776,0.8301964149025156,0.8054211448243558,0.774950495993145,0.7470073510166062,0.715935625912401,0.6860088213781594,0.6577762346788241,0.6309606835478474,0.6037614723277087,0.5788929125176698,0.555823914546397,0.5312738662392607,0.5125164086054192,0.5096750761876712,0.5311119894870904,0.5589488442450623,0.5882583852143448,0.6175527472259412,0.6485174669885083,0.679597824599623,0.7106192960359241,0.740278373055774,0.7705014882673027,0.8040029182016504,0.830379805734365,0.8557427626481675,0.8743475255006901,0.8874498381269351,0.8958266731555096,0.9025981401512047,0.9070471068396622,0.9044218394167511,0.9107928784104573,0.9118105120174009,0.9112239612630346,0.9042665889089854,0.9028121916528471,0.9028095317440235,0.902809531744025,0.9028095317440268,0.9028095317440283,0.9028094110506073,0.9023905671944974,0.895413206331755,0.8834057845420744,0.8663741587912406,0.8525851595797158,0.8493622492277277,0.8598343197256406,0.875269776687748,0.8907666603802813,0.9021350816324267,0.9051216388540528,0.9115075869780669,0.9118115724624198,0.9118116116750525,0.9118116116750543,0.9118116116750561,0.9117683762088344,0.9075390556309846,0.8937143613443768,0.8649706508013508,0.8276643846314244,0.7890734619780877,0.7568616770147103,0.7195334649562724,0.680493459722487,0.6414491444138957,0.6024048291053035,0.5634762502381214,0.5299210649395056,0.4942472202195851,0.4552296478019404,0.4161853324933491,0.3771410171847571,0.33809694377226474,0.2997923940883269,0.2677506111450171,0.22996441359705433,0.19092152057280176,0.15187720526421067,0.11285499523399811,0.07746191247957213,0.043628572576562274,0.006766031116439919,0.0,0.028446193001256503,0.0672223572403311,0.10626666694711906,0.14531098225571126,0.18435529756430236,0.2233995916115007,0.26227023899797675,0.29554814165413645,0.3315467014381648,0.3705747941762585,0.4096191094848507,0.4486634247934418,0.487707740102034,0.5267520554106262,0.565796347166176,0.6046605443597937,0.6378867113191491,0.6739427533595428,0.7129715520225817,0.7520158673311736,0.7910601575589598,0.8299200546240035,0.8631117311188232,0.8992060688187709,0.9380015911288224,0.9647529406997799,0.9762675978331243,0.9787557250616947,0.9855193632668995,0.9929607717086755,1.0,0.9985639463127005,0.9920819462182853,0.9817772118675923,0.9638457077545384,0.9403182815239419,0.9143199941280764,0.8881499623548976,0.8594207645836922,0.8304892483853175,0.8031481099013931,0.7751931107930472,0.7488235854876486,0.7202758345008005,0.6940050333281877,0.6632845645422141,0.6332072077031636,0.6096172200808363,0.584278584988585,0.5607710685106253,0.5358712089207971,0.5202924708928294,0.5213442935087018,0.5440370791962847,0.5711996147719185,0.600477064354807,0.6298038330412838,0.6602334327025206,0.6892418840380774,0.719277234571563,0.7491835732462804,0.7762647812091372,0.8032265175631403,0.8311180364669162,0.8521527104949136,0.8651402651230331,0.8744335793420985,0.8821292460938017,0.8853459278683631,0.8922454357251359,0.8938051296254761,0.8938074518130941,0.8938074518130958,0.8938074518130974,0.8938074518130992,0.8938074518131003,0.8938074518131025,0.8938074914076759,0.8940327608726644,0.9002130590995312,0.9027969897977346,0.9013072386917542,0.8867728591525048,0.871882074641148,0.8668671369212897,0.8694745410385518,0.8824775422262094,0.900003496716558,0.9151945468638771,0.9207916200231743,0.9246580565071714,0.9297243830619561,MI
0.6170614465445019,0.5910561450987226,0.575982255175532,0.5625995698646852,0.5508110533416244,0.5445957262929141,0.5342687756599719,0.5329899373785275,0.5300889490044405,0.5368776314819178,0.5602642126365379,0.5889728838007825,0.6201798220570592,0.6530500728701053,0.6845007667109733,0.7166889872468252,0.753008813782823,0.7869065007970293,0.8143489679767932,0.8379804316811452,0.8325899344851233,0.8082341013492729,0.7789560050852262,0.7462509163080704,0.7161143782381894,0.6876664872637708,0.6639366708426517,0.6433225044800686,0.6267693341176734,0.6163655641778291,0.6096877565945412,0.5882641251674239,0.560456921233745,0.527000754167763,0.49263910940289424,0.4580649666282468,0.4201580545157887,0.3855515259135325,0.34857402257785997,0.3109193342603731,0.27666910450944415,0.23923063130094346,0.20485182067743424,0.1676035910277574,0.13215165219817343,0.09624705743120243,0.06868888553302671,0.09124534193556477,0.12938696286782947,0.16469640747301106,0.20064108823927584,0.2354165110924331,0.27212514829176293,0.3105417932522885,0.3488244487915906,0.3837866697993333,0.4203043166173186,0.4586593708553496,0.4944118730756619,0.5300906591431551,0.5684555647256364,0.6061208459706603,0.6403983729768851,0.6782011476843768,0.7166305108155593,0.7548884513473813,0.7897509674437955,0.8263870025717914,0.8637964744085376,0.8939945222383947,0.927043039944002,0.9633353107733433,0.9949115870216185,0.9940933876148283,0.964133590273268,0.9296453285223687,0.8928654708250556,0.8583525677185833,0.8228111680206696,0.7872039570421601,0.7488770235951709,0.7130409756163325,0.6854629042885054,0.6758600279145035,0.6691849620123086,0.6612688070046222,0.6535093533626373,0.6358180817882991,0.6405771109446636,0.6489601781695906,0.6486422956095906,0.6429871062395597,0.6388577833764637,0.6310857428000146,0.620158973917607,0.6112756630464695,0.6180742179497569,0.6456721397764705,0.676265878943054,0.7095935337911339,0.740594207871146,0.7684337551400593,0.7927247051467134,0.7905327936413071,0.7661097764018805,0.7367554579776479,0.7075502489963137,0.6765592208100288,0.6477494183982614,0.620488757376288,0.5975743450336408,0.5760920697755072,0.5577935619805705,0.5408323559209476,0.5233716183499046,0.5031557863845623,0.4739808267783022,0.4409628617679806,0.4072521901393865,0.37099317675793486,0.3351088748284473,0.29958949376875854,0.2612669529514019,0.2252061703864624,0.18983170255350468,0.1525397191749509,0.11818337093237258,0.08170324949978702,0.0470480156154609,0.00974467962811243,0.0,0.03413815926776387,0.07254789937466993,0.1090870459336607,0.13713393004862506,0.16973806335695213,0.2043276616745635,0.24199106942806659,0.2762917732886725,0.31382373567723065,0.35094721148979746,0.385458874972027,0.4235688999160444,0.46127961559720554,0.49554744760714786,0.5333141316734548,0.5717433910121443,0.6100192266100863,0.6449378701714045,0.6815041770873469,0.7199165080340066,0.7583255085892326,0.7947658432924982,0.8298018416786572,0.8672194694477242,0.8935290657010779,0.8832964807955297,0.8477551561545951,0.8134535918712364,0.7767465921449668,0.7425312870757077,0.7071821780791734,0.675199505156648,0.6678789906250194,0.6755376904299646,0.6712835510012548,0.6644459944525033,0.6556751000141608,0.6397223053063786,0.6470551522010674,0.6465932064966908,0.6337731023801503,0.6246177022933024,0.6069013513217159,0.59152454566916,0.5760779081289639,0.5638639368027943,0.5486829872301081,0.5385794616224107,0.5529070507341238,0.58009974899681,0.6093000739262654,0.6403441050278941,0.6698153478282551,0.6948476898060698,0.6986833433077879,0.6782276137503116,0.6505251666592686,0.6237350003872593,0.5939941941027852,0.5661023223965969,0.539948338397402,0.5192731491467527,0.5119641175404809,0.5137729368806928,0.5028181649455193,0.47828124280949247,0.4455294471696922,0.40916314014908084,0.3708026009600931,0.3349202396910175,0.29937670602948374,0.26172595911762475,0.22747097263412586,0.18988148161614515,0.15550532457694966,0.12620395403335039,0.09397523112447781,0.06010092574379711,0.05949530006835424,0.09330974343225334,0.12876404483730708,0.16693233804925783,0.20177326525638062,0.2381181027033037,0.27256028328482174,0.30960103789333404,0.3446013458807523,0.3810703326007807,0.41945874306938646,0.45594351703077163,0.49094348976725,0.5292217302116747,0.5676116990580786,0.6036216410108192,0.6390486366974071,0.6773948097408138,0.7157540883150557,0.7512760296651289,0.7871824985238667,0.8255665057682797,0.8630058670178979,0.8907176764692855,0.9242845071149839,0.9626215596877654,0.9971817782539434,1.0,0.972495481629678,0.9382237424558859,0.9033379151782379,0.8682785362103496,0.8321225359573443,0.7968987759044057,0.7633640693674943,0.7349339444585616,0.7252841909344465,0.7130155690774909,0.6965657865764683,0.6799353759300188,0.6665085234287957,0.6444045295119888,0.6464874370569736,0.6587184395303922,0.66034394265528,0.6546717176958192,MI
0.5695049780971206,0.5628409378904979,0.5464235986828898,0.5210962947877051,0.49242195008515965,0.4646768717876142,0.4326437509641341,0.39889346068194453,0.3682090366416264,0.33453770162711227,0.3003963039332529,0.26666921326138904,0.22819596824305322,0.1928834571063367,0.16200791889153132,0.1267162690393453,0.09483292405113075,0.07198314982108944,0.050413030465152886,0.02563370662696718,0.017528807385379874,0.03260709735078082,0.04907395068750642,0.06394001261400084,0.07856185039002628,0.09904467169401299,0.1149874590780453,0.12473698924718102,0.13448563455243856,0.15348614143515804,0.17652158588563682,0.20968265285865972,0.24524160332214806,0.280616340722027,0.31732710752317494,0.3574284328802082,0.39371974008959487,0.42959017253989984,0.4695996598336116,0.505144859103406,0.5417687928961643,0.5818679752924205,0.6182561034410186,0.654031857912889,0.6941117536621493,0.7313630380855005,0.7663305152708351,0.8063483951787911,0.8454602448142492,0.879194887913378,0.9168647462251067,0.95013816551956,0.9733405711570446,0.9571719575367141,0.9234147625108915,0.889733770254511,0.8510594922572157,0.815848649222291,0.7788990530811593,0.741588123471606,0.7067523723469569,0.670582181875534,0.6348846390818341,0.6016180719723778,0.5809523917860153,0.5741793664213306,0.5751568270987515,0.5693962048603438,0.5597090537189258,0.5368403878363055,0.5374993095703837,0.5517510952141462,0.5609493529008545,0.5629019298289615,0.5683231982410861,0.5669154921547159,0.576331220472486,0.5753499562806008,0.5686766084068093,0.5610236042216039,0.5529572283773403,0.5439816191308755,0.5367691304648465,0.5372033092749358,0.5439664286789769,0.5509421745765968,0.5580102500601627,0.559167698508451,0.5724331757243435,0.5778478765581088,0.5765200147327638,0.559452442961134,0.5366083248281797,0.505078376861259,0.46967032339282255,0.43938161400421527,0.4083842151653527,0.37473398838782246,0.3408943134069089,0.30733510859292257,0.2748839570257471,0.24210580136653936,0.20878591705435956,0.17380880178594738,0.14513111013351376,0.11387891648857096,0.08156541570060316,0.05317190833106289,0.03461390736324865,0.039547548130078436,0.05081047666766181,0.06846175070173843,0.08153562498380396,0.09613296775228664,0.11163963570984392,0.12654249516410432,0.14257317559534255,0.15228104890111216,0.17790621874960477,0.21100417708084862,0.243354290406256,0.2805685888911882,0.3145425096153749,0.3530693952246764,0.3925495874071887,0.42613013614133055,0.45796126869301124,0.4890820523575412,0.5289890577345,0.5691715357441938,0.6086954240240496,0.6424107917722905,0.681392691163133,0.7215396759283166,0.7583150878337619,0.7937121110534426,0.8335787662265286,0.8680925642000745,0.9018940126911519,0.9350649516705389,0.9487363282442713,0.92619278369483,0.8932830607332318,0.8570213136876879,0.8219553572866645,0.786039705512559,0.7500907133839603,0.7151004203772686,0.6780311885455728,0.6424709839785052,0.6082883315355485,0.5935683792082054,0.5846867078477149,0.5778412418501804,0.5688691667982588,0.5645367253200764,0.5477771917617831,0.545223329573304,0.5621490895833665,0.5744895905193814,0.5659504053336082,0.5661154328826536,0.5625486028838582,0.5612828164395729,0.5602168056218841,0.5493812874081592,0.5490214603251307,0.5481005632090412,0.5377610747190955,0.5332521347770676,0.5359818130098146,0.5468224228893839,0.54972870216301,0.560283563178243,0.5711458393188655,0.5778240850852554,0.5845686490410564,0.5929707618988183,0.5867696778424698,0.5681318678009593,0.5390466532700955,0.5088763876763207,0.4795391647993106,0.44651855397123574,0.4137773821423729,0.3813066210710976,0.34775263953591184,0.3124020655293642,0.27904951803510847,0.24591011628496862,0.2124808171831447,0.1787186214074734,0.14647475439607116,0.11100181181689073,0.07637705046103282,0.04766621805168625,0.01826165417532688,0.0,0.0012900918248573978,0.019757634388851364,0.03739922080436331,0.05796954713175406,0.07234430105042011,0.08931942179562569,0.1053941167839536,0.12020549621004561,0.13569159878793569,0.15410998008631416,0.18020232803513925,0.2135780006791974,0.2501970740449597,0.29034124406321915,0.33052412766486605,0.3703355586676256,0.40447986059632335,0.4427462313400794,0.48152911797732045,0.5132161533672646,0.5403709152706186,0.5784819135842096,0.6169621378759589,0.6509398168562592,0.6907012921240412,0.7308447207270374,0.7674264907540582,0.8030128892690616,0.8430884990967664,0.8805004966859287,0.9151582612943385,0.9498463110898256,0.9846333978079949,1.0,0.9764293949670462,0.9426740654114965,0.9060105627115596,0.8720282419930927,0.8323216801265318,0.7925603660125136,0.7585826870322114,0.7201192106925323,0.6828755741595951,0.6481136617161869,0.6142480912585142,0.5985623420581772,0.5993730663956913,0.5946359383651472,0.5898589344139755,0.5777472335596394,0.5661572881976396,0.576148739096118,0.5968652466342359,0.5937797378414105,0.5915936713742733,0.5906462617286516,0.5888826962527776,MI
0.4272334637376125,0.39348728127082744,0.35804687462730866,0.3226310096961087,0.28379011562405276,0.244061052361761,0.20116277070564603,0.1675371256979954,0.13989859682646033,0.10549130358371572,0.07216296519482768,0.040088264814095886,0.015335676880108728,0.0029590289553413918,0.015282608628516936,0.033530996077921316,0.0491891025474156,0.07003481681698576,0.08352205903326348,0.10164635264901323,0.12382258661346235,0.14148497343505761,0.15642716467209627,0.17168100766670058,0.19011269372014805,0.22591559390493954,0.2617563483837242,0.2967532885220461,0.32598050774943044,0.36141396417849814,0.401982080632624,0.4537854622700048,0.4953984146937893,0.544638896126965,0.5951290989423739,0.6359244272039137,0.688021226105684,0.7338726269753915,0.7785611077925623,0.83094346052428,0.8722470870593027,0.9202790539294963,0.957677815190463,0.9829922823150796,0.9738907090272009,0.9349289083169805,0.8904972273987903,0.8551884006714108,0.8323545503871022,0.7987324329336292,0.7588056880754599,0.7228206464467379,0.6804626468555508,0.6423418467202224,0.6232099211927524,0.61095985158958,0.6102755673810716,0.610350539479708,0.61839706411198,0.6349842432392871,0.628524475538291,0.615360284458391,0.6102670228283427,0.6050522430239273,0.5809956165950307,0.5558689212688259,0.5562326703881788,0.5691781159895108,0.591334292080008,0.6079342111567252,0.6102725429892621,0.6102755251844001,0.6102620804647851,0.6058737160758132,0.5949051472754925,0.5946249146923619,0.594624914692361,0.5946249146923597,0.5946226175273837,0.5925991345784172,0.5820560191937911,0.5934918220619303,0.5946247564548899,0.594624914692353,0.5946249146923517,0.5946249146923503,0.5946249146923495,0.5946249146923477,0.5945987356659068,0.5889845594032996,0.5647204112318756,0.5437407969810089,0.5189981985575605,0.48588593890810516,0.45819115446974257,0.4205268525729373,0.38026028435333803,0.3401942573594159,0.3059110918913679,0.2677871207566289,0.23234265121943265,0.1969552382164954,0.16192950108683002,0.13372639091165173,0.10158779032614884,0.07300431845407651,0.04670136635297606,0.03169044329232218,0.03290873287366569,0.05248386198581345,0.06257604136802097,0.07524331080274571,0.0928500486563153,0.10493624053726203,0.12429558569810606,0.14183722447958047,0.1636137378479363,0.18729321018070433,0.21201767831747764,0.2471767521335293,0.28255020500652694,0.32284481519457264,0.3657288585881808,0.41420459016661226,0.45624077362734017,0.5087670261392172,0.5521027081230385,0.5990640777438361,0.6374274286202004,0.6639686969318772,0.7114768856620146,0.7642250930189718,0.806353137214332,0.8548867303773027,0.9023681117436984,0.9453999482601745,0.9874744873864056,1.0,0.980244361844965,0.9362221423004562,0.8997123421038382,0.8609228956743467,0.8326840446831665,0.7939405586209327,0.7585941159951037,0.7220669219867566,0.6823042557055183,0.643083800561925,0.6341896518033119,0.6415147108556325,0.6416710340388798,0.6500735965367803,0.657175180308597,0.6572245325491934,0.6549887711502005,0.6387896284665513,0.6341923302997157,0.6268923773487534,0.600345319979902,0.5675308332051507,0.5413695926587012,0.5478069291982091,0.5693528524605176,0.5997347887180307,0.6141924852577394,0.6255363195433272,0.625582404227222,0.6146558232891239,0.610292300130105,0.614128142569498,0.6246681718047475,0.6128846967186887,0.6102772652844974,0.6126702338055834,0.6197326484094616,0.6103254997932721,0.6014433756544331,0.5946570988205471,0.5946023152232369,0.5897540395341667,0.5888576895416051,0.5945557725633432,0.5889552123682416,0.5791285543045643,0.5789742015856514,0.5784375438384544,0.5623716143897171,0.5375186603301914,0.5164451598977711,0.48352549273613965,0.45601107310802425,0.42173506604511557,0.37684951994532057,0.3357915587044209,0.3003342280650987,0.2632635718280709,0.2269055019865358,0.19410183782943013,0.15926822801127383,0.12873006038693457,0.09705533579222347,0.06319473147037558,0.03239085854935997,0.005623237858855656,0.0,0.00823769553947118,0.021192991585527565,0.04268902781896644,0.05719390819166836,0.07700093424541254,0.09403608638688166,0.11434542195339414,0.1390953948992717,0.15999359888176468,0.1826760774315508,0.20326949478963208,0.2297685176538633,0.25826381192711034,0.279606555294595,0.3268758743420914,0.36740366854629114,0.4147905418512301,0.45695653384681423,0.508626062796059,0.549013428742553,0.599746979986183,0.6379588943317245,0.6728736528569441,0.7131973847567057,0.765214516586016,0.8154091877026475,0.8563398299575664,0.908645183659456,0.9581687244973298,0.9836235866523162,0.9806178443372957,0.9488921121631928,0.9043599558861706,0.8651857343974734,0.8425410663782356,0.8129675387629054,0.7774057664529956,0.7370150365496082,0.6928708928201432,0.6531045194027829,0.6417185960415468,0.6415772026594615,0.6431308871236143,0.6558032801841525,0.6572265876396237,0.6572075740373129,0.6524028119473502,0.6412174217161497,0.6277963895507037,0.6077668780144525,MI
0.9763723900262221,1.0,0.9947609605283368,0.9597548972557522,0.9286612237015254,0.9060659154729688,0.899911628481845,0.9060508850336219,0.9049681096573733,0.8871015593602408,0.8584400669980706,0.8276293170930932,0.8005238839103886,0.7723762117986809,0.7464739549466123,0.742912401437522,0.7606164086618917,0.7827147315608706,0.7864276303964431,0.7684952797209766,0.748099376763178,0.7440481574294847,0.7506544215959695,0.7576079918332349,0.764746627579424,0.7668674690140868,0.7315628338139152,0.6824810593077936,0.6332181764934269,0.5844022771665575,0.5411595129452701,0.49381178919806434,0.44455716458767014,0.3954012459158093,0.3506845431673421,0.30510798362395086,0.25609335117753007,0.2120744461663191,0.16676915713301865,0.13529146681327764,0.14433827641500918,0.1880031352150917,0.23648884811025483,0.2793623501999396,0.32737509829913036,0.37663532143675627,0.4258984024430169,0.47513814302874346,0.5216395831055617,0.5655121474392543,0.6145592281471383,0.6638223006896881,0.713083064145568,0.7611897478856909,0.8040925751144433,0.8520180664593676,0.8951658976260924,0.9362937950089821,0.9607581178624615,0.9858502899268794,0.9753420865620767,0.9401061841329278,0.9084979732929418,0.8848602620454556,0.8803367498359466,0.8693276792412213,0.8599174921948841,0.8443968050581075,0.8213685616070702,0.7896059565103076,0.7576387097340299,0.7257786618741612,0.6996552063450684,0.6830536602118881,0.6955559634498528,0.7190302259028468,0.722271245777837,0.6952732967168541,0.6664430264801194,0.659603088309409,0.6698576040952585,0.6952442705831409,0.7195806820031828,0.7356221782051678,0.742674801319766,0.713050889643363,0.67040702505076,0.6217756650664833,0.5747760286306965,0.539443411468335,0.49894031445925047,0.4498882190322263,0.40078588016764016,0.35648454711533206,0.3104555356567452,0.26122742224578477,0.212049043199957,0.16715030756859905,0.12178606398058944,0.07556734090825523,0.04305586112204862,0.051835180676542914,0.09640122742198698,0.14055590843425791,0.18671813616943733,0.2359541782826562,0.28521725928891706,0.3344803402951778,0.3837434213014387,0.43300650230769955,0.48226958331396064,0.5315326643202215,0.5807957453264815,0.6300588263327423,0.6793124550560553,0.7265513058369025,0.7698701818025532,0.8187140121503843,0.8663508958835066,0.9086001957442914,0.945963694582404,0.9585770750709671,0.9458482874198039,0.9079560619777985,0.8661322804403154,0.8315496896156572,0.8059747215085783,0.7995223999770039,0.8103008876322432,0.8066190151339637,0.7854993630424291,0.7593255387887566,0.7321883945783584,0.7074828094900641,0.6828601790041812,0.6608739595966137,0.6583309211034737,0.6780663479487709,0.7067892493169098,0.7220075541956342,0.6968305145085155,0.6669697269205727,0.6425834712269195,0.6392248714118053,0.6529141252249188,0.6739412530862213,0.693590867264383,0.6989004778711968,0.6769175801134256,0.6306225357369398,0.5870102650167349,0.540204631845501,0.4909785013240521,0.444509653813855,0.4005917150385684,0.35155948731079656,0.302296443685925,0.2530423637743342,0.20580816155595216,0.16250564767755904,0.1136559939080416,0.06714640659190463,0.02434178534721887,0.0,0.025748902591046563,0.07017699163164703,0.11935867612391093,0.1672902572317283,0.21022423820153802,0.25876011589805004,0.3080224130213257,0.3572854940275867,0.40654857503384745,0.4558116560401083,0.5050747370463692,0.5542264875678081,0.5989265196887766,0.644525121127295,0.6937355542867795,0.7429986190709291,0.7921031755998779,0.8363741634113245,0.8817259870821205,0.9230141876801811,0.9528611077910777,0.9656029389270396,0.9391834052371594,0.9000003314856951,0.8646483607018086,0.8399652742895766,0.8315380221622336,0.8326099446770384,0.8366796900679735,0.8167591901567114,0.7909262499473467,0.7635848920162874,0.7316918988511495,0.7019191428193049,0.6713381121999663,0.6450529466274876,0.6407495214909656,0.6565637215780075,0.6745900117753162,0.6626727100388227,0.6571224680312887,0.6706781473367817,0.6874943308079752,0.7111379457953103,0.7351219318731067,0.7467478640235617,0.7353438751031965,0.6970079393375247,0.6516765200424152,0.6073937143941036,0.5582867469051117,0.5090238281199767,0.4601442133258761,0.41675768247634826,0.36961560766559665,0.3203628641752472,0.27109978316898553,0.22183670216272355,0.17257884220179398,0.12497233746871084,0.0823207407587786,0.04946630535376395,0.06442256083368902,0.10457424679828164,0.15273203854790762,0.20199325670730162,0.25125410617841004,0.29938580458029207,0.3422845243071949,0.3906552107460569,0.43991715495396966,0.48918023596023164,0.5384433169664934,0.5877063979727551,0.6368713436606018,0.6817650275493058,0.7271655430115377,0.7763660158607985,0.8247978902037724,0.8676352402682143,0.9133739298969589,0.9514944653096761,0.9748240554160116,0.9798789595859031,0.9470426077262551,0.9126568264295988,0.885090845572649,0.8736940296895367,0.8703199709576802,0.8709567110826476,0.8869481494312327,MI
0.40339356295647555,0.38161607069472003,0.346583741737408,0.3184172824537368,0.2893817898804387,0.28993640666608855,0.3004023477732487,0.28478096322709057,0.2521401441437525,0.2157050227400945,0.17457548959629032,0.1353506726553475,0.10118234875244969,0.08035342058656392,0.09243143491215955,0.1222405847689072,0.1635016279342385,0.20726327090502816,0.23190860616016717,0.20685013184677326,0.1610775243666136,0.11125198905181133,0.06219023815375824,0.04287331220907342,0.08894195594438181,0.1395188881344258,0.1908791936243086,0.24607192145857426,0.29995416848711254,0.3532270396672945,0.41203200903761084,0.4687310925898869,0.519679593787971,0.5779646088992305,0.6362479339076808,0.6871829785261252,0.7438956424387138,0.8027742783810055,0.8577874079743142,0.9100136777268613,0.9643080796934218,0.989119837929995,0.9525292418680509,0.8941741853337952,0.8410085735471207,0.78699058819461,0.7292656473404644,0.6786499362846918,0.6221500202801467,0.5715194371786454,0.5176110851045095,0.47335354903724824,0.4454428774503254,0.43847431156370864,0.4288178168757444,0.41738031357242855,0.40409956646321654,0.38371179549393486,0.3663076032259027,0.3398474556645301,0.30950358914239406,0.2807536832838591,0.27703849071719855,0.2946216677974858,0.29344483224127993,0.2665469399403364,0.23516158613979687,0.19660287935503207,0.15704740850889576,0.11721222843773149,0.08750868252851496,0.08501616903279019,0.10508846855825515,0.14573842216916688,0.1880149627126364,0.22505826173515375,0.22243836973859987,0.1842089693400628,0.13553080215489177,0.08502798994406002,0.03605777756440531,0.013231053149996619,0.053500256709265503,0.10820326085594822,0.15950546521242503,0.2101919361084441,0.26632484537051493,0.3173665134583916,0.3729843949423992,0.41743327104448724,0.46902065858232533,0.5195900676010907,0.5770329576316626,0.6357360281521525,0.6879591057481289,0.742986023368317,0.8018434409874617,0.8569966543004355,0.9091001271133148,0.9635634551877399,0.9893833739070932,0.9593579295654833,0.9057652502232829,0.8469025509278183,0.7879835080700242,0.7295186320300016,0.6781816416084026,0.6229986167301844,0.5723491675449102,0.5182880767540647,0.4714475930581461,0.4443016986674644,0.44128881960378474,0.4326957100153852,0.4207521776291565,0.4052365528992221,0.388627513529352,0.37028364718351114,0.34147448841375105,0.3079130784170585,0.2736273086161636,0.2635239304652359,0.28422492321230264,0.288272538568378,0.26949556788402873,0.2408636726886486,0.20530122873869305,0.16510913330985444,0.12091732017149437,0.09290286680492299,0.09012812427227757,0.11037806810534367,0.15377857694417685,0.19512718420226483,0.2113568109414352,0.18231701549212675,0.13502755332072902,0.08411782439168891,0.03329803764989392,0.0,0.03448329798224736,0.08500982598299589,0.13810001068241595,0.19094913839914152,0.2418743224843818,0.2984143360299252,0.3565551919979373,0.407358015356204,0.464336654908881,0.5228363862222796,0.5742314031775841,0.6302725768534951,0.6891195411949063,0.7432030790094395,0.7963083573872647,0.8550948385730421,0.9118612831871442,0.9554855949088774,0.9585320224320564,0.9160271845688779,0.8649173164926267,0.8092485523991944,0.7503465319823823,0.6914274800855915,0.6329226440039022,0.5814817393162579,0.5263655586956542,0.47630398426487464,0.43432078683434594,0.4153850799001959,0.41633736026367196,0.41391943751010407,0.40368658091928,0.39464918575121466,0.3730946500354937,0.35785612133595235,0.33521009313906314,0.301824300678011,0.26833510220737766,0.24480513511000646,0.24876193689554826,0.2557734109765126,0.24104322283212887,0.20898303735402424,0.1722074802711795,0.13421755163680937,0.09369917879687706,0.06018191466208722,0.049296653634525844,0.06878347839837917,0.10481956714747054,0.14839923692322943,0.1962856684247809,0.2398016481043046,0.2519686620568862,0.2181708626867438,0.17140383805344994,0.12063327519283007,0.07206822344641761,0.05603953716562593,0.10385512524901341,0.1543774476170503,0.20813923670708068,0.2604323255359071,0.3169279277732846,0.3678649463703554,0.4261321952551871,0.48240886291051166,0.5336429128676714,0.592064773825056,0.6492136509035926,0.6999287369370737,0.757993627418964,0.8168644947093624,0.8713359432969552,0.9240753731930209,0.9793481371791086,1.0000000000000002,0.9669336677842606,0.912423438536494,0.8563522118810714,0.8050108176594326,0.7465232573694351,0.6876042527219488,0.6289040146969656,0.5765806362582151,0.5228924547888492,0.4778230000249726,0.4503627530933294,0.45261860198895265,0.4451290689459606,0.4318403479433779,0.4183696360779241,0.40641732206499714,0.39366193798914684,0.3700025707487522,0.34173696916842555,0.30915684502998864,0.27924053351080325,0.2743939974291545,0.2882009802998273,0.2811832629679418,0.25061464636363007,0.22010871430055245,0.19556808171660545,0.18549052379842235,0.18185262574099958,0.15236769558728058,0.11258633422714781,0.0894965490963553,0.10018585732099572,0.13486430941214334,0.1759233189586935,0.21460344912422769,0.24430128365723425,MI
0.6932475209443238,0.7016202936528607,0.7079778095051884,0.7088684773976474,0.7091042959592359,0.7135137125137714,0.7150313092327099,0.7158517092570116,0.7206596547524795,0.7212001805641055,0.7213481431881219,0.725334508194952,0.727594896688309,0.73203546356301,0.7335268982091385,0.7335295819046905,0.7322878220259241,0.7212665912393112,0.710263931717281,0.7117942022972636,0.7150747279214349,0.7216966372745275,0.7390645280036834,0.7486604751726806,0.752228719675982,0.7567286197865251,0.7553739119272513,0.7334798559639624,0.7076142998371973,0.6810185921455617,0.6522999018315355,0.6314704561549523,0.611583993898984,0.5914775294700063,0.5653088698443689,0.5360508201056653,0.5067460108287932,0.47744120155192094,0.44813639227504865,0.41889889072338893,0.39299532435807216,0.3663563014570137,0.33708277098076345,0.30777796170389127,0.2784731524270192,0.2491683431501469,0.21986353387327484,0.19062875362038684,0.16475065512361559,0.13808478785746514,0.10880991257898953,0.07950510330211735,0.050243110061512164,0.02410109447862735,0.0007695679600566718,0.0,0.02197244327769099,0.04912648322364427,0.07841705345272942,0.10772186272960166,0.13702667200647378,0.1663314812833459,0.19563629056021808,0.22494109983709032,0.2542459091139625,0.2835507183908347,0.3128446520132462,0.3402636092188075,0.3654457557978408,0.3946043599029486,0.4239091489619923,0.45321395823886446,0.48251876751573664,0.5118235767926088,0.5411283860694809,0.5704331953463534,0.5997380046232257,0.6290428139000979,0.6583476231769699,0.6876524324538421,0.7169572417307144,0.7462620510075866,0.7755668602844585,0.8048635635199675,0.8325141532698759,0.8575101705742441,0.886620525500234,0.9159250639346572,0.9445189929728588,0.9492305478183225,0.9220573793403597,0.8965790381834207,0.8696890708413714,0.8448714990647328,0.8217760672594197,0.8054665671701347,0.7977567043965244,0.7952098937011916,0.7952431128796289,0.7988497559388108,0.8064628888675973,0.8089352224899986,0.8099623857822549,0.7989654025026005,0.7840094100973904,0.7655622401623847,0.7486352370392708,0.7287736009313734,0.7099945581171346,0.689546148076611,0.6687886510066545,0.6488287390258697,0.6365818738254063,0.6405467690206456,0.6546489369676703,0.6696038430099069,0.6855391401752812,0.7013027785371865,0.7098998463530146,0.715177925789408,0.7203276346376888,0.7251425395694591,0.7273501480669107,0.72734306166787,0.724858549193482,0.7212756780780121,0.721074827989086,0.7171341447110473,0.7136390981878318,0.7091222938183415,0.7078888358869397,0.7028556213991854,0.6975824590001098,0.6891273357474238,0.6748756254262934,0.666116304308266,0.6602328541265026,0.6490560123392267,0.6529215855905586,0.6706087687231084,0.683486968983227,0.6892579056882828,0.690975081890501,0.6952987781746213,0.6827531077619113,0.6542945548035717,0.6269752375282275,0.601687666640298,0.572536737996418,0.5432319567804975,0.5140611193799131,0.4887671233855292,0.4614707951740342,0.4321783278173801,0.402873518540508,0.3735687092636357,0.34426389998676366,0.31496960007397246,0.2876861132466002,0.2623675809245454,0.23321025934610806,0.20390546941560633,0.1746006601387341,0.14529585086186197,0.1159915285921731,0.0872350639784143,0.0627400169360075,0.03435772274349996,0.011529959584500094,0.011801326610387797,0.03730261771934823,0.06659357842273833,0.09589838769961051,0.12520319697648274,0.15450800625335487,0.18381281553022705,0.21311762480709928,0.24242243408397135,0.27172724336084353,0.3010320526377157,0.3303368619145878,0.35964167119145984,0.38894648046833213,0.4182512897452044,0.4475560990220766,0.47686090829894867,0.5061653482305998,0.5349172589990268,0.5594647128856408,0.5879154877829171,0.6172193388701066,0.6465241481469786,0.6758289574238506,0.7051337667007236,0.7344385759775955,0.7637433852544679,0.7930481945313399,0.8223530038082123,0.8516578130850845,0.8809626223619564,0.9102674316388286,0.9395712826437661,0.96819413236034,0.9922355910602834,1.0,0.9738717698076491,0.9479582709550052,0.9213395627721321,0.8937190084949793,0.8687774268232205,0.8432407756282092,0.8219288063245864,0.8071670985774946,0.8015663509569044,0.8020574114461059,0.8082034691542506,0.8135400357199696,0.8179277213814822,0.8185207217539081,0.8085386407231725,0.7956960724547653,0.7808912459797794,0.7630268729166634,0.744972491153963,0.7250324692792376,0.7044035696831008,0.6838000960763629,0.6613258068849096,0.643525302060308,0.6355961444344815,0.6408500342509482,0.6577238978232968,0.6788562278003333,0.6964781488619056,0.7106923767098398,0.7222815795991007,0.728437910182727,0.7331608792971045,0.7335317583146461,0.7335318677697884,0.7335318677697891,0.73353186776979,0.7335316586394662,0.7331083077480813,0.7283956152895947,0.7273496171550766,0.7250387081698391,0.7213012539992776,0.7212006478209285,0.7212006361433907,0.7212006361433914,0.7212005336599163,0.7208203774807385,0.7128536707041193,0.7034195306915948,MI
0.6166575947406587,0.6387403573098369,0.6640413065273492,0.7016054031197339,0.745239742147233,0.7855998882051922,0.8239285714729505,0.8682679425551985,0.9104846976408478,0.9535559313362783,0.9397506227538817,0.9101298094757067,0.8663972582030788,0.8242465296436048,0.7756919480009243,0.730997131241343,0.6855747186092549,0.6416320252867438,0.5990211347265155,0.5605954413400023,0.5171199224885268,0.4811466920367342,0.4497027818819921,0.43863658500739455,0.4367987424192359,0.4260700962649788,0.3875582984263557,0.35635827880153825,0.33806156503498586,0.3302368049601456,0.35384835303844775,0.39195745850820907,0.3938812899476427,0.36664048145355377,0.3344498713316493,0.307972188292575,0.2803108259087268,0.25009842094236134,0.22156351992048218,0.19627269990440932,0.17487254012520026,0.17434704614984797,0.1922406986596017,0.22119011488805285,0.252364299959448,0.2922998944483435,0.3331987821573634,0.369399669657986,0.40628329266958896,0.4421554167538202,0.4737703063410479,0.5014100737636091,0.5140163449666408,0.5138990961627408,0.5088332856469819,0.5128036064170622,0.4980648001955559,0.4672069024348202,0.4398504531546672,0.4346368831617482,0.45773680257501304,0.4854584120472698,0.5022210322983038,0.5211442114853044,0.5398226009281348,0.5483131562337276,0.5406267954493145,0.5385276965083603,0.5515088472598537,0.5773195456927904,0.5977465316425263,0.6388796597575959,0.6817643980075163,0.7236929247168467,0.7643234647495609,0.8104779064022234,0.8524935047690982,0.9011750649443171,0.942233750656037,0.9492396378754393,0.9024466927512174,0.8519873023736426,0.8015249069198067,0.7510625114659695,0.7006186570418198,0.6536511175264383,0.610218944735377,0.5610048010630688,0.5189821011635332,0.4728118602583993,0.4308837904739642,0.3894299755733366,0.34786492809672054,0.31161712281551757,0.2833622668830442,0.2580952003809267,0.23155645782752,0.20680403130405933,0.18239974609697374,0.15556825441245947,0.12533935585454614,0.09293367845230427,0.06093249901956388,0.029428227205623436,0.0077489699508186405,0.0,0.01756267883068463,0.04501784018764532,0.08603742654795843,0.12133633746767591,0.1570731215787451,0.1949175427737857,0.23275297059631317,0.2707748834732231,0.3111289268761239,0.3514921605503698,0.3889007188268341,0.42281630515399327,0.45176749201498145,0.4705558902309934,0.47973925386097505,0.47426541889306617,0.46206981565487126,0.4361941232384312,0.4141828585639462,0.41990545859778705,0.4497889086150153,0.48153792104439375,0.4967104969230334,0.5165510253056325,0.5319386926673693,0.5442924098801649,0.5491315673685202,0.5540006834648621,0.552168483694939,0.5757570336542519,0.5962397513628468,0.6281909398199874,0.6706801939672424,0.7139000863743956,0.760044304402584,0.8022599796660612,0.8442169554676753,0.8917159476299534,0.9336830091409543,0.9538707123952503,0.9104430396711296,0.8601306651260521,0.8158116018411101,0.7698365178321958,0.722151936883334,0.6794463715229249,0.6348620769579916,0.5908468420741841,0.5491918734668921,0.5079122217547021,0.4719823710088613,0.4434028793503797,0.4138181986286884,0.38530887529618885,0.36110966683650747,0.3355984889344359,0.31149667092768984,0.28144670440882713,0.24939016690104454,0.21877014856106003,0.19014211868324482,0.17171824084305576,0.1638508955234299,0.17717724967805215,0.20709428465171875,0.2407195548450176,0.2743588717389187,0.3082727271871275,0.3454318032346988,0.3832418202971146,0.41974333336635516,0.4563163110524566,0.4928573126920197,0.527936202803766,0.558243985801498,0.5729404179316102,0.5808400333998573,0.5740715408129415,0.5650893431828854,0.5401542745033201,0.5135535070336861,0.5106729992054824,0.5389086879898699,0.5664756485103222,0.5789530586799101,0.5944083421199475,0.6085157928863381,0.6093241299289149,0.6028833020611917,0.5959314740693258,0.6050312766644783,0.6334315695836943,0.654369005497105,0.6946282261347572,0.738214145518816,0.7838932702274455,0.8260068639394091,0.8748648616836381,0.9232473626530713,0.9655124163434279,0.9999999999999998,0.9728711861556374,0.9302432947842763,0.8957929364676509,0.8540033758953711,0.8068723816186878,0.76022400088783,0.716573707147788,0.6708831377211122,0.6273059288717737,0.585526471929255,0.5434685456402364,0.5037977110524667,0.47024279741404795,0.44274161905902343,0.41754892202093785,0.39443648247941754,0.3686846449099155,0.3423202544217143,0.31208264769321015,0.2790221285053509,0.2499254587553852,0.22467201609207454,0.2008254404499037,0.1930250055707996,0.20627288657667964,0.2353844133004388,0.265689239227906,0.2966061322648168,0.3312555097863512,0.36747018774235385,0.4041978272115032,0.44223918596162215,0.48451590199865713,0.5198960480304589,0.5496221727497679,0.57497806073819,0.5974949838622101,0.598071405106734,0.5910136855213322,0.5708749563952673,0.5448035897143877,0.5222751862198276,0.5259500125157008,0.5556742047664307,0.579893705215802,0.5943245166937479,0.6089085240934262,0.6209350337927708,MI
0.09450197354908363,0.11598634511765316,0.1394004820204826,0.16430751457698634,0.19364263562848283,0.21752883383279575,0.24274624599751193,0.266920681888661,0.28879025815189163,0.3135459119332894,0.3348943315258598,0.35644310729128026,0.3766901963958852,0.39954057696998413,0.4196172554784755,0.43589541137907617,0.45259729162677764,0.4713923910018888,0.4890934271615145,0.5025483967811609,0.5155988994514779,0.5305759758640444,0.5581197356251598,0.5898763493448395,0.6245001592274838,0.6535978370901933,0.6873398171848061,0.7222063751239932,0.7518323888814792,0.7848420816093783,0.819563590147352,0.8488015633572678,0.882335301267566,0.9174505522068453,0.9521139491560883,0.9716545819636105,0.9609267513783671,0.9371939984951129,0.9090607955152948,0.8778067855188384,0.8482007088613569,0.8152810784800198,0.784089533664274,0.7528592096925174,0.7215996001294899,0.6923379879964083,0.670047231082758,0.6447415802222657,0.6263882507990962,0.6180824463327771,0.6096103985309552,0.5972027517919897,0.583662151949604,0.571072837396467,0.5558895879132023,0.5405023131957306,0.5281045714128222,0.5298390978352613,0.5296139781571246,0.5249478391130872,0.5242281853997491,0.5181230612168529,0.5169843744836661,0.5184772073405587,0.5253763554600047,0.5319887826337683,0.5327210583249679,0.5354292867384151,0.5423462658784316,0.5450266104118952,0.5491903375618238,0.5562180573412364,0.560356212891833,0.5713769236319995,0.5790640208120875,0.5879034738409407,0.5997975883244232,0.6073312441716615,0.6113212764550026,0.615195738003994,0.6238764959174407,0.6323448683697667,0.6349129624332494,0.6371836768196723,0.6482355015268507,0.6452042971211595,0.6486384407361886,0.6494176271011994,0.6384256600258428,0.6267106549611415,0.60681978153276,0.5854635760314807,0.5585396762325868,0.5296501535474972,0.49634563940458143,0.46806747781291536,0.43961781354068663,0.4087182419145555,0.37813198576692286,0.3479889829098556,0.31811425100715496,0.2889403406766483,0.2601751096873387,0.22913169689340307,0.1990753134500699,0.17005485168152135,0.14219173384283434,0.11542988030665269,0.08985233766214784,0.08550421650480822,0.10310896588802954,0.12803576786049498,0.14952854834284157,0.1735840115873829,0.19810973515851527,0.21943437110284758,0.24478376094641596,0.27091050585335197,0.29545709463238057,0.3185650238230274,0.3387153673487896,0.3568111262953618,0.3746311426354797,0.39306711500588387,0.41729694192253863,0.4379222797190906,0.4550479514683906,0.47210060822815747,0.49234965900999417,0.5100123109681475,0.5263196718753954,0.5512405032162407,0.581109014047812,0.6156357142278365,0.6448269015169014,0.6784300534886384,0.7133419093192311,0.7431330865436258,0.7759324288738246,0.8109511800432178,0.8415825380412253,0.8734528015661976,0.9085119781809431,0.9401205765426491,0.9705008012080222,0.994929048299292,0.9999999999999999,0.9764117297930758,0.9463544958435778,0.9146605732351506,0.8853637344775308,0.8522675650087009,0.8228926128692119,0.7898563378940021,0.7604223256212318,0.727993161075612,0.7010711423170958,0.6906073467156472,0.6965102153952701,0.6978085676462372,0.6953797698101963,0.6884248156622964,0.6773888037758126,0.6671837394316821,0.6729527421523879,0.6816873334962058,0.6799737925002135,0.6730328143289098,0.6668068348982202,0.666370265722206,0.6663699071723627,0.6658514051853445,0.6580149976828086,0.6509676110365451,0.6506452225815503,0.6514574302643795,0.6569336786105601,0.650549514937845,0.6396622451433537,0.6229643818654681,0.6021337678996851,0.5800590450736048,0.5523171983380423,0.5258066252426193,0.49937444788888763,0.4711885776767445,0.4416831897045487,0.4129500704847219,0.3838800424751544,0.35254084423266285,0.32321504747948004,0.2884400892344535,0.2544194489827384,0.22542247676140004,0.19316631765804548,0.16407184961308585,0.13537939862178316,0.10586511879295368,0.0749167973959124,0.046533602470903546,0.02027406240989671,0.0,7.400224340459172e-05,0.019870348591398912,0.04263463292701364,0.06499259872734764,0.08812736403615617,0.11364666147890368,0.13618029250650687,0.16046850217877673,0.18421650968555314,0.2061528957496409,0.23334473026405356,0.2555654432287807,0.2778825353824853,0.29822061487932416,0.3157570971570346,0.33083175885657246,0.35223639270167084,0.37242077338728696,0.38872299567579593,0.4036947636712428,0.4211865719197604,0.43886282913454566,0.46312658990417355,0.49758574623171603,0.5327050272435109,0.5674579956128784,0.5967427339385295,0.6302070577873898,0.6652870069799853,0.6967859626124456,0.7277572655184442,0.7628164075434803,0.7966851430887297,0.8257417007531832,0.8598789217483723,0.8887587158110427,0.912759372275166,0.9113402428912666,0.888067136855294,0.8682156498277308,0.8463568088579766,0.8151482439541978,0.7856084560339395,0.7507625109205652,0.7157982370761712,0.6856655776746751,0.6537331609795053,0.6266319875523253,0.6124895744267073,0.6150142693216888,0.6191677243989645,0.6308416013671115,0.6376850701305653,MI
0.8070402213358429,0.7746409444530277,0.7355272368102327,0.6995319847992661,0.662239614046673,0.6283334292188169,0.5978715012840944,0.5602750996001625,0.5349658034876187,0.5261244230655916,0.514218701319647,0.49706529863140314,0.48809845675186037,0.49971146820488854,0.5186898830812202,0.5204559919115482,0.5129444623205649,0.5039929058753526,0.49514311015063195,0.48053760053770744,0.46444806048084286,0.4566268569813329,0.4630456627319167,0.4775600266727741,0.49489705174611276,0.5076321312521413,0.51354432989598,0.5002352729312368,0.47647657942673527,0.44706796546404337,0.4147307267497812,0.38072407256304197,0.3466095309897327,0.3124776990145893,0.2774004307506782,0.24186060385048946,0.20859215635198414,0.17958658086797863,0.1456184839861807,0.11177004708061988,0.07900710384459153,0.047477568696686956,0.020324582526089707,0.017913896714848332,0.04467653310225217,0.07477145778355343,0.10091197196854851,0.12746152476892636,0.15162518442698014,0.17512310098839023,0.20058537910113405,0.22534943781694705,0.24740103227336296,0.27280549660041375,0.30468899920627457,0.3357348753959487,0.37063915087456445,0.40788279989610643,0.44584435398112154,0.4827659998030015,0.5235881672482011,0.5645133627110758,0.6054384848684747,0.646102294485874,0.6822378974830742,0.721197548043924,0.7621118178230305,0.8029016374027601,0.839652575199478,0.8778879188326579,0.9185852797171344,0.954870381429645,0.989794082785305,0.9992574284320183,0.9717071012811619,0.9334572911665452,0.897106898309619,0.8574736155513273,0.82361890186764,0.7887974284885132,0.7575293863341387,0.7251781577970554,0.6888813037908462,0.6532642355927468,0.6183033405967612,0.5847199696317883,0.556572646465482,0.5439567933316868,0.5315429670487474,0.5181415655189853,0.506932530566507,0.5137288465273729,0.5260938372755953,0.5317842934899936,0.5280118909976003,0.5205665469250124,0.5116315532597112,0.502603017756193,0.4866811856842589,0.46931653388190064,0.45343560569554164,0.4446026526830119,0.4513557112139538,0.46784840543628137,0.48243312029380403,0.49046152260310094,0.48245437045639383,0.4610589242544386,0.4310818429033577,0.4001867687813391,0.3675402660211723,0.3334050362117761,0.29817024829943495,0.2640296730950634,0.23096018601496737,0.1949552731852492,0.15936573903853835,0.12187927493131723,0.08878348521153279,0.05485441700284366,0.023260146448982666,0.0,0.00923112980452323,0.033789664909463224,0.06379310856408338,0.09141067874383768,0.11919090195131254,0.14184936997542674,0.1652188733603316,0.1887011701043404,0.2120996025510643,0.2355684177760088,0.26457597294466473,0.2947095716239484,0.32985237848167104,0.36725522907253694,0.40394384781869064,0.44208583614582186,0.47914994400684086,0.5170159424188375,0.5577498091095415,0.5943869927400022,0.6327472670279509,0.6736472375009078,0.7145724405471069,0.7554976435933075,0.7964228466395075,0.837348049685707,0.8782709768259084,0.9181723784445296,0.9528367535341385,0.9862998885267426,1.0,0.974024380904778,0.9376444434746231,0.8969161919806415,0.8601242546525506,0.828397318180362,0.7898229824240585,0.7539045657839173,0.7140494885248271,0.678500759203886,0.6391505980830178,0.6073117599476549,0.5708546120837213,0.5364425900436071,0.5177889493594966,0.5043594009335443,0.4844217414940538,0.4682848227658155,0.47264445373544206,0.49544145720466914,0.5053310140077628,0.5108695236870727,0.5121739964140838,0.5117048529996552,0.5038986403300946,0.49010510171288957,0.47810922114705445,0.46561182170311943,0.44836736614951833,0.4343098496884018,0.4233019849858096,0.43163266414864,0.449970617135912,0.46647716119163174,0.48421678942240376,0.4898379366298685,0.47683598021021656,0.45235186815017026,0.4241371088925877,0.39185106915645285,0.35909377860357294,0.3248152897622435,0.2860141588677302,0.25151380189254036,0.21687539234143183,0.18224481903390077,0.14814975383378093,0.11447167802275038,0.08110815107334124,0.049750634328718624,0.019959337383846032,0.008433741078315737,0.03283581919583356,0.058330420244600334,0.0828278436630171,0.10356856621346433,0.12005029427953506,0.13664593199259623,0.15615279627621503,0.17908675701061727,0.20651108581673483,0.2321616913516661,0.25183860304036354,0.2381155364467592,0.2581356475892994,0.26857240187418674,0.2805259228790745,0.3106358811649873,0.3301196867709991,0.3109790296760867,0.2880539416003719,0.3068270697150218,0.334991731386444,0.3441619869205982,0.3672958040942741,0.4025840100716077,0.4416922107009754,0.47761258353243286,0.5051933101622358,0.5434489465738005,0.5843558854000724,0.6252478494008505,0.6633525863359991,0.7002168127124005,0.7410291475769274,0.7819076994272939,0.8196890136310809,0.8563025989592016,0.8916223755130716,0.9223439243107011,0.9223348292003076,0.8922282584351496,0.8526444535531715,0.8130786706780956,0.7776441948909597,0.7420418491732984,0.7029873278552335,0.6621388240628551,0.6246486972211912,0.5875125070594326,0.5538793089104478,0.5243766536734725,0.49226126841705875,MI
0.8144053463233534,0.8143794058943308,0.8083792340806282,0.7994409593679146,0.7992765904296442,0.7992765904296477,0.7992765904296517,0.7992765904296553,0.7992765904296588,0.7992765904296624,0.7992765904296659,0.7992765904296695,0.7992765904296726,0.7991254866019863,0.78915198301776,0.7841663213305812,0.7841478345359651,0.7841478345359683,0.7841478345359718,0.7841478345359758,0.7841478345359794,0.7841478345359829,0.784147834535986,0.78414783453599,0.7834328010195857,0.7674601442880307,0.7447365301950799,0.7387914013668748,0.7421902858934679,0.7619418712121777,0.7689832442125746,0.7692874012605535,0.7817644485079587,0.798254675262434,0.7871029040137425,0.7612046723427484,0.720568039359414,0.6845521721326548,0.6376642649992865,0.5992893808847453,0.55728300865943,0.5116053114763126,0.4759500460833235,0.42933362174882506,0.38163393508130383,0.33393385767521666,0.287501181968032,0.2522191641402698,0.20596172570461113,0.15826230394459273,0.11056222653850578,0.06368013244420223,0.02861780859297669,0.0,0.021267400202573228,0.059951784705561284,0.10098905000844427,0.14865109431799883,0.19635117172408578,0.24405124913017207,0.29175132653625857,0.33945094697690426,0.3859776248366935,0.4215395783383773,0.4674234895541409,0.5151229576729732,0.56282303507906,0.6105231124851467,0.6582231898912334,0.7059232672973206,0.7536233447034069,0.8013234221094931,0.84896903257882,0.8895837927819685,0.9293555738121047,0.9750283890666149,0.9720442013955428,0.9340367268661236,0.893895141808148,0.8602428510991711,0.8324845691977645,0.8090557536630891,0.7921644493426103,0.7842435147233737,0.7841478345360495,0.784136185441354,0.778919133969787,0.7692263733699622,0.766433179874614,0.7540236213228679,0.7404610420558124,0.7244932557921335,0.6988926211556983,0.6737146822092868,0.6498564713153194,0.6265419740949012,0.6091171826882165,0.5859740488915879,0.5715271494468808,0.558731640908027,0.5572285524752538,0.5613584544417889,0.5827648887372621,0.6079368170265003,0.6379010633882132,0.6624147005528527,0.7000629105786995,0.7322066212073808,0.7559270234461217,0.7738207335424034,0.7945425242326993,0.7992723254190484,0.799276590429836,0.7992765904298396,0.7992765904298431,0.7992765904298467,0.7992765904298507,0.7992765904298542,0.7979725638123765,0.7855719215470569,0.781892202436314,0.7699773846703568,0.769019376663366,0.76901907864243,0.7690213402615989,0.7716497709526822,0.7835134847055052,0.784147834536165,0.7841478345361685,0.7841478345361717,0.7841478345361756,0.7841473312119254,0.7824043088957606,0.7702288602348366,0.7690195620986584,0.7690190786424704,0.769019078642474,0.7690190786424775,0.7690190786424811,0.7690190786424846,0.7690190786424886,0.7690190786424922,0.7690190786424957,0.7690190786424993,0.7688251322931166,0.7534006845745673,0.7385498413810407,0.7272609840189617,0.72507001500925,0.7430384874797178,0.764945135201561,0.7690211746045068,0.7721719313105124,0.7836176530754781,0.7806510819190877,0.7530920777702166,0.7133274355958088,0.6782246715117775,0.6322364725002494,0.5845372494208574,0.5368371720147711,0.48913709460868304,0.4415212223023386,0.40300710298666953,0.3611412904263638,0.31346554087806,0.2657654634719715,0.2186707411363631,0.18272096487298284,0.13779075201774194,0.09009425412109962,0.04405445678823039,0.01728949736005081,0.02260789626062687,0.056632161843496176,0.10397676809088807,0.1513579268690719,0.18782293857868448,0.23195139681470156,0.2796483218215151,0.3273483992276014,0.3750484766336881,0.4227485540397744,0.4704486314458607,0.5181487088519487,0.5658487862580355,0.6135332974010841,0.6566720146992866,0.6940583506907991,0.7415203399886625,0.7892204173947488,0.8369204948008351,0.8846205722069236,0.9323206496130103,0.9796770475696035,1.0,0.9698139769104115,0.9449402930772743,0.9134885379708857,0.8769423346451104,0.8450707187707924,0.8141290888830977,0.799639731882773,0.7945999441012797,0.7843877611005938,0.7841478345362827,0.7841478345362862,0.7841445231925137,0.7804631882112125,0.7693193428633651,0.7637169782071491,0.7430798130091123,0.7270016601532387,0.7087448803076617,0.685004474116309,0.6642822008930773,0.6437841304913636,0.6191035956909796,0.606757063077616,0.5956081920482483,0.5876045086781505,0.5931434704200704,0.6160289375251935,0.6469392278231401,0.6779480483262654,0.7052717422752326,0.7337457789982746,0.7576192247968065,0.7814914157731723,0.8048968373906482,0.8215321587241564,0.8294864036807272,0.8335796155896236,0.836820998614074,0.8399930771097406,0.84368403180568,0.8311006533945773,0.8238154483825006,0.8145868874498161,0.814405346323809,0.814327737224529,0.8054962841738753,0.7993028653089342,0.7992765904301007,0.7992765904301042,0.7992765904301078,0.7992765904301113,0.7992727492713345,0.7952133376986792,0.7844221054761866,0.784147834536403,0.7841478345364066,0.7841478345364106,0.7841478345364141,0.7841478345364168,MI
