0,1,2,3,4,5,6,7,8,9,10,11,12,13,14,15,16,17,18,19,20,21,22,23,24,25,26,27,28,29,30,31,32,33,34,35,36,37,38,39,40,41,42,43,44,45,46,47,48,49,50,51,52,53,54,55,56,57,58,59,60,61,62,63,64,65,66,67,68,69,70,71,72,73,74,75,76,77,78,79,80,81,82,83,84,85,86,87,88,89,90,91,92,93,94,95,96,97,98,99,100,101,102,103,104,105,106,107,108,109,110,111,112,113,114,115,116,117,118,119,120,121,122,123,124,125,126,127,128,129,130,131,132,133,134,135,136,137,138,139,140,141,142,143,144,145,146,147,148,149,150,151,152,153,154,155,156,157,158,159,160,161,162,163,164,165,166,167,168,169,170,171,172,173,174,175,176,177,178,179,180,181,182,183,184,185,186,187,188,189,190,191,192,193,194,195,196,197,198,199,200,201,202,203,204,205,206,207,208,209,210,211,212,213,214,215,216,217,218,219,220,221,222,223,224,225,226,227,228,229,230,231,232,233,234,235,236,237,238,239,240,241,242,243,244,245,246,247,248,249,250,251,252,253,254,Target
1.0,0.8845879167591426,0.8386584089155056,0.7584302166721746,0.6433201806226461,0.7068338608062268,0.7760227246182319,0.6417149372078943,0.4941417315351618,0.679145680633112,0.8316596546427308,0.8162164589646075,0.8589322761738647,0.8890577695712987,0.8962998734509529,0.8925785499390286,0.8337498880927086,0.8788955885195504,0.9527176279323417,0.8310220346975012,0.6189446672454204,0.6812173654644913,0.7590977316620151,0.665740630035802,0.6584420749378266,0.7199089934191678,0.7436439061224378,0.7478398483286595,0.6649334173977639,0.719124713166237,0.7947244124875152,0.6605584836816878,0.4604361148944663,0.5876832469349076,0.7887071080732921,0.7847429487481508,0.7687678414964929,0.7947084773804891,0.800234314613792,0.7831806900445564,0.7151394145111905,0.7256103783112349,0.7561915965434878,0.6098475303701545,0.5363712162435126,0.7328881570001973,0.7670940750765429,0.7305495691067458,0.780465754123226,0.8024146857632868,0.8176318451705604,0.7613667250621685,0.6958956488131205,0.7790254209525309,0.7744324028987817,0.5836508295486944,0.5440665091936596,0.7574482725441503,0.8176381551217433,0.7823252189415424,0.8195990211813446,0.8270399567067659,0.8205179800927527,0.7828250942756982,0.7124279653859069,0.7724318480548413,0.7421257857473582,0.6081103156175574,0.7505125902464427,0.8437527476808397,0.8112861588474818,0.8687372854958992,0.8663353807790108,0.8195508569894361,0.7532230550084293,0.6444049312908791,0.6538860880079975,0.7174184312946719,0.6026964845616647,0.4699656535246725,0.650025189490437,0.7615854496312129,0.7243824284168723,0.7541166514198321,0.7524938818626963,0.7279919681922797,0.7028832415208919,0.6138831514828769,0.6080441570931656,0.7652705867666021,0.7744026940937399,0.597438475188562,0.4908844306406071,0.6914726684373687,0.7923308058767577,0.7517625248682811,0.7594036770989303,0.7317520766663963,0.7091782342865809,0.7298902665594915,0.6970845185629579,0.4535242907005989,0.19894267146376293,0.2127278319044607,0.4749149642950565,0.7051642384275219,0.7342001122382558,0.5797343349909438,0.5563884743126943,0.6589233265745529,0.6917548892338878,0.7147558627488708,0.7228871277374085,0.6775481823156662,0.7058126738595925,0.5877073001402435,0.31502683358499944,0.1346648235209919,0.30865317391598984,0.5690197974289777,0.6729974565407699,0.5977669121263771,0.6199670323364641,0.7299195708446713,0.7960210480847507,0.8357798319533136,0.8100420350250805,0.766386520868692,0.7892093650742167,0.5994145918021645,0.32188980827747976,0.26286330731992597,0.5069502723894477,0.7208826510783855,0.7259310732071691,0.6719120476845777,0.7553302749556143,0.7888336197745716,0.7947655519872698,0.7841282230408466,0.7397366022405307,0.7777764311006334,0.659411397661749,0.37959871445042775,0.160865538578224,0.2898597521691671,0.5629771228561691,0.7491261759594432,0.7118664855352481,0.6636435709370685,0.7550077496595828,0.7816924291287422,0.763372287726644,0.7361507316347509,0.687023086405141,0.7335882327750254,0.6149249655837352,0.3563705143965667,0.15025155906672477,0.27635455756488686,0.5470289736666749,0.7169028250662894,0.6917223244180637,0.6789164202933105,0.7493366638777483,0.7679116191692716,0.762372181861751,0.7224797988902874,0.7483280849179039,0.7026653251360953,0.44913069220514085,0.21160346142159442,0.3033450666188035,0.5729953749134487,0.7524502468398153,0.697371087695601,0.6177917615684068,0.6959246712352734,0.7110939056158512,0.6896123018211706,0.6401694534403917,0.6008136620362823,0.6759204565108048,0.5854710453964913,0.3365347980556203,0.345104102218222,0.60885318164424,0.8506132199394285,0.9004945171704017,0.8025712105671774,0.8187229639613527,0.8658736522908752,0.8606175854435263,0.8470578435520539,0.7850126014033809,0.7881566500624178,0.6835542789674887,0.4094509357540243,0.19822478594438725,0.3365069287445274,0.5936666812107592,0.7401190759173824,0.6667601086473702,0.5983791782180015,0.7136234645218187,0.8033584023867173,0.8410381190839622,0.9388842742324932,0.9193212809350655,0.7907202524961612,0.707321301047704,0.6485045742849249,0.4724782558372775,0.2284157691211613,0.0,0.07589108008799289,0.34221122809186116,0.5983410089639025,0.7057184619718351,0.6099319639330127,0.598396194912002,0.6826734126206675,0.726379300344518,0.7625606142291759,0.7497813548203125,0.7496516549213639,0.7632939019793499,0.547411394030888,0.2737183465925967,0.2389901801659648,0.4844487253226261,0.7220132725043711,0.7667219255998003,0.757969525073249,0.8135604364389704,0.720952483993414,0.5462244158235443,0.6744131279856767,0.8260116202836689,0.785626348292642,0.7904732344493446,0.792314845058852,0.7521908307850438,0.7114157020310998,0.6347397080500734,0.6728036188298094,0.7449807681562943,0.6207947752740408,0.3774035110364103,0.33292456490892525,0.5588637188570229,0.694611470891138,0.7586210251222449,0.8424421795725123,0.9699622276942144,MI
1.0,0.6944070051742184,0.5050266883804304,0.4146372056956915,0.3739192737598511,0.43229954236599477,0.4473162639836654,0.4530557016151482,0.4733446416249474,0.32138715068730916,0.0914827459404004,0.14197542392674944,0.2400898062642267,0.36731948710541773,0.7541015247968583,0.998119428653542,0.7589669610978533,0.5366017503743938,0.47442525325715934,0.4289656321053785,0.4635674552384845,0.4728986621120721,0.4797108392567808,0.4948951397769923,0.369039197514085,0.1214898774821842,0.1167162164212614,0.2213084236333207,0.2844962940722251,0.6092135381013852,0.9596090834917241,0.8689277241898461,0.575437275845486,0.4863999421975489,0.42534006955198445,0.46854353643460245,0.4826423830927471,0.4836575283355886,0.4997847705929588,0.4394492788955242,0.18424157809207742,0.08744122061877668,0.20696134789235154,0.25597233704629385,0.5196066911741681,0.9132010511716113,0.9188083961036817,0.6126064042292012,0.5067877274643289,0.44855911124391534,0.44701723748640854,0.4831006588671398,0.4848223460089409,0.4959453789856707,0.41850146212705264,0.15678698672029712,0.09377731849270754,0.20391648325491096,0.25903008034837116,0.5425178041212027,0.9236145296673279,0.8776881139168276,0.5868964454566807,0.5160770103025323,0.444754881891976,0.4563142121423729,0.4691241884261208,0.47459052392108525,0.47709941287790336,0.43708083550036436,0.1927834379567097,0.08441384556721121,0.1874217878304385,0.2281425380539337,0.45763290024547043,0.8642439882761068,0.9591062787307338,0.6474908360817291,0.49937074646403046,0.443829912454186,0.45234315523376667,0.4824577419264613,0.49248862803354365,0.5002881297403823,0.4869209153969303,0.27838061900823674,0.0731374417679782,0.14874381842265816,0.24767732547100363,0.5052172614967492,0.8934033494406362,0.9032237482418597,0.5949985466225045,0.49879226792573705,0.5068983729048093,0.23619080258847602,0.01126487039315438,0.08418249847704895,0.002647166282214952,0.12646646421215957,0.1013091652028304,0.0,0.1751356351193627,0.4117878391794658,0.44475941433753396,0.43675293199001164,0.4260374329084833,0.3819466695389715,0.3962052167040846,0.45627495372760585,0.5531113715467417,0.37393377588811205,0.143503811199724,0.14120807379812805,0.036960606275802776,0.08168398258030618,0.3380946879048463,0.4224574691080236,0.4178162314175311,0.41687426120798987,0.4061466259802611,0.36634216123921526,0.44402077701698106,0.4823546993158794,0.49077453130253,0.2361457569130041,0.16438752873008577,0.07788780531539907,0.010796132420408444,0.22420522394819664,0.4264968376528757,0.4350663253514302,0.42982299292679516,0.42963459065268106,0.3722811743277754,0.4112464164020877,0.4648950436547583,0.546272820544079,0.4274053152222441,0.17873026860968166,0.16658573514853892,0.04858868469564537,0.042205162000767515,0.2980223699175757,0.44707888199155565,0.4364089562068991,0.4301062260746358,0.4242432071782858,0.364999295799614,0.42031294307052036,0.47910038908054675,0.4864773691703719,0.21595977045888026,0.1560207837869929,0.11832026673803497,0.015658766407909752,0.18266798014924124,0.4118225462776435,0.42947790522913776,0.4254566284308199,0.4167071415511523,0.36767823512052367,0.41025600559357667,0.47333498315231903,0.5825557463368845,0.41301922838716276,0.1796251117271095,0.16562362121684981,0.0405271948225705,0.05304614078877168,0.30655779564706,0.41228658476423163,0.39673275570210054,0.39137104359809394,0.3629055531323573,0.3125677448796502,0.3845595970959299,0.49673022649353404,0.6112470312103375,0.4020562534701919,0.1905234120091528,0.21105085767516796,0.09464062095146741,0.09995950937792064,0.353749147501885,0.46737800184447487,0.4594614584368508,0.44276360110485147,0.4052070847213125,0.3809881699251916,0.4431344783366642,0.4754813143772756,0.4346815223982263,0.18824934693836903,0.15451918423096767,0.06564457796463063,0.039634488991812544,0.28155845010746305,0.4371115125308842,0.4356968235932417,0.4291003099885482,0.4170304575915762,0.3689625953203959,0.3632308858893756,0.4301235183521017,0.48010210727115243,0.3022360463227378,0.133060706372226,0.14473726559646294,0.04045531117774348,0.09067159445284001,0.35006757330182325,0.4374856772379596,0.43710495414592554,0.43824291812672467,0.47378725435852553,0.4825206121349548,0.4875341685653991,0.46528827696780617,0.23156243337263582,0.0945054849426723,0.18720204180583466,0.22540299841255562,0.4373810761461998,0.8364571011314288,0.9593381561584273,0.6537603538335803,0.4880843480877073,0.42790359520428556,0.4392037433777509,0.47520831217587967,0.48171447458630334,0.49242086924397155,0.4720427281444568,0.239430177147953,0.08737601292450026,0.18042096681786846,0.2426239123798899,0.49573339263960214,0.8913489355434239,0.9069243774792812,0.6038662516166551,0.5009385523804868,0.4429670518473876,0.45504590956997104,0.4896814422487039,0.5100610314455989,0.5215040073669828,0.48077253747204285,0.23295146016617108,0.13873634673209656,0.25580736278909244,0.30420322448939796,0.5620855113452587,0.9548259514709216,MI
1.0,0.9641438317820046,0.9608937899043655,0.944800074018668,0.9387385318029624,0.9260396981199808,0.7259732880310386,0.6561445031257171,0.8440479951194662,0.9007987362077059,0.6224857496450305,0.571857534807058,0.907676404329008,0.9811352326417597,0.9769776975436324,0.9690311086228829,0.9536412453189973,0.9463225175936207,0.8972148604472001,0.6711143952264191,0.6649412322757038,0.8467670572020216,0.8638267282347987,0.6342075965784424,0.7925008314550464,0.9689337199545731,0.9510091589126133,0.9527833658842293,0.9595595255965383,0.9668178339116822,0.9224595264837436,0.6948621412188518,0.5946383853243946,0.7631829734777766,0.8142831013347616,0.5460301972706103,0.457461433445709,0.7806885097296232,0.8209685443272763,0.6888202645603716,0.4883680202139955,0.5901771417462067,0.4889861373063369,0.692440232167848,0.6554562959072305,0.2436088005121968,0.0,0.3180886602968769,0.6968222536014108,0.7176158261168573,0.5412159589461978,0.5936762706711514,0.8448061770468507,0.9194239610063728,0.9092454378700836,0.9030088533357494,0.8928521500242064,0.8891886057276173,0.6389145969233865,0.20317736338925907,0.1148649934990782,0.5109741534767804,0.8058963909537651,0.7237947054178901,0.5449047360732044,0.6702591037604586,0.8764126895639586,0.8988826396747598,0.9084798353019381,0.9247409660567505,0.9207770186827422,0.9102339909725132,0.7854584875236141,0.3641334565280723,0.08866418172614576,0.37844985086243543,0.7726278828610249,0.8236684012564552,0.6335305311247301,0.5994504535967331,0.8267672003498352,0.8910480665192182,0.8872742401921845,0.9031958446772395,0.9158136622742346,0.9041474359157404,0.8606806300138956,0.4811327859495673,0.12051678198788784,0.30188120825423037,0.7244155232847711,0.867437869150991,0.7089065972466215,0.6088479418180246,0.8155974045988832,0.9212698236358787,0.9140740755397387,0.916272964670938,0.926277184113415,0.9086328732164661,0.9034995891629749,0.606063688821749,0.19105457123193315,0.22383562956779524,0.6365370818624778,0.8360912652787649,0.6984240947249098,0.5683418648062357,0.7567653895591719,0.9003491890748103,0.8854045130668893,0.888559671570814,0.9033348775843462,0.9010261314189023,0.8871378292697112,0.5902425331144665,0.16912106938026406,0.17515807964692165,0.5896395468156379,0.8382183746134793,0.7188010212935101,0.528676675706764,0.649546838598779,0.8664147651331287,0.9068108336061491,0.9133108226672357,0.9245651860163489,0.920467774944592,0.9130981823768742,0.8168378730156478,0.4231781454622845,0.09529336205809602,0.30360188814283684,0.7168469354966296,0.8188240580948123,0.6435095457668627,0.5471710231667946,0.7674682621822491,0.9002345032600778,0.8985366816094746,0.9037553995381393,0.9149176818191229,0.9200964640019178,0.9152867469279506,0.6368793084812729,0.20830514092318686,0.17439540813480803,0.5829030133172186,0.8543085472334551,0.7548591940351679,0.586642603488222,0.7153568622571707,0.8927356130664088,0.9004887654276228,0.904043113098187,0.920148009720763,0.901697327951744,0.8784329489271285,0.579957845409153,0.15763563558002835,0.15428102708215796,0.5685556560367493,0.8295785552114805,0.7258849167295838,0.5531288846249593,0.6860771872377318,0.8767849396567833,0.8958760274691198,0.91640121486475,0.9274434867644197,0.9051677420112156,0.8722191186387049,0.522529218938975,0.1280134106922628,0.2311871579110052,0.6591029248377844,0.9094488716718327,0.6880296540037465,0.5394734447380234,0.8686845962707075,0.9780427961469353,0.9732312321852508,0.9675745368711115,0.9493669974268468,0.9451849924893567,0.8743062905231982,0.65546375698605,0.7018217069645987,0.8744174000692353,0.819407449842239,0.5435197821540794,0.7445079088409383,0.963903105131402,0.9643572797352,0.9707170129704781,0.9576043120622635,0.9536058505624951,0.9420023504081172,0.7722635432969818,0.6573317783410395,0.8298969314722799,0.9261983862297476,0.721743807705588,0.7412489982199961,0.9861198431554223,0.9831240086743658,0.9642763798249541,0.953861933088985,0.953462021748535,0.9568419101531407,0.8387904991333262,0.6234190911320481,0.7265279179977404,0.8858854691078055,0.7822197969054769,0.5348503664270186,0.7977015206847833,0.9926113785555355,0.9761004819718075,0.9736486286170845,0.9718311884992339,0.9593646248843988,0.9466096654520091,0.8268345323662483,0.6108958555147659,0.7102672288860497,0.8845207614643118,0.8069208589262931,0.5887052204261922,0.8403767359513212,0.9702808295291918,0.9601455842527002,0.9439364413029145,0.9306711116432842,0.9462828543057893,0.943011686844148,0.7498144946353316,0.6450336148101594,0.8200875163273271,0.9007884655197755,0.6687255512105228,0.6684244569632309,0.9643224678597377,0.978426749872622,0.9807066227354206,0.970954667951041,0.9677720652875368,0.9728701497827981,0.9291216627064669,0.7131555537552152,0.7248112964365607,0.9030904881976909,0.8813214961173896,0.6561606999150147,0.8656869273622383,MI
0.9174055689220868,0.48434205837405875,0.3341571445110294,0.34153300835380374,0.3624327615870879,0.31931392572853623,0.481827386233979,0.6484281384509902,0.9695931469991574,0.804315665524018,0.39682911939412024,0.3231459869095874,0.33844527131524593,0.36223645331296694,0.3054856175499774,0.47111139844159666,0.6830650131619174,0.9337511555862021,0.6168076536413447,0.3238549514253688,0.26985326272714705,0.3375220143435922,0.3770589861268152,0.3634458570564105,0.5300826491132025,0.7288214320485178,1.0,0.6930566756973229,0.35677846428227,0.29276800766339806,0.35406246886435744,0.33509732480502974,0.36772405797122976,0.5564038902579949,0.8168924936208639,0.9533374662985876,0.5420570769298538,0.3590265514406086,0.31644130058231945,0.36327303787488874,0.30559539149235837,0.3922702769942894,0.5815880572773984,0.8816899785321128,0.8639916128570007,0.4397224832748088,0.3486453160010261,0.3358262836858603,0.3848194249993828,0.32970287653506536,0.4426512101205389,0.6246627772021482,0.9390484937148136,0.8185562569031788,0.40567304613954747,0.2976868164714761,0.3404417705773619,0.3655412212898783,0.3349141938661844,0.5051811477145027,0.6812682720725585,0.956334132292505,0.6837764994084363,0.3492548679064562,0.28293175587623054,0.35937113223756323,0.35910559160834166,0.33526183728879655,0.5118019917655907,0.7282577662929315,0.9475718731883354,0.5863704639358245,0.34631689413055455,0.29175630455327717,0.35647603176031417,0.32717196559632433,0.35571606905874154,0.5182284282969567,0.6958530909926717,0.9234956166147446,0.6454957131754404,0.4419290264970175,0.2714433204229958,0.24204881611498275,0.282895885714195,0.21323180489519689,0.21767616947942559,0.058452819692739855,0.3373960443651287,0.5791940528233623,0.44923926000221837,0.2668972242347616,0.29403688130872774,0.2813459646605787,0.20658327615289895,0.12420445105707079,0.15112336901411894,0.5542021344234955,0.5394464135511776,0.3952115159387406,0.24941498262820705,0.28971907843362255,0.22201279975248567,0.1952346571782695,0.037184002860772836,0.22020341794736265,0.626700694813425,0.5558187511498813,0.4075309692807876,0.243658608732654,0.30026200584185236,0.2947782948992439,0.23622508763466854,0.15877569674462255,0.1758770985697553,0.5686646307084882,0.5710680058168545,0.4138365094620191,0.23684939770698343,0.2828072637499175,0.26427841707281874,0.23617581649773922,0.14311206342850813,0.14048079466206898,0.5737342950063202,0.5996394050103842,0.42737760561825144,0.24447008882458254,0.26631786259739765,0.24301522790100294,0.2057899640828773,0.11669823856531458,0.2886295829935557,0.6256116225978916,0.522067992044069,0.3700924509831294,0.28481559528180345,0.3072669347151604,0.19565412156776318,0.20091886756496313,0.052820868401910914,0.3401798812865984,0.5524117452376518,0.418492216887389,0.23922028479390134,0.29196164235837907,0.3003418825243305,0.21820259761214422,0.1690366067344804,0.14862675993891283,0.5434225811910784,0.5410477563985996,0.3829535853188224,0.22771622526629987,0.2958076822462865,0.2714986285004495,0.24203500455813254,0.13228183869754262,0.2713705921567562,0.6155803901172727,0.5232428550961634,0.31985476919632694,0.23392009854767482,0.30101074037891173,0.23768350011103823,0.23455066841870842,0.07363993533909885,0.3133153717341155,0.5932938798181211,0.4888561409228771,0.31158714642428587,0.26841508915597556,0.30194251503678204,0.19872773466332072,0.1955646626648333,0.04826658039483056,0.2717741528922679,0.608726712891972,0.4965232225824088,0.3373538606617654,0.2696309016028571,0.3300792304664053,0.2696375922153036,0.24084816655809682,0.06529019024226557,0.17673787283104558,0.5986811851367198,0.5397547308535517,0.3911009120217048,0.2043878110352071,0.23421738229649547,0.25430121119886895,0.1636799331169585,0.1348077610380125,0.0,0.37865480916159466,0.5333290021144781,0.38259645892899985,0.18336148238863093,0.17918755270380382,0.20048094057673604,0.13119680842526726,0.10433606742801027,0.10934012591987186,0.5293577069223732,0.5360098034273326,0.4251617291427685,0.4741439203125948,0.6618234831533045,0.9339608190190387,0.6195414705903741,0.3071854773362448,0.21899443207544977,0.27910524140967197,0.2553688645170986,0.28476932833748747,0.47048023849752596,0.6600900194260606,0.9645649534300609,0.6751607486126314,0.29841124517938744,0.2597767473662802,0.3001745880803559,0.3151702506041907,0.26758164913452553,0.4203000994156878,0.5903863810086851,0.8990082048289554,0.7934343260092511,0.3921335126901737,0.3319053225427595,0.3595035079874658,0.3799712224967049,0.33739791657356033,0.4787923190440706,0.6622601899953922,0.9663622850287936,0.8071606617649421,0.368352855637857,0.283123546220712,0.29149180606801073,0.3690242099906804,0.3287067190137487,0.4527938724381815,0.6210277981679382,0.9105316827793186,0.7843647294486678,0.3979049635504621,0.31648207988854216,0.3370140151421981,0.36240749825932617,0.2939429667924365,0.43308883773656026,0.6130836346402853,0.905881645664786,MI
0.9970111492341593,0.8964269306819923,0.9395972927303022,0.9371017298456441,0.8077118019853136,0.5059266060493615,0.6101358323143611,0.9031672451901209,0.9987321804095664,0.7478345647224081,0.5602749127413462,0.8967156309149629,0.9094182074482622,0.8541464232014708,0.9232034654013144,0.9077226619160359,0.8378235609134066,0.5448702003327708,0.4914435882780741,0.7965157071305975,0.9567127574653429,0.7994276300357588,0.60665222063782,0.9029045519641357,0.8978816787351467,0.8906787465377604,0.9295939741471053,0.9220880553165687,0.8821206934839845,0.6632348574227938,0.4913171151231621,0.7502234488862389,0.9404317050742592,0.8448300414989269,0.5854537442965206,0.871592050399042,1.0,0.9156995746772454,0.9477153595362573,0.9323059278029051,0.9011972895774072,0.8650653718039587,0.6783296444168014,0.4595356134601052,0.6981603848128861,0.9501118215874693,0.9270334754661294,0.5716544651090749,0.5470081236483804,0.9146142199332346,0.9195419315075135,0.8916226941693757,0.9386907998754941,0.934853020571897,0.9053947967962515,0.8004422994602955,0.4996466484942488,0.5325440457624628,0.8410988136314002,0.9578459815053981,0.7399645854448011,0.5461442003559132,0.8752187392579902,0.9155872862383396,0.8923158280171384,0.9418726071192567,0.9278736456051178,0.9087604959393158,0.8356734685602842,0.5453377390194416,0.49195896920222504,0.7985038700637785,0.9639117684238441,0.8923416206478936,0.8380740603359702,0.6379552871255787,0.3255194599503022,0.40349895682343995,0.7102854913879151,0.787413161220853,0.807651490411534,0.8216758146152654,0.7788387256430869,0.7882030511158065,0.6842294383842829,0.19212416510067332,0.1744675404046454,0.643651443304746,0.8202318393975179,0.6563906745665804,0.3362744896863794,0.354966872439201,0.6752945379458759,0.787498253776933,0.8137418048459875,0.8138365528077207,0.766123672937002,0.7785430283782206,0.727914907805606,0.2366984533804879,0.10387281168407236,0.5725875739277813,0.8450713542223136,0.752091745425687,0.4430628011817781,0.3282753472476201,0.625522031496414,0.7603304168705574,0.7885367826764034,0.8196153650045077,0.8044950649767775,0.80465622598122,0.8334537054136635,0.3999583512032805,0.08094275422285291,0.4839671805422361,0.8036211077059345,0.738150974797116,0.4518768811136997,0.3394620236734074,0.6380057693606478,0.7900059869323406,0.8051189750469239,0.8090187132987272,0.755174935218025,0.7732108737077916,0.7018095189841667,0.20535227168237835,0.1308362143042885,0.6073170824015821,0.8186530892277939,0.6618829921552032,0.34980718252029597,0.3767575694271059,0.6917559982733152,0.7889273666644288,0.8006321876165972,0.7468401445691364,0.7638699826357112,0.712187151812651,0.24282565958666646,0.2804500527238716,0.7374867557892166,0.8619413277082058,0.6673924545130752,0.36222383632751143,0.4672171430422263,0.7579635980342174,0.8197824319201037,0.7906461451132079,0.7795220855451888,0.7627509453851267,0.29314403010957646,0.15067432875040332,0.6120447977263965,0.8487063506512493,0.709387475881095,0.38305176087848425,0.34318474034214086,0.6702381604712992,0.7866380390234182,0.7925548771117397,0.8104468916158725,0.8140170857932056,0.7964411337430697,0.7571888622720659,0.7697547490608656,0.3615229971193914,0.0,0.37342918630419586,0.7730586569580886,0.7991768908704118,0.5561158737906391,0.3138956926967338,0.5167195458507186,0.7415687699087594,0.7791251995813524,0.8007828401217423,0.8053548963155945,0.7815878939152574,0.769169578256307,0.7349860410396101,0.26738730542887623,0.15800146001927962,0.6176890602043308,0.8332991783198636,0.7210736659300818,0.40395265757590826,0.3227477192014163,0.6426864466206985,0.7905630408999285,0.8061044805986195,0.8110040503353875,0.7851953578054158,0.7372950724317264,0.7939829041842508,0.5048159048541692,0.07623072920848584,0.3613273227595095,0.7722668956618559,0.7910444296541947,0.5209288122080613,0.272745706258799,0.5053922489377927,0.7564644092773412,0.8560784749718007,0.7978818205041458,0.48080751901149554,0.4736127187535324,0.7973650859865988,0.9667133654913322,0.7977065316053169,0.5082199003172572,0.801353911435156,0.9203673814521189,0.8789986730545025,0.9095104069875735,0.928570379749726,0.9263386729593672,0.9046007446659372,0.7047600210463609,0.4325379321912659,0.6277903644954881,0.9057828692224543,0.9312535859708282,0.6469667714811438,0.6913717611406174,0.9379130206925921,0.874140787072732,0.9174158286244416,0.927419549448055,0.9160303789871787,0.8860326609861704,0.7679768640110614,0.48592559582072203,0.5936282840356681,0.869379481655824,0.9640188105051961,0.7351052825253168,0.5459423973695787,0.8732650885735982,0.9123155477253473,0.9056531645342711,0.9416138717231997,0.9305928543673572,0.9174561478537107,0.9081360211499714,0.8976912519231024,0.7225770651341361,0.4433823953226761,0.645395867846903,0.9212722907847257,0.9666960062696801,0.7069364888575689,0.7913458378609994,MI
0.9591762751080468,0.6910058209059913,0.5751342607213124,0.5558275935307102,0.44449358463821387,0.584210644094318,0.8223730547510439,0.6956571028381195,0.5423270393928892,0.6216922789367163,0.5205411795627071,0.5533478670245251,0.7750650285797742,0.7728462449082185,0.6033302502638618,0.6502145181889705,0.566465666299834,0.5476293237283203,0.7532904317050262,0.8828737566115614,0.6569261076090598,0.5189517386420439,0.501135126988459,0.2042640089837242,0.0,0.32711353529111964,0.48615786661008054,0.42452825573204045,0.27446050789946774,0.33760816056346377,0.35926855487491016,0.35143302674588517,0.5104847690563661,0.5243362576796011,0.28755748533162384,0.2288607699481191,0.3550368540042719,0.3097514078132768,0.43317663961297104,0.4917038868614303,0.2856619487252545,0.19296616055016003,0.31312958764015697,0.3299553958425454,0.4783526083844456,0.5406191290300435,0.32479590679381953,0.1849247644713854,0.28884606680992597,0.2495373451578211,0.3318411029146011,0.5431206181468551,0.5179753755834584,0.20725334549570196,0.15083178238967143,0.3075278910132151,0.2931214781911349,0.40063295265981624,0.3977207644285441,0.2041265322478263,0.14785061155059287,0.23369429118060436,0.2097616947267711,0.4245281486130903,0.5656651015146141,0.565512157588282,0.40370398207941305,0.39129051551572314,0.5127118834776829,0.4398278705321368,0.5547774421764324,0.5855344191966974,0.42876989682520605,0.3079182222890058,0.4109223661476604,0.3637401603720214,0.42852993955797114,0.5540176476399035,0.3725177116318408,0.1925201405077197,0.23113065092174478,0.2723637090239208,0.30947001622795556,0.45805475215364755,0.47866829769294617,0.26951265988077244,0.24283799505245085,0.39605922039599895,0.34742785189054715,0.44052088735430894,0.541496326158097,0.3935441602408978,0.2735166032843166,0.332922428652338,0.3576959752389497,0.4243470580266364,0.510375028471429,0.4351003199706831,0.271028300866591,0.2368251201779441,0.3450815044328892,0.29151489674388875,0.44175765469500705,0.4155825901978272,0.2704150758976245,0.2704092246246135,0.3392759752883556,0.29272343616685337,0.46372730729189593,0.53309065108609,0.31555955913308553,0.19683706435474546,0.3397457045437555,0.32638164886489207,0.4394240395437139,0.6109965262523795,0.4409278820056728,0.21472232286355108,0.20767673283056354,0.2971316476493069,0.2841222784218349,0.4758569886037254,0.48420971315627703,0.30960656896657746,0.29114756189810675,0.443818344136635,0.3941619822742606,0.49177287374421574,0.5932224264066033,0.3516010010660997,0.17559525870308912,0.23867600276027812,0.2037226380050332,0.3278845180619925,0.5400281585838851,0.40718609913233994,0.28486639470744857,0.33347291079898866,0.3796692983303336,0.3273494422001755,0.5035028560742036,0.5560387321079703,0.40853440983087586,0.2942272460834401,0.3765401184439727,0.32241016961873603,0.4011454131059047,0.5487109562703041,0.7409491155391974,0.7803145422378486,0.6129827876880554,0.5704569127842678,0.590963968347745,0.5695518082409943,0.7535177083959357,0.9285027679709783,0.6963436385395689,0.5548034824082646,0.6029783140270761,0.5186384973660649,0.5862706369216979,0.8390748972560407,0.7673161679697418,0.5112079582877671,0.4587980553291131,0.4468617224643676,0.4444474037781361,0.705973912540848,0.9572598034900786,0.754155155625782,0.6520180642584124,0.6931654217021355,0.5528096568079581,0.5826626616288393,0.8773560400841527,0.9163642796903542,0.6358509254674845,0.5001426103562299,0.5262705478409253,0.4341506347316102,0.5897896959757083,0.8976531917691255,0.7801005931802845,0.5824041499010697,0.6218995328182464,0.4890873284525643,0.484779521505986,0.7206438372204422,0.9196609499696682,0.6903041240467127,0.5313298904190589,0.6014807928683079,0.5136724522519076,0.5723691342699673,0.8025020173092914,0.7641939065599574,0.595248992563425,0.54040628313646,0.5851521893006626,0.48318076733937954,0.5987475448485968,0.8784781029241078,0.8063051338490475,0.6031182103729678,0.6286685351468626,0.5688366477088542,0.5397861680647309,0.7118295466472429,0.8741883609911709,0.7044813563078063,0.5682902147686866,0.6286320027731609,0.5103000824708586,0.5506263348063047,0.8460055995417375,0.8168450354034626,0.5638256144862441,0.5129300612094037,0.508923155251058,0.4436974082732372,0.6241354758106055,0.9046408799977166,0.7552047148253309,0.5956236664015937,0.6569275678245976,0.6197167155801635,0.5975948021346671,0.8113857590929503,1.0,0.8058388926011535,0.7066029330994126,0.7806550347689294,0.6719530658542716,0.6831684337234645,0.8716375256685738,0.7809231887502155,0.5296741634941866,0.48297382351183504,0.43044878168191714,0.4212081217247885,0.5697140521861499,0.8287598017092757,0.6736119886671519,0.5121035551295963,0.5511620372398855,0.4613014483068172,0.4074388667778348,0.6094701198211898,0.8013594311741996,0.5878134037445815,0.5076444472662871,0.5480468922917807,0.4419836199699234,0.5681552701566082,0.8967312500996663,MI
0.8964160292943717,0.4201370207175841,0.07208671250837728,0.21061336511358597,0.40663550724309605,0.49674914404349035,0.5985474584743704,0.6057591052681546,0.6107023829753997,0.6751746586094289,0.5973348813160713,0.34215813577035004,0.29585664791368416,0.5620439619219209,0.7969131544149781,0.8660669696015724,0.9386689845000347,0.8916207510346039,0.8310471567875193,0.832478454280476,0.7195940742314719,0.47620338871303103,0.2743231595497204,0.4521759959685663,0.615505167343533,0.6807230016077646,0.8186873464582454,0.7464082785124413,0.7139512168099991,0.6871954512392993,0.6183873102357871,0.7106511919038083,0.5550922417868094,0.4747477045476294,0.4765045153917691,0.29499431384509833,0.16409452396341218,0.41809073177096767,0.6406000785072798,0.743037547710391,0.7113426499315256,0.7962860685787847,0.793367719093637,0.6809499253733184,0.6951196170371743,0.47517113497001473,0.19915218526248823,0.1932270618552394,0.46141335440262177,0.5649380335469725,0.5213553967046405,0.48760589635273943,0.5104062486006455,0.31626468039085287,0.3553070996117502,0.2189402181938247,0.0,0.022661066179778366,0.48019889628538914,0.8609663788714652,0.8209404279746675,0.7250330753505518,0.6983804652699455,0.7915404747104557,0.588529601614467,0.5839591654348353,0.5163981587101083,0.30382884756302264,0.19733239192383545,0.46686326518703236,0.6404934916195288,0.6231202487479721,0.5523223942795008,0.643773922099169,0.5507302960496601,0.5085958034782427,0.517706172054456,0.33178824516435634,0.2005235717343985,0.4460400305233452,0.6357989040197083,0.6079789258145905,0.5444628846030684,0.6419593376222483,0.5609162301266091,0.42242698039910564,0.4854075874904411,0.319259320132248,0.1570619346175519,0.3622867891711503,0.6065285861273235,0.6488090858698139,0.5873352521447903,0.6197884778410407,0.6181644764132685,0.44569152193989137,0.4960673492100658,0.3670735112379151,0.20664023348532057,0.3720636466682983,0.6339408195548613,0.6903820758556489,0.6318462676615764,0.6681203268768958,0.6307075926332395,0.4797336055385948,0.5758540334042954,0.45063551800886437,0.2505766686110573,0.3344405586058925,0.598281743330324,0.6315437709743716,0.5746883094193884,0.6182952901923948,0.5654267147054064,0.4155437961240267,0.4874074893349518,0.33784209723622194,0.1425839177690449,0.3069482621350432,0.5965667614204029,0.6753476947532993,0.6541577704299493,0.6747163942918895,0.7302700901443338,0.5027283714662159,0.5607868944805974,0.5004277823135257,0.2907782679503659,0.20977695569798316,0.4823324669206306,0.6348019959021505,0.6160585601482289,0.5811742054139168,0.6645893801116949,0.5237489706469525,0.516656915271478,0.494570723715575,0.2915309239878989,0.15574299717063145,0.39269456833651484,0.5932154437569577,0.6003611917688931,0.5553433047931118,0.6510424859363506,0.5181658683642016,0.45882660879842563,0.4740288454696815,0.30605704910862874,0.20989939961881765,0.4768640854704298,0.6661762918323917,0.6743720769073658,0.608359130525634,0.6837019470962629,0.5663769128585461,0.4914952178296601,0.4887710720799303,0.4062674106281383,0.5478589107331451,0.654778191805808,0.7140280066983999,0.7987411846137125,0.7167167142918434,0.7674093190855031,0.7686433495902159,0.5946245493691986,0.32789118463203826,0.4194815127759295,0.5878796475501589,0.6402403441053903,0.7524945616095189,0.719553532678809,0.6706177958085462,0.7234344900027776,0.665227545559,0.39629560272728437,0.3167782636257721,0.5250515386098908,0.6725823686937424,0.6752182768328545,0.7731591686891712,0.7117355347786658,0.7145179360648624,0.7510130751792921,0.639733678190038,0.36419343807197624,0.39326063891805685,0.6011144248524132,0.7257752105160287,0.7329517646710157,0.8679634509199365,0.7916070567075617,0.7595330547974402,0.7881156146499531,0.6880151917352135,0.38467844481298696,0.2944425704521665,0.5051433835952639,0.6410609893320585,0.6806406757208903,0.7524944836184608,0.6951147393888686,0.7155303632290937,0.7497206102087537,0.5946786394588242,0.3507460696600613,0.4734381113713302,0.65020001351991,0.6862797500233224,0.7591874821583029,0.7833365494392268,0.7335629620372361,0.7986219885952046,0.7694357101666625,0.5918820893211314,0.3422233344903769,0.4432055102604022,0.5944913469341473,0.64589061607689,0.7472669675235721,0.7139522849115321,0.7113854697321491,0.7560008531475422,0.7102773169813319,0.4598772526902395,0.28980500150546185,0.46811947482466376,0.6263375224567662,0.6563065476595127,0.772148039925495,0.6946908471005879,0.6666554357905321,0.736051577167939,0.7079283806015546,0.44556781341740015,0.33036895610290307,0.5267598959464732,0.676751717169787,0.6804315699530457,0.7570249638813249,0.6675442680424926,0.6975171286295758,0.7494196493565819,0.6803722770210059,0.3990894260980533,0.35828720407014725,0.5714401660543631,0.7397712604563353,0.7805029186860151,0.9112921303885662,0.8421318347373674,0.7947812114402231,0.8930131258406742,1.0,MI
0.9174055689220868,0.48434205837405875,0.3341571445110294,0.34153300835380374,0.3624327615870879,0.31931392572853623,0.481827386233979,0.6484281384509902,0.9695931469991574,0.804315665524018,0.39682911939412024,0.3231459869095874,0.33844527131524593,0.36223645331296694,0.3054856175499774,0.47111139844159666,0.6830650131619174,0.9337511555862021,0.6168076536413447,0.3238549514253688,0.26985326272714705,0.3375220143435922,0.3770589861268152,0.3634458570564105,0.5300826491132025,0.7288214320485178,1.0,0.6930566756973229,0.35677846428227,0.29276800766339806,0.35406246886435744,0.33509732480502974,0.36772405797122976,0.5564038902579949,0.8168924936208639,0.9533374662985876,0.5420570769298538,0.3590265514406086,0.31644130058231945,0.36327303787488874,0.30559539149235837,0.3922702769942894,0.5815880572773984,0.8816899785321128,0.8639916128570007,0.4397224832748088,0.3486453160010261,0.3358262836858603,0.3848194249993828,0.32970287653506536,0.4426512101205389,0.6246627772021482,0.9390484937148136,0.8185562569031788,0.40567304613954747,0.2976868164714761,0.3404417705773619,0.3655412212898783,0.3349141938661844,0.5051811477145027,0.6812682720725585,0.956334132292505,0.6837764994084363,0.3492548679064562,0.28293175587623054,0.35937113223756323,0.35910559160834166,0.33526183728879655,0.5118019917655907,0.7282577662929315,0.9475718731883354,0.5863704639358245,0.34631689413055455,0.29175630455327717,0.35647603176031417,0.32717196559632433,0.35571606905874154,0.5182284282969567,0.6958530909926717,0.9234956166147446,0.6454957131754404,0.4419290264970175,0.2714433204229958,0.24204881611498275,0.282895885714195,0.21323180489519689,0.21767616947942559,0.058452819692739855,0.3373960443651287,0.5791940528233623,0.44923926000221837,0.2668972242347616,0.29403688130872774,0.2813459646605787,0.20658327615289895,0.12420445105707079,0.15112336901411894,0.5542021344234955,0.5394464135511776,0.3952115159387406,0.24941498262820705,0.28971907843362255,0.22201279975248567,0.1952346571782695,0.037184002860772836,0.22020341794736265,0.626700694813425,0.5558187511498813,0.4075309692807876,0.243658608732654,0.30026200584185236,0.2947782948992439,0.23622508763466854,0.15877569674462255,0.1758770985697553,0.5686646307084882,0.5710680058168545,0.4138365094620191,0.23684939770698343,0.2828072637499175,0.26427841707281874,0.23617581649773922,0.14311206342850813,0.14048079466206898,0.5737342950063202,0.5996394050103842,0.42737760561825144,0.24447008882458254,0.26631786259739765,0.24301522790100294,0.2057899640828773,0.11669823856531458,0.2886295829935557,0.6256116225978916,0.522067992044069,0.3700924509831294,0.28481559528180345,0.3072669347151604,0.19565412156776318,0.20091886756496313,0.052820868401910914,0.3401798812865984,0.5524117452376518,0.418492216887389,0.23922028479390134,0.29196164235837907,0.3003418825243305,0.21820259761214422,0.1690366067344804,0.14862675993891283,0.5434225811910784,0.5410477563985996,0.3829535853188224,0.22771622526629987,0.2958076822462865,0.2714986285004495,0.24203500455813254,0.13228183869754262,0.2713705921567562,0.6155803901172727,0.5232428550961634,0.31985476919632694,0.23392009854767482,0.30101074037891173,0.23768350011103823,0.23455066841870842,0.07363993533909885,0.3133153717341155,0.5932938798181211,0.4888561409228771,0.31158714642428587,0.26841508915597556,0.30194251503678204,0.19872773466332072,0.1955646626648333,0.04826658039483056,0.2717741528922679,0.608726712891972,0.4965232225824088,0.3373538606617654,0.2696309016028571,0.3300792304664053,0.2696375922153036,0.24084816655809682,0.06529019024226557,0.17673787283104558,0.5986811851367198,0.5397547308535517,0.3911009120217048,0.2043878110352071,0.23421738229649547,0.25430121119886895,0.1636799331169585,0.1348077610380125,0.0,0.37865480916159466,0.5333290021144781,0.38259645892899985,0.18336148238863093,0.17918755270380382,0.20048094057673604,0.13119680842526726,0.10433606742801027,0.10934012591987186,0.5293577069223732,0.5360098034273326,0.4251617291427685,0.4741439203125948,0.6618234831533045,0.9339608190190387,0.6195414705903741,0.3071854773362448,0.21899443207544977,0.27910524140967197,0.2553688645170986,0.28476932833748747,0.47048023849752596,0.6600900194260606,0.9645649534300609,0.6751607486126314,0.29841124517938744,0.2597767473662802,0.3001745880803559,0.3151702506041907,0.26758164913452553,0.4203000994156878,0.5903863810086851,0.8990082048289554,0.7934343260092511,0.3921335126901737,0.3319053225427595,0.3595035079874658,0.3799712224967049,0.33739791657356033,0.4787923190440706,0.6622601899953922,0.9663622850287936,0.8071606617649421,0.368352855637857,0.283123546220712,0.29149180606801073,0.3690242099906804,0.3287067190137487,0.4527938724381815,0.6210277981679382,0.9105316827793186,0.7843647294486678,0.3979049635504621,0.31648207988854216,0.3370140151421981,0.36240749825932617,0.2939429667924365,0.43308883773656026,0.6130836346402853,0.905881645664786,MI
0.05990604719647448,0.3114380523722976,0.582775910426151,0.8337356934264726,0.9379938763778255,0.8504860774738503,0.8386491587759289,0.8820909213894343,0.8764246202068379,0.880296034355752,0.7704002942598542,0.5076287452443224,0.23821083480887334,0.02897712433498144,0.12709239898758456,0.3885667086454832,0.6477081433560199,0.8864644993700946,0.9424972127037143,0.8388909049854508,0.8443722999028689,0.875173820429716,0.8640788829060935,0.8596057147959422,0.6559401189831455,0.383811325973127,0.12072286590428112,0.05842660091354525,0.2907872847806059,0.5510511236174527,0.8068986215674109,0.949932217066555,0.8772521625683508,0.8276266335033245,0.8754104860453047,0.8731241946507964,0.880544420120616,0.718092010938249,0.44950013836574637,0.17980431473652714,0.04500268285087554,0.23178184775109684,0.4989698568465361,0.7641005201288934,0.9537225669761642,0.9251244332771962,0.8313711985214461,0.8701844965745505,0.8756345403687058,0.8563946844770424,0.8012330124089885,0.5576842016307809,0.2936213922304406,0.06280668323670642,0.07275756898702766,0.31966698943152805,0.5828722777823373,0.830922811395691,0.9213288261335111,0.8337100064179648,0.8422790433728192,0.8821978593879387,0.868355054088318,0.8677944755167284,0.686108001793548,0.4258043084264265,0.15782042673007501,0.030670398578698202,0.23298164051779208,0.5039558396599347,0.7680814834415145,0.9508026618786554,0.9222747509212172,0.9385677554740341,0.9921548676988325,0.844700503634685,0.5875105470190297,0.38345158165593957,0.5061023589999203,0.7694334196026514,0.9315202495020276,0.9024714941401504,0.9108476928208848,0.8842663650855944,0.8583555715584916,0.9486423972827054,0.9271868808910522,0.7149359022257108,0.4844833199640654,0.5392189911808213,0.7899744982601918,0.9115773251959836,0.8956327556548201,0.9110478934187856,0.8716588113829687,0.9098769476368527,1.0,0.9061610812324505,0.6707174460485977,0.42549939893030647,0.42260834468989067,0.6461440123101942,0.883155249330789,0.9281538790148653,0.9077542062959054,0.8969288736269073,0.8570576324493318,0.9416976434538864,0.9818418259810437,0.8131004493929876,0.5599493199032098,0.454660193618546,0.664563050545922,0.8954364170870972,0.9133238749889232,0.9005926037083519,0.8960976206189731,0.8558971528232079,0.9314354371381894,0.9875498528568953,0.8374268043360454,0.5839906777154185,0.4732818563640698,0.6843510818844418,0.9032228748840629,0.9126997767106082,0.9140580509555145,0.9015976908841715,0.8563774318511778,0.927281761157492,0.9651794064296906,0.7982103208452997,0.5408809742654528,0.3948188476056857,0.5820568012427424,0.8265998017138867,0.8870370408832631,0.8917456134221403,0.8959351189366608,0.8677525776906326,0.8885718568512844,0.9788594165066062,0.894370648836807,0.6523126760507475,0.4539295431403036,0.5825857326306102,0.8337230660008785,0.9261978650972458,0.9241211702261676,0.9147452981330868,0.8819560339251042,0.885282229623184,0.9776146186220935,0.9080255281626759,0.6710670754144709,0.42566296415696075,0.4324583875782581,0.6839428876045618,0.8951448858498441,0.9168797027908333,0.9203892531753479,0.9025911827602526,0.8582043168505753,0.9288407436219857,0.9747084152998908,0.8202146070835843,0.5705649263644603,0.4360813958125244,0.6321286045668986,0.871134495274128,0.9231646605783401,0.916745787074235,0.8999479155338197,0.8510370020597113,0.8839738852886392,0.9612982527475777,0.8528892820673383,0.6069104879535716,0.45790645386207235,0.6414607061756089,0.8690510141121527,0.907228536151722,0.9110091707160122,0.9069038701184171,0.8662204213023286,0.8991816875341441,0.9833848833209573,0.8890509256264217,0.6523723185556078,0.4284452954699612,0.5049235736875953,0.763628200439764,0.9232480750894705,0.9224100864337297,0.9179809800623961,0.8967623469114813,0.8580504638348657,0.943184695268442,0.96357670799937,0.7886361001099226,0.5374145747554265,0.47128169209319787,0.7010791626602876,0.8946572265959924,0.9049300768629803,0.9093735737315793,0.8996236172045636,0.8588150279425361,0.9426036862614604,0.9874600792403336,0.8421358744231769,0.6116059242985579,0.34932540073377943,0.10838624354222902,0.14871856041943315,0.40739826349405767,0.6578924170400784,0.8776187300775329,0.9468805778369704,0.8452399155954896,0.8451062379137516,0.8816237727302346,0.8776731797970613,0.8610953221729137,0.7155304932196663,0.4505550803006549,0.17777343900307646,0.0,0.15041666154139938,0.4178000168549661,0.6857255217183743,0.9027838943763917,0.9153930626638205,0.8256222090112731,0.8629604694602473,0.889481681000454,0.8901690176985124,0.8578371252698201,0.6519955045839949,0.3890907972937286,0.1283627369139123,0.028414230228514525,0.23686510955593965,0.5028485462614539,0.7604352870022427,0.9382142882360724,0.9033149926210001,0.8228533207693889,0.8702147538694069,0.8823091154868969,0.8720360294442099,0.8149840592882721,0.5829950785114137,0.31106763532873266,0.05789415939380686,MI
1.0,0.76164542879618,0.6996288398312758,0.7280725947282547,0.5908589105498931,0.2991240266251949,0.15870215031533652,0.38944872027550526,0.713500664318254,0.8700106902146021,0.7316376397316793,0.6707542681379541,0.6948212100570967,0.6288362244862107,0.3891426710196926,0.10480436566188156,0.17069698315219028,0.4613396122614619,0.7833352956965007,0.7852765229651189,0.6660153274903711,0.5886662487160614,0.6199865736142898,0.615558482114269,0.43647250852899355,0.14639741603558898,0.0,0.23747211244575794,0.5247279131885854,0.629846115918621,0.5898156197235522,0.6245909977587636,0.6003098845953492,0.6423767659507522,0.3900286187682791,0.11900976858012813,0.14151015189466642,0.4379161177370827,0.6432253438950353,0.6392902246726577,0.6617137289168853,0.7312464941055521,0.7137039414320059,0.3993109125610965,0.1162991759581058,0.09800290314424309,0.390685714671527,0.6207988245604588,0.6575371322145886,0.6289433215538902,0.6848830924303377,0.6387518986689193,0.3591126158128135,0.09737969015442904,0.13972600630527343,0.4405615312060551,0.6342071601131916,0.6433414234786499,0.625728257074361,0.6556795760771412,0.5681259283368747,0.31304530114422957,0.07902977115085097,0.2004781418138568,0.5029056557519418,0.641651522652777,0.6266870204703361,0.6610919230251415,0.6499437983641618,0.6145512276046201,0.3277722361618751,0.1058481466087422,0.24677384042323536,0.547259949713971,0.6906210774996793,0.6715521286325017,0.6760023606208003,0.7157704842988624,0.5700887580593377,0.258162314256398,0.036175821161257726,0.181661283939627,0.4790056122360078,0.6174485000531482,0.6300337900958821,0.6065694543801348,0.6671928696780998,0.6188487920470491,0.3385377118568824,0.08510475345425483,0.1489411676488286,0.45148315828941543,0.6386479878970981,0.6409915210889787,0.6145359071855121,0.6544502833478965,0.5962427857066408,0.33717290661492005,0.07865483701175258,0.14106693183030594,0.44926547836388386,0.6309157241905665,0.6132212481048307,0.6252585683120255,0.6071475418622421,0.6776856759443404,0.5162957606531471,0.22249007933103804,0.09704333684978161,0.3376946175584248,0.6007326631871694,0.6459242384200663,0.6259569371674982,0.6594942376615038,0.6657514836441307,0.3705996208775406,0.07977819509880923,0.032885727264895026,0.31851337620949627,0.5722656301547806,0.6425850394168924,0.6083680008323968,0.6265445280922397,0.6907010227272115,0.54248736730382,0.25209078142097274,0.05809949362268796,0.23934604850875707,0.5398282811281812,0.6756373479854867,0.6472704520364019,0.6600150363935171,0.6504308570007753,0.4932382282638419,0.21519340628187522,0.08840052931477049,0.3267426751549356,0.5854982700489582,0.6579941147042927,0.6391728252559892,0.647555181073141,0.6743941656846824,0.5296873795131165,0.22849675929041124,0.02384013477668212,0.14238508509420567,0.12033507222477002,0.2781364965912325,0.5871906857202651,0.8965718261869653,0.8187115492491128,0.7191472743531748,0.7145640707747152,0.6887699628025641,0.4669754579444374,0.1961574116428373,0.2654973427765619,0.5524470438080855,0.8602119085587878,0.8378369124809661,0.7176928604646693,0.7264305214468143,0.7288299725818663,0.5635983904813333,0.25694351695278805,0.152840719867543,0.3972821387919587,0.7277532791180232,0.9491658568323831,0.7647105812966015,0.6775205787290282,0.7083072211542358,0.6810150083899731,0.4946753016728527,0.18554280383481747,0.11356829616628139,0.38083271639249716,0.7379200440238707,0.9989735611608488,0.7959222013844518,0.6916516658314729,0.7107379831311986,0.6666616863147281,0.41194103148842065,0.17432702945750167,0.314854273902178,0.6246780252935871,0.8841978092982425,0.7622715285171631,0.6842304931391867,0.70441353400017,0.6768513885699634,0.46155430303646505,0.17224982554172685,0.2230737234508413,0.5083824988556211,0.824302346205886,0.8191781045855104,0.6953077652314175,0.6923605235815242,0.7269504429152791,0.6080960638728121,0.3165986560736138,0.12379166514307594,0.31652031754373366,0.6351034883236633,0.9524469886576092,0.8259782726779021,0.6930474007456118,0.6828409198275347,0.6947808130686854,0.5766453089237245,0.29189173966466897,0.11048384680543966,0.3162894938458154,0.6445226112123685,0.9778937020778384,0.8654943904199879,0.7467313287233783,0.7399261963505959,0.7466593449174916,0.5753412521657326,0.27599047647774144,0.20673224596560935,0.46695974324486866,0.804139540179793,0.9088572828856729,0.7560157896718742,0.6919705300317993,0.70643904964875,0.5822577177154153,0.2857108597654945,0.15781808710329814,0.39191934699213493,0.7059037544614126,0.8707082250947171,0.7425092507467488,0.6871395506524429,0.7308338529052989,0.6666804098263719,0.42148241094436756,0.15517410982851132,0.2541148650574587,0.5531465009036931,0.9031220294182032,0.8917436266734291,0.7350173405145513,0.7074410824378052,0.7330162620792398,0.6475521596534928,0.3845453265119254,0.1363677141335078,0.2714265291991427,0.5822815767686116,0.9469654912526764,MI
1.0,0.9641438317820046,0.9608937899043655,0.944800074018668,0.9387385318029624,0.9260396981199808,0.7259732880310386,0.6561445031257171,0.8440479951194662,0.9007987362077059,0.6224857496450305,0.571857534807058,0.907676404329008,0.9811352326417597,0.9769776975436324,0.9690311086228829,0.9536412453189973,0.9463225175936207,0.8972148604472001,0.6711143952264191,0.6649412322757038,0.8467670572020216,0.8638267282347987,0.6342075965784424,0.7925008314550464,0.9689337199545731,0.9510091589126133,0.9527833658842293,0.9595595255965383,0.9668178339116822,0.9224595264837436,0.6948621412188518,0.5946383853243946,0.7631829734777766,0.8142831013347616,0.5460301972706103,0.457461433445709,0.7806885097296232,0.8209685443272763,0.6888202645603716,0.4883680202139955,0.5901771417462067,0.4889861373063369,0.692440232167848,0.6554562959072305,0.2436088005121968,0.0,0.3180886602968769,0.6968222536014108,0.7176158261168573,0.5412159589461978,0.5936762706711514,0.8448061770468507,0.9194239610063728,0.9092454378700836,0.9030088533357494,0.8928521500242064,0.8891886057276173,0.6389145969233865,0.20317736338925907,0.1148649934990782,0.5109741534767804,0.8058963909537651,0.7237947054178901,0.5449047360732044,0.6702591037604586,0.8764126895639586,0.8988826396747598,0.9084798353019381,0.9247409660567505,0.9207770186827422,0.9102339909725132,0.7854584875236141,0.3641334565280723,0.08866418172614576,0.37844985086243543,0.7726278828610249,0.8236684012564552,0.6335305311247301,0.5994504535967331,0.8267672003498352,0.8910480665192182,0.8872742401921845,0.9031958446772395,0.9158136622742346,0.9041474359157404,0.8606806300138956,0.4811327859495673,0.12051678198788784,0.30188120825423037,0.7244155232847711,0.867437869150991,0.7089065972466215,0.6088479418180246,0.8155974045988832,0.9212698236358787,0.9140740755397387,0.916272964670938,0.926277184113415,0.9086328732164661,0.9034995891629749,0.606063688821749,0.19105457123193315,0.22383562956779524,0.6365370818624778,0.8360912652787649,0.6984240947249098,0.5683418648062357,0.7567653895591719,0.9003491890748103,0.8854045130668893,0.888559671570814,0.9033348775843462,0.9010261314189023,0.8871378292697112,0.5902425331144665,0.16912106938026406,0.17515807964692165,0.5896395468156379,0.8382183746134793,0.7188010212935101,0.528676675706764,0.649546838598779,0.8664147651331287,0.9068108336061491,0.9133108226672357,0.9245651860163489,0.920467774944592,0.9130981823768742,0.8168378730156478,0.4231781454622845,0.09529336205809602,0.30360188814283684,0.7168469354966296,0.8188240580948123,0.6435095457668627,0.5471710231667946,0.7674682621822491,0.9002345032600778,0.8985366816094746,0.9037553995381393,0.9149176818191229,0.9200964640019178,0.9152867469279506,0.6368793084812729,0.20830514092318686,0.17439540813480803,0.5829030133172186,0.8543085472334551,0.7548591940351679,0.586642603488222,0.7153568622571707,0.8927356130664088,0.9004887654276228,0.904043113098187,0.920148009720763,0.901697327951744,0.8784329489271285,0.579957845409153,0.15763563558002835,0.15428102708215796,0.5685556560367493,0.8295785552114805,0.7258849167295838,0.5531288846249593,0.6860771872377318,0.8767849396567833,0.8958760274691198,0.91640121486475,0.9274434867644197,0.9051677420112156,0.8722191186387049,0.522529218938975,0.1280134106922628,0.2311871579110052,0.6591029248377844,0.9094488716718327,0.6880296540037465,0.5394734447380234,0.8686845962707075,0.9780427961469353,0.9732312321852508,0.9675745368711115,0.9493669974268468,0.9451849924893567,0.8743062905231982,0.65546375698605,0.7018217069645987,0.8744174000692353,0.819407449842239,0.5435197821540794,0.7445079088409383,0.963903105131402,0.9643572797352,0.9707170129704781,0.9576043120622635,0.9536058505624951,0.9420023504081172,0.7722635432969818,0.6573317783410395,0.8298969314722799,0.9261983862297476,0.721743807705588,0.7412489982199961,0.9861198431554223,0.9831240086743658,0.9642763798249541,0.953861933088985,0.953462021748535,0.9568419101531407,0.8387904991333262,0.6234190911320481,0.7265279179977404,0.8858854691078055,0.7822197969054769,0.5348503664270186,0.7977015206847833,0.9926113785555355,0.9761004819718075,0.9736486286170845,0.9718311884992339,0.9593646248843988,0.9466096654520091,0.8268345323662483,0.6108958555147659,0.7102672288860497,0.8845207614643118,0.8069208589262931,0.5887052204261922,0.8403767359513212,0.9702808295291918,0.9601455842527002,0.9439364413029145,0.9306711116432842,0.9462828543057893,0.943011686844148,0.7498144946353316,0.6450336148101594,0.8200875163273271,0.9007884655197755,0.6687255512105228,0.6684244569632309,0.9643224678597377,0.978426749872622,0.9807066227354206,0.970954667951041,0.9677720652875368,0.9728701497827981,0.9291216627064669,0.7131555537552152,0.7248112964365607,0.9030904881976909,0.8813214961173896,0.6561606999150147,0.8656869273622383,MI
0.9999999999999998,0.8691750883850025,0.8580797063687615,0.8286824122392173,0.7893015878311618,0.8548509215622959,0.8777931615258325,0.6166220839275791,0.6225033800032207,0.6951918647591138,0.5573301882387174,0.33962292975188535,0.20384343726775578,0.3655461297297442,0.5447747612982248,0.6077112934313262,0.6097334831254546,0.6246609185190579,0.649146417843548,0.6268382478665526,0.7066907461672114,0.588974915461252,0.4571648810837774,0.5365724952842805,0.4269383594038618,0.23190152950963494,0.03790914282555047,0.10829871571463556,0.3987585892522254,0.6565631379002359,0.735437783871761,0.7450588946201306,0.7370681865871205,0.7261881109028789,0.7010655280351024,0.7652914041316843,0.5913874428676751,0.41914080704658274,0.5496143538392857,0.47564218755575505,0.27321718381198634,0.030546822628929382,0.0,0.2697721497879231,0.5795153529179742,0.7401416062322539,0.7003487382513931,0.7177046054782754,0.6326437692821065,0.6492928917439573,0.7187579790246541,0.7033014165145106,0.7314193009892929,0.6662518075661716,0.46576598043780115,0.5499369088479291,0.47848031274304437,0.2979330971941512,0.08617477796766804,0.11387584626848146,0.3907285413110744,0.6640483363706295,0.7627660760844306,0.7425736539706715,0.7313909607582401,0.7160275726229708,0.7073420146112301,0.7628166565731893,0.6723253915885321,0.4033451594967341,0.4710857549105587,0.46063446328188107,0.3000351223721551,0.07735678679422842,0.0640900990439921,0.33262463309441426,0.613966270932494,0.7389497361210864,0.7116625329503581,0.7101628838088045,0.708075158599001,0.6989352862486853,0.6835211148647902,0.7539554651567202,0.6747891606896548,0.514082477662001,0.5812855868657945,0.4776705752531065,0.3035423313534753,0.0917725205274269,0.10809915805289094,0.3701524322605414,0.6003638083848692,0.6684419504639909,0.6896540619340477,0.7213955057079999,0.6905118144637032,0.6709558653602972,0.716083950834024,0.6584132997985235,0.4138841685048191,0.4688620120351623,0.48166378577047064,0.3312987379953398,0.11525983817445185,0.0831670502914601,0.3382404218118802,0.6260643065967351,0.7445768248172693,0.7415922368647583,0.7177938127132875,0.7073003041617709,0.6983960244224443,0.675721682315165,0.7178762955232187,0.5152858328185306,0.47629680957820075,0.5430388111541342,0.416364007398637,0.2124598937901001,0.04948757360197842,0.20074521829178993,0.4939597396938247,0.7134464961038856,0.7533432513823597,0.7151768594343502,0.7197671458925985,0.7045810639779868,0.6934030945375194,0.7071629334879346,0.7083726065993112,0.4860835889858839,0.5426860328520959,0.5215504321412174,0.39158922314350053,0.40876273763110205,0.5524049845851877,0.6940336428726794,0.8191562715963887,0.7728327529025192,0.7438622194641837,0.7477876869812199,0.7646120199535131,0.7629296887302142,0.7983134284598765,0.7721511541389647,0.5831847150562046,0.2910347134929665,0.10980070448476487,0.2596677943421364,0.4598189054467363,0.6007772745750244,0.6951279022647938,0.8123505950978764,0.7578790256882588,0.7337758174330111,0.7582555654733547,0.7528608982475959,0.7753856081493793,0.7930735226504528,0.7895293059689539,0.6188940323529473,0.32149370966712776,0.12302475106928745,0.2588381923857832,0.4554664485624724,0.5797495449443697,0.6580747331394077,0.7926230581562173,0.7594866623075891,0.7186562378155386,0.7511467624827977,0.7636309271804977,0.7325483899938889,0.7087987302995651,0.6138873941394885,0.3642110688738929,0.13555290682903864,0.2218273533185402,0.4289122903906284,0.5760034543832999,0.7360398752847288,0.8619591947283884,0.800460368808454,0.7384651294284619,0.7482575970245438,0.7586611379372945,0.7571861258427166,0.7689035027565105,0.7872080757986597,0.6215393278971924,0.33391844748140653,0.10169416171334356,0.20817131513755127,0.41678949156094713,0.5519736357394784,0.661287642296732,0.8372381607720685,0.815710827567939,0.7620330852440893,0.7670439531760846,0.7751320022882726,0.7950119335239287,0.8114403154951295,0.6986541660100913,0.4254764958377655,0.15753517652674764,0.18645126766257003,0.3991365341956463,0.5640081089467828,0.6932028679231923,0.8270736158171601,0.7879682545915057,0.7622828285119843,0.7713845794556051,0.680384353008858,0.7313242824562218,0.76078828145171,0.7769255990050299,0.761810437809046,0.5132947779624282,0.1999488469872126,0.02981665912171727,0.2091447985014998,0.4373020760716517,0.5950460015433661,0.7121562972162427,0.8580716987411303,0.8023447496876412,0.7584967162635183,0.7807063268809482,0.7936785067290766,0.7939518511001253,0.7636792838545854,0.5908698597636313,0.2993236319314103,0.08593299141655164,0.19290286805832135,0.40904272343747294,0.5635311260152538,0.6661878856833798,0.7809127086069945,0.7577915680224567,0.6817031004342022,0.691546080101713,0.6566161993316875,0.664418213007844,0.6317850432371699,0.5581426640200702,0.3550757144341192,0.2908224896500644,0.49423093288810294,0.681448678212264,0.8050477802367633,0.9410578251789075,MI
1.0,0.8978395306188491,0.9508718934301394,0.9037499585456388,0.6690776273172991,0.5329795037917164,0.5374315893350943,0.6060610881206125,0.8685389640873655,0.8068240803578264,0.8119800464395319,0.7580832510685624,0.5354577938741927,0.36189861317766847,0.3360965268577494,0.40311434757107234,0.7172775626906875,0.6588133873025268,0.7174896215214948,0.7959209329168395,0.7475750445172795,0.4517760205285195,0.28518205205564295,0.169588249500509,0.4013768269235407,0.7029425191988095,0.7540458140412669,0.8687014728838105,0.8589263139292846,0.6316502439497307,0.5119111687945423,0.5283198069842472,0.5530513111132462,0.8831435512479904,0.8608938923673475,0.8582557963784434,0.9083566677741097,0.8722262047951221,0.6333155104100068,0.5120565683246325,0.4452295071733703,0.5376721246212064,0.8992283265617407,0.8382255844793374,0.8247829545663867,0.8724695881710005,0.7953669510594001,0.5430001024435178,0.4991756320605303,0.42641849284414857,0.5813649654834019,0.8722994910764346,0.7939004780104204,0.8289263549771069,0.8650683483274273,0.785863100960071,0.5680898919879276,0.5041640643137528,0.438577081245219,0.78830129565584,0.8611112806330121,0.7764077558744926,0.8506556705706019,0.8238201557628413,0.6153824715359693,0.4676748858553852,0.4042847189499956,0.5433296484971706,0.749549870702265,0.6574514523283299,0.7233934176300099,0.7527316743923973,0.6528410209760742,0.47860216852069337,0.44807153729437754,0.37102833284712,0.6921294301819692,0.8383828646545703,0.9381973150279252,0.9191916267232694,0.8227493168111941,0.558395194588841,0.49810077362629057,0.4634623930530317,0.763505286152014,0.8802639923055939,0.7934655451247341,0.7703655808172876,0.686295614765688,0.6901569998515735,0.7557408032329609,0.6537413212100049,0.286751776134194,0.3639023994188211,0.38001883334529163,0.5563155779208935,0.7897492540722828,0.8303416567894559,0.7843149904649436,0.6486478774590694,0.30300111925530526,0.16430793343052685,0.34877377540916976,0.38896413155396914,0.6077024868736753,0.6544125774429768,0.6127282114909782,0.5423833488818093,0.5986285956648629,0.29574676227802366,0.24512362371380858,0.37498918250674995,0.5198046882253045,0.7289772601303559,0.7457421493919534,0.6664391818890536,0.7317009470910052,0.49602045420915886,0.2654446326235096,0.4245557582126067,0.4522229396601185,0.6680074180084641,0.7500297265995375,0.7077946852912294,0.6646833718252005,0.7568718460500272,0.43377731274905384,0.2629613747579931,0.3576800885052822,0.4506032609573505,0.7038080526688484,0.7550251387110429,0.7146551924615618,0.7330009589065836,0.6346197460280938,0.2984370650169108,0.3716150346976623,0.3925842249038256,0.6246713047368146,0.8055761844577223,0.7777726730588306,0.7260642212234636,0.780319934723571,0.4611079238841356,0.3945965779618503,0.40124575055737166,0.5223963211369376,0.7651729652952479,0.7833481545922187,0.6712303792859209,0.6011081794773245,0.289123544918926,0.0,0.1293982086921972,0.26194796881176385,0.5550624695843625,0.715872367142536,0.6537667762647521,0.5448164866916958,0.5980675436252749,0.3635874548981801,0.17244598149902757,0.25691588372170093,0.3348096822980442,0.6069237299381518,0.6953837134955729,0.7194879957329503,0.7051136231526764,0.705696970763309,0.3900610191064535,0.4298303209121368,0.42729766003982617,0.625395925654725,0.8305048402673854,0.8520058837778306,0.7681158221731468,0.8820592718114133,0.6135400188352484,0.3354228610495267,0.4691250633214561,0.5044816791266351,0.7261711335257268,0.7953957301865846,0.7123443323179361,0.7128972716901014,0.7026237672245967,0.37333590870404,0.44002766667962945,0.5056751931136869,0.7433756121758828,0.8366495973155184,0.7155721753400326,0.5768427878344631,0.61668551531961,0.30622958890554974,0.16958862069849157,0.2645430357176901,0.41989467251961576,0.6022213100686797,0.6069353568885525,0.5348017046258766,0.652247623796073,0.4157081807443448,0.2502834117329886,0.3080276624252609,0.3809702168115918,0.6267229026409087,0.673964084981193,0.6320182823626843,0.6736766385932675,0.625963244679419,0.2843599010686879,0.36032267917858785,0.4103175376415371,0.6308038212078575,0.7770616419702581,0.8548754655834521,0.743705805802338,0.5235351399875698,0.5055679781810651,0.42669916533425445,0.7562167550666081,0.8170108921572954,0.7372676609709963,0.7760645813725287,0.7706528290951487,0.565379544128692,0.4290050857208425,0.4086656075190529,0.6673785727407111,0.7232739592030946,0.6548370694757697,0.7100346020598916,0.6865189861167758,0.46856284602503795,0.3686864764192106,0.30207145397646373,0.5353083598196484,0.7363205706904634,0.7666115873134136,0.8958622468562538,0.977553979961828,0.7850617581361319,0.5936641210576892,0.5589409959121356,0.5926328985565448,0.909578035461152,0.8417579906077952,0.8249983616199126,0.8847108945994764,0.8080253799400405,0.5958996119138003,0.5941776673644292,0.5172221548614364,0.8153156287515642,MI
0.9651966781905998,0.6577284526244505,0.5054370317606134,0.4530352052282094,0.41943882537059674,0.46712591895061406,0.4751891744803718,0.47581707293546227,0.5045654174645895,0.3769353965319602,0.1227532145696677,0.11651868142879773,0.22725945745259657,0.2804736864013133,0.5760039583673349,0.9470573001285811,0.895861094552826,0.5889219569991822,0.4776411858813421,0.43325879237228015,0.4636759073584633,0.4848648859977276,0.49262207527202806,0.5126917291650326,0.47811050049543313,0.2309366561537589,0.09733030370799534,0.2037111670845,0.24901507552730884,0.4154920825765003,0.8131043066825456,0.9897403314511313,0.7004534830317386,0.4984724080001861,0.4540021566262187,0.40862077923233553,0.4482980577777642,0.46905730837142023,0.47108905357298836,0.48626765352461954,0.3711282961283189,0.1166646322112479,0.11522419480862434,0.23289941100165445,0.29925516564933385,0.6105177201315612,0.9662639329882832,0.8694595494437003,0.573354925976779,0.4842256839888077,0.4336797459608501,0.4631191551053355,0.4888231926383013,0.4916498976833057,0.49773275119611293,0.4691756593005323,0.2265694807616092,0.08142297630221584,0.18275804622291614,0.22916787879297096,0.3846210179336289,0.747362290654368,1.0,0.762059566339166,0.5205621031680421,0.46450441807396414,0.4238689096842072,0.47321347970392624,0.4837123812584929,0.4832845471068814,0.4976750606966669,0.4143182672513821,0.1584307948744681,0.08820383248654395,0.19819246589164274,0.2768822045275383,0.5687364642641453,0.942235899866942,0.904350727943573,0.5932580158953349,0.49367163269658576,0.4584682972193854,0.458287749034195,0.48777190633769774,0.48962606149357146,0.498879015375465,0.5031140402093346,0.30858218863118303,0.08775180634622393,0.14904517268447726,0.22021983502770937,0.29111586256240285,0.654424419391392,0.9734389870976852,0.8058987652674006,0.5324335883840838,0.465552255770326,0.4137720404409695,0.4653614685164893,0.4912459379473071,0.49808702523203907,0.5167759142728054,0.5082176894979087,0.2818598278585649,0.09378835301340649,0.18362061464852553,0.25253055845750527,0.35854550472416813,0.7371600695123992,0.9644637018568667,0.7054690518933611,0.499920209957061,0.45056699133050726,0.41495386503509923,0.46545140893912995,0.4796037549864822,0.4738491896601058,0.43853087255010026,0.42432210717407104,0.4160220106661172,0.3548948813675341,0.38720202073671617,0.42903881963878776,0.46688035021269814,0.267463175038823,0.18245706232428716,0.15317876457792812,0.027945126023573685,0.12460959227626422,0.389684062862266,0.4679763174396694,0.4483239674499728,0.44017762388822046,0.4150415169577606,0.35871461031977026,0.4057746782775471,0.4506641035964254,0.5439604359505501,0.3315099718620176,0.1291338515352327,0.15597138113580744,0.0542744415291363,0.0536671734362093,0.30750619092719456,0.4532078206626169,0.4429668323224827,0.4388775164401375,0.4309299736701204,0.38989059821514127,0.43155383453560825,0.45428706234143457,0.4861964710163904,0.24124707999041273,0.16934287067759213,0.09684538638012019,0.0,0.16645788151633178,0.4011982774367042,0.4347906379134505,0.4301838711759056,0.433620438681785,0.4077608641190906,0.3711941366695646,0.42182479280769947,0.4750164698976782,0.4549182931110063,0.17408203317553417,0.15413569711388608,0.11981829181302972,0.017387821914913504,0.16765083012258764,0.40987356836093625,0.4470193266288569,0.4420059898979791,0.43602328644229127,0.39302843251564745,0.38099344899582954,0.43462966227086675,0.4902533186893905,0.3535146992876781,0.18440750050737975,0.15691625667226083,0.027085429685354878,0.06360384545746456,0.32342836454830226,0.42888585002674917,0.4168991473177912,0.4142064509337966,0.38899907641751996,0.348578845350096,0.408156448561392,0.4583751007711325,0.5123262577299306,0.2572413282907908,0.17079960810512906,0.14744059385319286,0.03516523528267279,0.15622155979290397,0.4089263958875806,0.4550498508735288,0.4411449695055456,0.43166349992486097,0.4120500975213792,0.36932300654882555,0.41739571850349133,0.47994349153231086,0.5543535753741722,0.2851073857147961,0.1752273020397357,0.13739837722575632,0.009889815114218603,0.0825265381121556,0.3487945850551464,0.44565053556994405,0.4247865936032924,0.42226080530391163,0.4034989221942973,0.3515784586844901,0.41138294849751356,0.4666490509669807,0.5498605118534372,0.33587600084030034,0.16069769631289588,0.17476429760676604,0.061127157024346124,0.08284897868519936,0.34054399083786024,0.44670360665334474,0.4168440458919269,0.41796377769601456,0.3987884998054412,0.35550657758904314,0.40985609296971326,0.46060176233324457,0.5112709608428307,0.25125231927362823,0.16861520067469704,0.46749758681558884,0.8468545549585507,0.9511887777663937,0.6533622479182295,0.4931656909175923,0.4458579098831814,0.41881685158263116,0.46370178903505677,0.46778080554753876,0.471023642639429,0.5085901571488791,0.4064682426937951,0.14785338064594788,0.1270459358211402,0.23661072654996662,0.26974212500493877,0.5480907528646779,0.9348483634164046,MI
0.8990236847641846,0.5816401009171419,0.9033339062410382,0.9105535061297041,0.7754122198252196,0.7695931233193725,0.6997493779982644,0.594878064460381,0.7524970955808761,0.8805454924952301,0.5456765193906503,0.6390304554142294,1.0,0.9345027748666634,0.9913171878227174,0.9404674613412038,0.644819079123264,0.3906715175777755,0.5682190029749119,0.8111799737730268,0.5972938114619222,0.5292056006450143,0.7686133433739428,0.6772850774520167,0.7550972710283137,0.7584179111245786,0.6676304301944707,0.5585362203058271,0.7239442587642313,0.8149434361390262,0.4292727862203183,0.6138025489809928,0.9488324005081843,0.7835353982573183,0.7860846489511952,0.7953889135192913,0.6076844648197062,0.6066085838315383,0.7943917138068479,0.7766545050323974,0.41489566394967925,0.624725699679948,0.8893535346573764,0.8009384890480149,0.8241780151451552,0.7404524706081741,0.5977634526539042,0.5036143358172422,0.5193523694212172,0.14678697209610192,0.08448357471418744,0.0584608990165707,0.12323929463531069,0.41039153471184564,0.5733291990548808,0.6609348759414035,0.6008942840645823,0.7052452044069528,0.39479583162831133,0.09309073165632054,0.5126622763373425,0.6026463617846951,0.40920787383632096,0.4363846897075421,0.6262612492675736,0.6074786287025153,0.5836178456248984,0.7159465800366318,0.2986896366710865,0.15232778578998118,0.5980385333417284,0.5199423668543735,0.3666323530882374,0.4996810561299081,0.5868762232060711,0.5693479726437296,0.4766960376196061,0.5264170013882761,0.2127280418212134,0.10568448099410732,0.5623194063241885,0.4666023513870705,0.2181347779098024,0.33628311341210804,0.702351323385745,0.8238147179994515,0.7663832314787866,0.800204995725688,0.47740619726646427,0.08793577635671435,0.5158485104834218,0.6426212843633068,0.47159069570179035,0.4433650552716264,0.5769383821330134,0.6111213686942158,0.6456943087003162,0.7415423223775104,0.31758868874657065,0.3669819908086587,0.7454582292902763,0.639817430681747,0.48455511564241593,0.5724127214924315,0.6626474023575915,0.5966216665118305,0.5506216590320663,0.5356800233639176,0.04837296830401172,0.20060563535880638,0.5735010520030035,0.447357059757044,0.2980505723838127,0.45240231909099515,0.5245370679273762,0.45171771670138927,0.5773073694651054,0.4888609103305037,0.037453460711868836,0.3742970696463348,0.6475651735759111,0.5514179182312349,0.49992010395817754,0.6411630429403146,0.6783434383581453,0.6314249723313115,0.6539603933658666,0.5754295511948495,0.062149398800902755,0.23844826905910832,0.6586841993908541,0.5144883798982094,0.3362888056789801,0.4920928485122489,0.6034887260748167,0.5755120743026372,0.6472222056498951,0.4797812567042916,0.07828657360033331,0.4558785465894881,0.5699199077326709,0.4044659601813896,0.4260306873422288,0.61508399320391,0.6454082083016282,0.5914984876678959,0.6828971212086796,0.39626053984280585,0.11445635840130786,0.5670076643579303,0.5989987576401847,0.4077829904095771,0.4287778047974866,0.5822357969814695,0.6276677405486799,0.5892775568528705,0.6691009314404299,0.2589491688322747,0.1665869306495389,0.589007147061857,0.5463928227096413,0.42523441950116947,0.580986749241815,0.6552989020200743,0.5867479415575514,0.6133232563732087,0.47046154292928977,0.033275601726031834,0.3896429044549081,0.6376036712822826,0.47548593707774867,0.3783510969864925,0.5385462540226347,0.63516675022862,0.5927904852135528,0.635790021493345,0.39417762305967363,0.0,0.3960449618544737,0.39560156921824463,0.6022392500248435,0.8665757794883935,0.7806099899161292,0.8278737178552578,0.7725759616673327,0.6288318628019196,0.6790042281704061,0.8450725645137265,0.7457217562358491,0.4614487537860974,0.7922640040996707,0.7882488905502778,0.8120165442008611,0.8356957975690182,0.7171473332728175,0.6382401147339238,0.7913786137748313,0.8236151159333618,0.4732875778183461,0.7344559205863073,0.8944085149785383,0.7950940588992843,0.8010172905516315,0.6971905681556172,0.572456243963301,0.7251895213727941,0.9121529452882617,0.6582403921955726,0.7073157604776537,0.9317164144171839,0.7818620552009783,0.8347131343939918,0.8154281768398466,0.6746926549606953,0.6157095517172131,0.7819214168445661,0.7734313675610704,0.3669164138545016,0.6513229194908927,0.901824737843036,0.7676214341078342,0.8040069409736721,0.7689529858652242,0.5875553314732991,0.6184519832703073,0.8534719932196984,0.8320446391327154,0.5176415323281729,0.8113894660980843,0.82398736227083,0.8602548109079109,0.8881624701084423,0.8381339110405426,0.7000108394447273,0.7884698918217494,0.8835234434521988,0.6488203520667692,0.5982566628038315,0.8345302816481261,0.6524103336867202,0.6964196835303009,0.7066192575708445,0.5632910486108491,0.5612235051224204,0.7796703337667501,0.7803087670350055,0.3649517727170699,0.6374778346962011,0.8768163134628071,0.7252664442186822,0.8076522981259,0.7975359851646444,0.6673987565455493,0.731810722406323,0.9434220622717091,MI
0.9999999999999998,0.9253494628512742,0.9312432827596056,0.884452948165668,0.8153118320587416,0.5852444184922698,0.5899512568346867,0.7201320125647663,0.691894401924382,0.4902789564634975,0.8100084936436021,0.8939163704526647,0.7558095005045311,0.7826442742569191,0.7790538544616072,0.7435826928962823,0.5241306492474285,0.5252193318328404,0.6946154589568747,0.6288001009250765,0.5144604048870589,0.7844848836662004,0.6887306137918212,0.7289901524027547,0.7987196295170589,0.8002722274447585,0.7507462554929039,0.5237992834734457,0.5474947760984936,0.6239653583376044,0.4772395544238479,0.3326679636119547,0.7320182389712737,0.7494692345993224,0.7053667775143972,0.7585314299932617,0.7432009176449574,0.6941389395490216,0.4900285309519543,0.5092130858249024,0.6423222425655688,0.5212766841633576,0.494339219708394,0.8206655212863028,0.7257129621542007,0.7318384261736239,0.7289112504339157,0.719782326591494,0.7410964886267919,0.6090511764961535,0.6270458719850798,0.682141960029288,0.5963902676153434,0.7576458309942347,0.6991396007948587,0.35090364099907956,0.19529772258212552,0.0825515972525348,0.09375653295865227,0.4676118164302172,0.5335901677254935,0.455639693331489,0.5615537297898834,0.6114899666024989,0.5750673241755371,0.6118404029907525,0.5805569849659455,0.5990988974066604,0.4551135013300527,0.0914139091194166,0.34606103621191875,0.4822696311903949,0.3529596215923958,0.3652636029555183,0.5681915572340477,0.6133669952150826,0.6243552649257456,0.573200210834848,0.6379656660906019,0.34152304118557875,0.0,0.3145983249212645,0.4787533130679871,0.389313476411038,0.4549702591027309,0.6532015359999968,0.6598053941600892,0.6611527419212331,0.5852264488510699,0.5466593473813697,0.5526176319217175,0.1777525553826369,0.3350937309850248,0.5419950781226619,0.40406023094191057,0.3409325539792569,0.5747120723805204,0.6556450551824906,0.6549984806085127,0.6285572954624701,0.6951431767956715,0.35887811635922984,0.1529963082041894,0.49057921720201825,0.5545000737703794,0.4026616864213304,0.5104016070297142,0.7120152547312311,0.7666156121139005,0.7999977166992867,0.7424239918766269,0.8016417773397293,0.4800750345034819,0.23050401530242337,0.5949123462415138,0.6911608606008623,0.5421090530259851,0.3240503220327906,0.34284924134676964,0.38041208124963144,0.45734506075574033,0.4637695067257386,0.5496282273921638,0.5595465592946998,0.11935996486474787,0.1692327471738826,0.5167147855528598,0.49492817826063606,0.33582326816951835,0.41852468712803614,0.6254451294933772,0.6872608649160601,0.7592409873106283,0.7043047210183391,0.6903132014164701,0.6208652317842225,0.19130152792758204,0.3260156613517491,0.5553635482298909,0.4535790804495268,0.3781954184936229,0.5612830533278756,0.5917852174076501,0.5503146925426379,0.6243126036704865,0.6276491483154631,0.7045480065149745,0.35350678358202337,0.39034632298718264,0.5910818108027069,0.4454944566577186,0.389549055948504,0.5792591394897466,0.5914086754636478,0.59184346470432,0.579969070039067,0.5565845923509263,0.5417152969108561,0.56171487589128,0.1525312298103454,0.14961272833152806,0.4645241903569206,0.46369544378438854,0.3469449689760069,0.4380340857273539,0.6245976547412797,0.6410067261442436,0.6700254146102484,0.6841135456246799,0.6054795863715603,0.6658073025793521,0.43224606552466205,0.06331314290559331,0.34975824367766717,0.5134451558891511,0.3963518600199716,0.47326245426881397,0.6847668526791442,0.7148681818098741,0.6489922296187285,0.5926126586421068,0.5208427092566235,0.568388109631577,0.17462363402348413,0.15639460220650725,0.4902569183482284,0.3657366959251591,0.5955897692197165,0.7208739498174805,0.692491116378944,0.7724780732122196,0.8291752290895513,0.8514436540639834,0.6742636980191927,0.5466204734544611,0.6529986040459603,0.6308006365911731,0.42902604735218897,0.7566483793545709,0.824035612221065,0.7616321036301399,0.8319085098414807,0.7881105576556531,0.7713807775091202,0.7801288382870248,0.6306140948398207,0.5018233987873841,0.5995907621964041,0.5756960962571773,0.45312718633014604,0.7748894199118606,0.7219219627832685,0.6684393567015154,0.7052754493539315,0.72683775666523,0.7325538087629366,0.667438459661782,0.5223481071989935,0.6309934636606138,0.754401454483473,0.629638523842287,0.8593989435291542,0.8915455820521292,0.7689822781184514,0.7141947591331463,0.6884683381039547,0.7197752645832016,0.6096809170488566,0.49495146320282646,0.645946910459753,0.6570440531959305,0.5290270977186038,0.8587595514508151,0.8532688812864226,0.8307085108272976,0.876301648548903,0.8173610321632554,0.7799548482803484,0.6480186566437676,0.46414793332552917,0.6056640392072976,0.6769476590136156,0.45511492155445876,0.5592023878287569,0.8053830471038796,0.6238598811526621,0.604055635727138,0.5577815409696318,0.502691439230323,0.452849986417587,0.6024156543171173,0.8054336394760859,0.810304557012518,0.58286412992738,0.8389371273266268,MI
0.9282041928604823,0.6592540202717485,0.6625705271565883,0.5689619492531559,0.635606621471112,0.6826585355112282,0.7007227605227344,0.7049324252829754,0.40215489172707297,0.25499177103755555,0.501197736393511,0.60315653177038,0.9067688658483632,0.7640981806233764,0.6507348716404557,0.5727281807539475,0.5636838204742141,0.7096105688281682,0.7566375215374643,0.7652214772872847,0.5356060654628685,0.26160715788247035,0.43672246450559093,0.6715283320830787,0.9790907657644397,0.7930463772806338,0.8272366850559116,0.8297711736890996,0.6935764236027797,0.6612296330721001,0.5152949393744297,0.5932361610393571,0.5513220280007198,0.2224399586003556,0.24102695441929844,0.49896443221787656,0.7556382641200319,0.9442347517045224,0.6603305259184804,0.6933120609812349,0.5973235506502546,0.629852104767636,0.6951131607754748,0.6933362392104234,0.7051145532595218,0.4390772597516266,0.26471881793688956,0.4861924584398629,0.7043199700918414,0.9693448959851301,0.7308962550994034,0.7453184972215254,0.6186552714712468,0.526143002804984,0.622055984616833,0.6011130422427406,0.5508565820426927,0.26867654129285024,0.19180220536235248,0.4040586272928923,0.5840683380260714,0.828431478342587,0.5586050032748409,0.5801726831377323,0.46502609692448527,0.41194304943581717,0.4876317812106361,0.4131848406736012,0.31568511349018147,0.19677974072375548,0.23628400186399157,0.5304451614067007,0.7634535236227711,1.0,0.7465390011738773,0.8477818261646508,0.727259443770409,0.5892243897225518,0.679477902940886,0.6841378389552188,0.5853897135629671,0.5526862582789596,0.5334587548283816,0.4265172454741082,0.5539617342591834,0.6962952538280733,0.5315761773997787,0.6948354702560069,0.5401242457547815,0.39992955133286756,0.12416197128104756,0.0,0.15350526965996547,0.2647009818640136,0.3402139111722575,0.2841996109570588,0.23499576948257994,0.40896308286969685,0.3515377868450211,0.4607020952896317,0.473518644353244,0.2905977848270571,0.09581895031771825,0.014213383866974905,0.33545800725620056,0.4610312547497406,0.4813865438485614,0.41148892313742724,0.3759743893368821,0.5742316230281244,0.49154425251526845,0.6167574578791211,0.572939930752761,0.3623179982715561,0.11945006844845762,0.2100420801344538,0.5245564736828454,0.55194469800107,0.5415037381857184,0.4848221142117435,0.4392532100662452,0.5421216647644176,0.4773275368087804,0.6455897540394693,0.4720563052907254,0.25132865181826514,0.01306237593999171,0.20112351741593892,0.4571189614786597,0.39511387452177527,0.378322069914808,0.5158832013336685,0.5640702053267352,0.7051340156539254,0.5560265571802656,0.686031802512562,0.622984697648965,0.3741192941028997,0.13622282561082333,0.18356396648388618,0.5228020025404927,0.5844355505790997,0.5644357225254613,0.48075694624932286,0.37071626257575296,0.48826766121073106,0.4982984825581429,0.639262277297016,0.4667506535354926,0.3614747615544456,0.10978216191023549,0.20739780829430332,0.5210113972504233,0.5369292022678991,0.5245328051531004,0.4778745254818304,0.4220797167283603,0.5240534304246545,0.45438240856402246,0.6108734765476749,0.4822355982906572,0.24038041401060983,0.015332650327782638,0.19410981260036753,0.4436756013076204,0.41752731812643606,0.44393402075109023,0.4177970182252917,0.32999226402401005,0.5769820386302484,0.5722749226096608,0.525084338113345,0.5614503526659105,0.3777726232452725,0.20737801361205577,0.11345592036887808,0.43235114568247646,0.5590671952774109,0.49190355312858713,0.4425477812544445,0.34289361999505585,0.5154493847581563,0.6495146667356932,0.5292044325652139,0.7296108663748759,0.517593407180656,0.34968550802216347,0.12331555340870493,0.2091783386461863,0.505472694483144,0.5206870651679543,0.4808239607259335,0.36076815879654855,0.309005059009964,0.5417080675377033,0.5348973362119054,0.6409421942556808,0.6226476169073472,0.3533722376049955,0.15177591317779537,0.0831086850076086,0.4159687923255131,0.5472591584582744,0.5131232647513997,0.43549959230499535,0.3420229348106374,0.5292136238385421,0.6650436261307604,0.5534244564112463,0.552200179160323,0.6453855947805689,0.6968544934668879,0.6482152053645436,0.3138347677893485,0.25453191087191573,0.45040828385168474,0.6985369890225277,0.9697576334699258,0.7131510186270056,0.7177621166087826,0.557905003853155,0.504698328533463,0.6260214502938233,0.6693278939917491,0.6917667409411203,0.4681601901985051,0.2413363073553425,0.44324583625004,0.6495387505347514,0.9657860391663906,0.7837193579286428,0.7892120468285029,0.6936060660857919,0.5193398656930528,0.5894813506587449,0.6232701384957045,0.690541485495185,0.6859146661373803,0.3988000159063061,0.25924971769838434,0.46372478538298534,0.6739427987427904,0.9302921025316762,0.706925970957923,0.7727834668023865,0.6158143260777189,0.5248782883486269,0.6079644091242571,0.572406121004235,0.6123924117386252,0.5119417318794106,0.20032054075598005,0.3010858789925175,0.5561075587160644,0.8718975601677208,MI
1.0,0.6808574328642667,0.4976320011592734,0.17463549927115185,0.3669916165637699,0.4151911465265039,0.3236931576434734,0.8026178494547396,0.7944097573492392,0.7773069320095249,0.7028616557438943,0.5022622894544857,0.7194869287671541,0.5054134640662058,0.6110448020858992,0.9733367854791548,0.7776554143635712,0.7366774352382173,0.4097158806767882,0.2403276329434756,0.4551337123631809,0.24620496472131137,0.542493271532805,0.7831146105915474,0.6519419365260051,0.666886952264607,0.5920314767343724,0.5735655993899993,0.5112252059289548,0.05365738445555679,0.2648817806787367,0.24058819311208346,0.17102409702831967,0.5580541910420762,0.6568275045643928,0.761199254099902,0.5569544535613797,0.2198526283477955,0.5667690578964377,0.48145430725945415,0.48223283877501366,0.7263137939411148,0.6236340397640072,0.6835478851448844,0.2413608281111954,0.13111157981077204,0.36949068467263935,0.10980956893014593,0.2540037202083729,0.5341529722208649,0.7084248518323046,0.76743978206922,0.3181360988035449,0.5467615047505698,0.7186883213119883,0.4504079021495082,0.5245669299092306,0.527451431677127,0.605863822768173,0.17248078789046772,0.12860595312845824,0.44390580108500144,0.25026707096181244,0.41430791218802776,0.5659509344523506,0.6636804094346234,0.48391969025157255,0.13041168169119732,0.4768800975241456,0.4298229282896968,0.45137531297061884,0.7106580844793657,0.7520204440688452,0.7627531310974249,0.23194593203793268,0.2761595114974136,0.462471826443982,0.232494040171078,0.4582880446006179,0.5314577764432067,0.5230040138140786,0.38151314902064115,0.0,0.3243260753167463,0.3677938813246939,0.4669747699609581,0.6192641567115289,0.6576493847000222,0.5789682985327338,0.14294462576028355,0.4200657561244152,0.46712253451645447,0.37818237892289064,0.6507407374004934,0.6196472032916454,0.705382166542607,0.2929003824492793,0.2061369933252819,0.5035534567908555,0.29623596246165507,0.4526003204590672,0.5912895264225955,0.6483363303268925,0.4662696732861682,0.08656757230199696,0.38533558388622513,0.2918746144489881,0.3007810110720328,0.576634804639859,0.6801926450478941,0.6823356293844034,0.20891099837941152,0.3742308318194518,0.48286419398242764,0.2956902283881919,0.5616718152699951,0.5774752635317708,0.6853797068527441,0.3681835969973184,0.16670931512055098,0.48537321344263296,0.2990486869075366,0.4137362730933476,0.6412820664549734,0.6746668200770554,0.645429715869176,0.17366430461740467,0.390470502213188,0.5027118905151653,0.35443897932600876,0.6299303352149406,0.6391131818896691,0.7163125926179008,0.35651409463657346,0.15014473085648916,0.5182672304228477,0.36856717227727787,0.39570977478599323,0.5430578520940195,0.5641851099869588,0.49577170506723034,0.06753312996655825,0.33646420285819056,0.3555931216633943,0.34193382817319984,0.6272500375144903,0.6303560743338905,0.7310752855504834,0.2754293265946428,0.29057980691033336,0.5655680788514919,0.35668511679949644,0.5568467965257202,0.7634685500786902,0.5069463161766232,0.5405680040681351,0.6549410705591034,0.4294097559009624,0.82764380200314,0.8704747682743799,0.7361960336233793,0.613213970792784,0.36755203853468243,0.524618106243679,0.3033336891662404,0.48524060009306424,0.7895191859909385,0.619994379656208,0.6038234728214729,0.4086785739502403,0.6192881448024665,0.48522102020116886,0.4702984208399754,0.9032166449950081,0.7780098912764761,0.7557936411578865,0.510377879190897,0.49969963420189245,0.6458808971777281,0.3543178158157865,0.6974137472973174,0.892091037738433,0.7222752667727672,0.6322109348910803,0.35167667030958016,0.5470239891420352,0.49160242370783136,0.4860357526329788,0.8852248340905415,0.7165066804828868,0.6993310578368406,0.45880350912259926,0.47569484793702843,0.6285615952246695,0.3899680827429637,0.7876450070499912,0.9030233268094059,0.6984778658680009,0.5215251240424799,0.3028297943365703,0.5262843478116506,0.3610396718092139,0.5350296846503189,0.8711593100629371,0.6963194971234605,0.6472870385244538,0.37154632212823513,0.5374308795852665,0.5286233991780733,0.3871821178260326,0.8417392361824731,0.7917998379831608,0.7467654723549653,0.5551840590502684,0.46948485356122216,0.662896341418588,0.4022120666250788,0.6542415787627611,0.8826033974201275,0.7009734767893914,0.6750562670610409,0.42899426328921964,0.5117633121448928,0.2730058765072405,0.45716375266694875,0.7442638728186828,0.5878256217342765,0.6350471398951338,0.3697980995328889,0.4509087523299402,0.5757116916352634,0.36755855813254934,0.8188669271935423,0.9703644047096107,0.806360964819457,0.6703590026704278,0.449535505862412,0.6425990916853759,0.42486448012138567,0.556913563117917,0.9013546739379952,0.7015901790198993,0.6245548512189139,0.3499398658797408,0.4503260695795017,0.4973979749390889,0.27307636051743067,0.7041962756674862,0.7222010626094151,0.640088464917929,0.5285206944445049,0.6994670007909791,0.8518842467443477,0.5465617270501961,0.8503941261520227,MI
0.9999999999999998,0.8737412846277579,0.6683349526588198,0.37168107778032744,0.030793739499322736,0.0,0.25784317156404835,0.3438797770508524,0.41158732011117216,0.2924868387449202,0.5109373566677284,0.5195695867590824,0.2524951788422869,0.2038857408389585,0.37439313245933503,0.35452220198829254,0.2702846026837653,0.5178759423337125,0.4335252579974376,0.15950782259291763,0.1480579816595995,0.34596822763858204,0.3737840788329325,0.23878295155257945,0.49490288532480053,0.5206675630190001,0.239614973440619,0.12236222462372415,0.29826802109666706,0.39595057212596463,0.26333149754553054,0.48430066232164104,0.5319179012155297,0.2581105784281046,0.13327839771384276,0.2891069699191653,0.4333027241690621,0.29869034165035613,0.41940414496697653,0.556783133281394,0.3141097733636773,0.13914290678855923,0.2753100167820668,0.4031538296845294,0.27874760581944424,0.4561977782065907,0.5492460789365479,0.2938208556751156,0.16685481595928375,0.29818569519633775,0.4145931325464658,0.2684873810437065,0.42212220506159537,0.5394366879352805,0.28660816062337147,0.11217948236642616,0.26156584495580626,0.3914423207901112,0.23814075595950324,0.40827811200463104,0.5656481975567906,0.3291905111565516,0.11721389254387016,0.23837462855223368,0.40633923593975174,0.30062496234233405,0.338447215917669,0.5718650968244336,0.39991775271135044,0.14356671962868495,0.2109413487141496,0.3960279484692555,0.3179399950679844,0.3319579805333066,0.5677540827096612,0.4129404234587013,0.14878924591424125,0.18934071701545063,0.3650517137394378,0.3484518544526569,0.29490439021035875,0.5249748261368756,0.4163398865036172,0.17913933263733428,0.2410446666502284,0.4177165764947992,0.3540289953172855,0.38572821962692627,0.5869570796761059,0.3948362450182614,0.15127569292564824,0.22815860612628036,0.3790840527192392,0.25842148790340125,0.3635921693177624,0.5577689879131202,0.34158817985653966,0.11369053537858109,0.21556169112612888,0.396813553186788,0.29875890868958166,0.3676301139413629,0.5712048605437581,0.3685406076692461,0.13102661296480256,0.22655763607155888,0.3984211263407911,0.29423206885753417,0.3660656461641787,0.5867771524437944,0.3977016581873378,0.1451251929976578,0.21603055129859094,0.3934587192846175,0.3474303155953966,0.351420537317076,0.571745387585868,0.40915409814077264,0.1768473177108163,0.24224131826371798,0.4077169675196173,0.3767851446101087,0.300518985641707,0.540325199398686,0.442058454480742,0.17235475361323882,0.1863588036681365,0.36865120702603926,0.3259228952677451,0.2965706851118004,0.5555899247123606,0.4827581770916418,0.5554827772745683,0.6202791543023902,0.42307410566078074,0.4697664410332236,0.3535310052353615,0.20592454067999144,0.35931367070640774,0.6178545690665749,0.5552596027592267,0.4584591097214621,0.4791442530552823,0.32170749895116457,0.2664673825457604,0.5113424895507666,0.6574417921564157,0.4655998559222305,0.47917419439242326,0.39728405886835727,0.22778455030328426,0.3251650573957958,0.6107486570709344,0.616676114048657,0.4420548967406339,0.47464274088546987,0.3178739478615813,0.19469861499122043,0.3971928858058087,0.6414234289596294,0.5170417023325837,0.4483825748415107,0.44475502703025405,0.2534521591083212,0.22195886940726184,0.4859091487250158,0.6489151321275826,0.4565359728264784,0.44780716452047487,0.38075990673531845,0.22083220633812273,0.3308717257396858,0.6122571028341615,0.60682751319066,0.47019278916301044,0.498938880810194,0.3322869495834515,0.24646920417550477,0.4746504627587522,0.6347717462603837,0.45994052511888217,0.4592769416805276,0.38797294146425165,0.22112970154393286,0.2811204180112674,0.5658754935653658,0.6089053040929235,0.42241629838650985,0.4858172856723486,0.35418810796352096,0.1985688726724646,0.3655523218319887,0.6295031605529495,0.5582752553765056,0.41758423236656306,0.47399946485505584,0.3159654436170236,0.1998827000401069,0.4126111477117349,0.6545328074265238,0.5172886121501667,0.40111889571440895,0.4455771210201209,0.26883320543025846,0.22958456767386526,0.49103533137035305,0.6371718039068834,0.4470537352752211,0.4710949212344131,0.39509595302152234,0.2610476244289295,0.3891409264722445,0.6369261848899688,0.5501384742841124,0.44193505275057876,0.45377800389098555,0.2844826249332624,0.24839229926963924,0.5076012214215389,0.6477742370736734,0.4633202443105833,0.4913860317306067,0.38692468898488763,0.21696575820556796,0.3128721190023276,0.5969265619806843,0.6170853472484421,0.4302185575611599,0.4688821717998992,0.3234025107307086,0.19423143456917846,0.39634882321654863,0.6439996282735236,0.5197791532584835,0.44872380280936075,0.43970198221416634,0.2392253347638047,0.22642418263204367,0.4976738464120489,0.6081376771088063,0.43951792227875086,0.47798811184130785,0.3732003896383016,0.2651961755353671,0.4591475257792701,0.6657095426926609,0.5126060918363182,0.46465739399177264,0.4426015823661933,0.3613170251641753,0.16608224554777773,0.045998829612366565,0.351488469535451,0.686152367000681,0.9725436560424596,MI
1.0,0.8845879167591426,0.8386584089155056,0.7584302166721746,0.6433201806226461,0.7068338608062268,0.7760227246182319,0.6417149372078943,0.4941417315351618,0.679145680633112,0.8316596546427308,0.8162164589646075,0.8589322761738647,0.8890577695712987,0.8962998734509529,0.8925785499390286,0.8337498880927086,0.8788955885195504,0.9527176279323417,0.8310220346975012,0.6189446672454204,0.6812173654644913,0.7590977316620151,0.665740630035802,0.6584420749378266,0.7199089934191678,0.7436439061224378,0.7478398483286595,0.6649334173977639,0.719124713166237,0.7947244124875152,0.6605584836816878,0.4604361148944663,0.5876832469349076,0.7887071080732921,0.7847429487481508,0.7687678414964929,0.7947084773804891,0.800234314613792,0.7831806900445564,0.7151394145111905,0.7256103783112349,0.7561915965434878,0.6098475303701545,0.5363712162435126,0.7328881570001973,0.7670940750765429,0.7305495691067458,0.780465754123226,0.8024146857632868,0.8176318451705604,0.7613667250621685,0.6958956488131205,0.7790254209525309,0.7744324028987817,0.5836508295486944,0.5440665091936596,0.7574482725441503,0.8176381551217433,0.7823252189415424,0.8195990211813446,0.8270399567067659,0.8205179800927527,0.7828250942756982,0.7124279653859069,0.7724318480548413,0.7421257857473582,0.6081103156175574,0.7505125902464427,0.8437527476808397,0.8112861588474818,0.8687372854958992,0.8663353807790108,0.8195508569894361,0.7532230550084293,0.6444049312908791,0.6538860880079975,0.7174184312946719,0.6026964845616647,0.4699656535246725,0.650025189490437,0.7615854496312129,0.7243824284168723,0.7541166514198321,0.7524938818626963,0.7279919681922797,0.7028832415208919,0.6138831514828769,0.6080441570931656,0.7652705867666021,0.7744026940937399,0.597438475188562,0.4908844306406071,0.6914726684373687,0.7923308058767577,0.7517625248682811,0.7594036770989303,0.7317520766663963,0.7091782342865809,0.7298902665594915,0.6970845185629579,0.4535242907005989,0.19894267146376293,0.2127278319044607,0.4749149642950565,0.7051642384275219,0.7342001122382558,0.5797343349909438,0.5563884743126943,0.6589233265745529,0.6917548892338878,0.7147558627488708,0.7228871277374085,0.6775481823156662,0.7058126738595925,0.5877073001402435,0.31502683358499944,0.1346648235209919,0.30865317391598984,0.5690197974289777,0.6729974565407699,0.5977669121263771,0.6199670323364641,0.7299195708446713,0.7960210480847507,0.8357798319533136,0.8100420350250805,0.766386520868692,0.7892093650742167,0.5994145918021645,0.32188980827747976,0.26286330731992597,0.5069502723894477,0.7208826510783855,0.7259310732071691,0.6719120476845777,0.7553302749556143,0.7888336197745716,0.7947655519872698,0.7841282230408466,0.7397366022405307,0.7777764311006334,0.659411397661749,0.37959871445042775,0.160865538578224,0.2898597521691671,0.5629771228561691,0.7491261759594432,0.7118664855352481,0.6636435709370685,0.7550077496595828,0.7816924291287422,0.763372287726644,0.7361507316347509,0.687023086405141,0.7335882327750254,0.6149249655837352,0.3563705143965667,0.15025155906672477,0.27635455756488686,0.5470289736666749,0.7169028250662894,0.6917223244180637,0.6789164202933105,0.7493366638777483,0.7679116191692716,0.762372181861751,0.7224797988902874,0.7483280849179039,0.7026653251360953,0.44913069220514085,0.21160346142159442,0.3033450666188035,0.5729953749134487,0.7524502468398153,0.697371087695601,0.6177917615684068,0.6959246712352734,0.7110939056158512,0.6896123018211706,0.6401694534403917,0.6008136620362823,0.6759204565108048,0.5854710453964913,0.3365347980556203,0.345104102218222,0.60885318164424,0.8506132199394285,0.9004945171704017,0.8025712105671774,0.8187229639613527,0.8658736522908752,0.8606175854435263,0.8470578435520539,0.7850126014033809,0.7881566500624178,0.6835542789674887,0.4094509357540243,0.19822478594438725,0.3365069287445274,0.5936666812107592,0.7401190759173824,0.6667601086473702,0.5983791782180015,0.7136234645218187,0.8033584023867173,0.8410381190839622,0.9388842742324932,0.9193212809350655,0.7907202524961612,0.707321301047704,0.6485045742849249,0.4724782558372775,0.2284157691211613,0.0,0.07589108008799289,0.34221122809186116,0.5983410089639025,0.7057184619718351,0.6099319639330127,0.598396194912002,0.6826734126206675,0.726379300344518,0.7625606142291759,0.7497813548203125,0.7496516549213639,0.7632939019793499,0.547411394030888,0.2737183465925967,0.2389901801659648,0.4844487253226261,0.7220132725043711,0.7667219255998003,0.757969525073249,0.8135604364389704,0.720952483993414,0.5462244158235443,0.6744131279856767,0.8260116202836689,0.785626348292642,0.7904732344493446,0.792314845058852,0.7521908307850438,0.7114157020310998,0.6347397080500734,0.6728036188298094,0.7449807681562943,0.6207947752740408,0.3774035110364103,0.33292456490892525,0.5588637188570229,0.694611470891138,0.7586210251222449,0.8424421795725123,0.9699622276942144,MI
1.0,0.7658231499736305,0.6511094511347886,0.541259239598785,0.36572129198318004,0.3353530704900032,0.40480041416045065,0.7396528961844231,0.8391404158326896,0.6164301301865032,0.5226037039168094,0.42852852383723317,0.289650010578113,0.2918628706240973,0.3846062759251119,0.7435871336944975,0.9123640650933247,0.6989715011297322,0.5492315301613098,0.4801066164578991,0.3341031571946078,0.3548479465843939,0.47971356263897125,0.8369489755333812,0.9293163003437028,0.6720294356335148,0.5345719978993437,0.49269531333279515,0.3808295861499498,0.37416911261049624,0.4449875966396024,0.7666261113946509,0.928797047265526,0.7199495207722504,0.5834131831980756,0.40519826540510984,0.1926188789865675,0.13182307692394835,0.33646419432469576,0.6107937545023483,0.9316313649848929,0.8508053903933868,0.644789970607976,0.5633620227517926,0.4357320891160459,0.29836812635318655,0.33295428545710903,0.5128899859624996,0.8749154496227152,0.8796350267117772,0.6429618385657982,0.5278028068944294,0.4268846279900078,0.5451217811079996,0.8125938527213652,0.7294300105553102,0.365064507991645,0.23434527198855015,0.20528165047695346,0.36727803789166247,0.4198831512653265,0.5999862796081246,0.8398909543629745,0.7139601593364606,0.37639194640480733,0.1522966681079727,0.0,0.1769764873554669,0.32952999877605604,0.5011333619548535,0.7604688730372064,0.7929734576995449,0.4489736341052133,0.31839203347579836,0.2465131302978225,0.34066413456940303,0.33166041082893827,0.4041269991671994,0.6478977066847906,0.8588949875821403,0.6214354700328109,0.3311215414512345,0.2644836011376075,0.24231904046027797,0.3803818492435651,0.40053783153802147,0.6287659215744927,0.8362462578318408,0.6055300557982015,0.2780570792209782,0.2090349110466212,0.20452620997118398,0.3324094263395194,0.3814317429288976,0.5814430761487586,0.7673524605691018,0.5270876350020641,0.28145803474721864,0.22601650212694402,0.31342319210059033,0.44100128089395296,0.5005522332466565,0.7301419152816093,0.9263033942932402,0.6904413910149572,0.38123728326525397,0.3132948532139621,0.32688896125202804,0.4186721539500513,0.39811769613318315,0.5088811842383589,0.711746458204761,0.5368355714504962,0.21524176745775137,0.15939894197724147,0.16215471411629379,0.28532596842565017,0.3128402817673339,0.4857567286181008,0.7982197092392669,0.8234085152004975,0.49997464455706897,0.4599421426657204,0.4369848668876837,0.3933250441504059,0.2842685526737512,0.3506140906747328,0.6135169539867849,0.5891548083508629,0.2933710990093368,0.2433439912928388,0.21659691495623967,0.3178039156193537,0.3649245485041659,0.5524950642696944,0.7516799927155766,0.5310299759275625,0.2739661912574394,0.25942467747158426,0.2879908352492957,0.39939383967029407,0.44002817823107554,0.6386615467059773,0.8522034052870961,0.6534881684429048,0.34559914417352156,0.26055484964001163,0.24717289059905623,0.36391334979491585,0.4123647800424157,0.5985313055475543,0.8071272842417025,0.6052174453969168,0.3113457840446747,0.22250501000332346,0.24740630334318237,0.3482499842446898,0.4451578137511185,0.6774658692671869,0.8497541054333144,0.5743480983970177,0.29602075050786913,0.2525462337949529,0.2815496425078621,0.27215572371597263,0.38650430237807987,0.6871909755935852,0.7878133871450754,0.47201430488324236,0.3396084716248895,0.39144844706538384,0.3609163627718215,0.32456501852511677,0.4598585184240145,0.6771616836523875,0.5177705811180582,0.19234426565687235,0.11758693358802264,0.265734982023607,0.4479597131944848,0.26023726743096054,0.21290293692625895,0.45032582518586795,0.7657632087650419,0.674042208082231,0.5085896380055508,0.46375716912469844,0.47291012119743137,0.45405962632435193,0.44341666344536934,0.7249369643962291,0.9034101302233006,0.6798189042760874,0.46543790833323406,0.4105232931752423,0.3455006077748872,0.33922169305308714,0.4484992812344406,0.8088900753943147,0.9284680084832577,0.6981739101285305,0.5969373693561684,0.4635775291100388,0.3151363047660949,0.31244597382862693,0.4161109838951793,0.7527898044585553,0.8783635073117968,0.6684570654749256,0.5778733128784874,0.4695926355661366,0.3371533343423758,0.35304426873313677,0.46963789539335554,0.8278547352647321,0.9293358714175799,0.7059499204620305,0.5888583774617246,0.49000245832331535,0.3506535576265799,0.34060231041097344,0.3932166890683728,0.7303246822237281,0.8231222913472336,0.6021123149378269,0.4950831230260051,0.4058647412027043,0.2979233591847277,0.32230788135121413,0.4258437303373026,0.7335690127748773,0.6705768064150046,0.4354989392503428,0.44130249219394857,0.49710645718963065,0.541856397372491,0.5391878396028318,0.679175669746793,0.9721308867940741,0.836068633366136,0.5495622091623225,0.4509239231409783,0.3677777873710286,0.22951272263598854,0.24955904394788053,0.4163137474899452,0.7708161862073744,0.7456167926399018,0.5615818765713523,0.5685948249060133,0.5097955749979222,0.38715195043727,0.4133849805107199,0.5499369933917961,0.9117044491456667,MI
0.9970111492341593,0.8964269306819923,0.9395972927303022,0.9371017298456441,0.8077118019853136,0.5059266060493615,0.6101358323143611,0.9031672451901209,0.9987321804095664,0.7478345647224081,0.5602749127413462,0.8967156309149629,0.9094182074482622,0.8541464232014708,0.9232034654013144,0.9077226619160359,0.8378235609134066,0.5448702003327708,0.4914435882780741,0.7965157071305975,0.9567127574653429,0.7994276300357588,0.60665222063782,0.9029045519641357,0.8978816787351467,0.8906787465377604,0.9295939741471053,0.9220880553165687,0.8821206934839845,0.6632348574227938,0.4913171151231621,0.7502234488862389,0.9404317050742592,0.8448300414989269,0.5854537442965206,0.871592050399042,1.0,0.9156995746772454,0.9477153595362573,0.9323059278029051,0.9011972895774072,0.8650653718039587,0.6783296444168014,0.4595356134601052,0.6981603848128861,0.9501118215874693,0.9270334754661294,0.5716544651090749,0.5470081236483804,0.9146142199332346,0.9195419315075135,0.8916226941693757,0.9386907998754941,0.934853020571897,0.9053947967962515,0.8004422994602955,0.4996466484942488,0.5325440457624628,0.8410988136314002,0.9578459815053981,0.7399645854448011,0.5461442003559132,0.8752187392579902,0.9155872862383396,0.8923158280171384,0.9418726071192567,0.9278736456051178,0.9087604959393158,0.8356734685602842,0.5453377390194416,0.49195896920222504,0.7985038700637785,0.9639117684238441,0.8923416206478936,0.8380740603359702,0.6379552871255787,0.3255194599503022,0.40349895682343995,0.7102854913879151,0.787413161220853,0.807651490411534,0.8216758146152654,0.7788387256430869,0.7882030511158065,0.6842294383842829,0.19212416510067332,0.1744675404046454,0.643651443304746,0.8202318393975179,0.6563906745665804,0.3362744896863794,0.354966872439201,0.6752945379458759,0.787498253776933,0.8137418048459875,0.8138365528077207,0.766123672937002,0.7785430283782206,0.727914907805606,0.2366984533804879,0.10387281168407236,0.5725875739277813,0.8450713542223136,0.752091745425687,0.4430628011817781,0.3282753472476201,0.625522031496414,0.7603304168705574,0.7885367826764034,0.8196153650045077,0.8044950649767775,0.80465622598122,0.8334537054136635,0.3999583512032805,0.08094275422285291,0.4839671805422361,0.8036211077059345,0.738150974797116,0.4518768811136997,0.3394620236734074,0.6380057693606478,0.7900059869323406,0.8051189750469239,0.8090187132987272,0.755174935218025,0.7732108737077916,0.7018095189841667,0.20535227168237835,0.1308362143042885,0.6073170824015821,0.8186530892277939,0.6618829921552032,0.34980718252029597,0.3767575694271059,0.6917559982733152,0.7889273666644288,0.8006321876165972,0.7468401445691364,0.7638699826357112,0.712187151812651,0.24282565958666646,0.2804500527238716,0.7374867557892166,0.8619413277082058,0.6673924545130752,0.36222383632751143,0.4672171430422263,0.7579635980342174,0.8197824319201037,0.7906461451132079,0.7795220855451888,0.7627509453851267,0.29314403010957646,0.15067432875040332,0.6120447977263965,0.8487063506512493,0.709387475881095,0.38305176087848425,0.34318474034214086,0.6702381604712992,0.7866380390234182,0.7925548771117397,0.8104468916158725,0.8140170857932056,0.7964411337430697,0.7571888622720659,0.7697547490608656,0.3615229971193914,0.0,0.37342918630419586,0.7730586569580886,0.7991768908704118,0.5561158737906391,0.3138956926967338,0.5167195458507186,0.7415687699087594,0.7791251995813524,0.8007828401217423,0.8053548963155945,0.7815878939152574,0.769169578256307,0.7349860410396101,0.26738730542887623,0.15800146001927962,0.6176890602043308,0.8332991783198636,0.7210736659300818,0.40395265757590826,0.3227477192014163,0.6426864466206985,0.7905630408999285,0.8061044805986195,0.8110040503353875,0.7851953578054158,0.7372950724317264,0.7939829041842508,0.5048159048541692,0.07623072920848584,0.3613273227595095,0.7722668956618559,0.7910444296541947,0.5209288122080613,0.272745706258799,0.5053922489377927,0.7564644092773412,0.8560784749718007,0.7978818205041458,0.48080751901149554,0.4736127187535324,0.7973650859865988,0.9667133654913322,0.7977065316053169,0.5082199003172572,0.801353911435156,0.9203673814521189,0.8789986730545025,0.9095104069875735,0.928570379749726,0.9263386729593672,0.9046007446659372,0.7047600210463609,0.4325379321912659,0.6277903644954881,0.9057828692224543,0.9312535859708282,0.6469667714811438,0.6913717611406174,0.9379130206925921,0.874140787072732,0.9174158286244416,0.927419549448055,0.9160303789871787,0.8860326609861704,0.7679768640110614,0.48592559582072203,0.5936282840356681,0.869379481655824,0.9640188105051961,0.7351052825253168,0.5459423973695787,0.8732650885735982,0.9123155477253473,0.9056531645342711,0.9416138717231997,0.9305928543673572,0.9174561478537107,0.9081360211499714,0.8976912519231024,0.7225770651341361,0.4433823953226761,0.645395867846903,0.9212722907847257,0.9666960062696801,0.7069364888575689,0.7913458378609994,MI
0.05990604719647448,0.3114380523722976,0.582775910426151,0.8337356934264726,0.9379938763778255,0.8504860774738503,0.8386491587759289,0.8820909213894343,0.8764246202068379,0.880296034355752,0.7704002942598542,0.5076287452443224,0.23821083480887334,0.02897712433498144,0.12709239898758456,0.3885667086454832,0.6477081433560199,0.8864644993700946,0.9424972127037143,0.8388909049854508,0.8443722999028689,0.875173820429716,0.8640788829060935,0.8596057147959422,0.6559401189831455,0.383811325973127,0.12072286590428112,0.05842660091354525,0.2907872847806059,0.5510511236174527,0.8068986215674109,0.949932217066555,0.8772521625683508,0.8276266335033245,0.8754104860453047,0.8731241946507964,0.880544420120616,0.718092010938249,0.44950013836574637,0.17980431473652714,0.04500268285087554,0.23178184775109684,0.4989698568465361,0.7641005201288934,0.9537225669761642,0.9251244332771962,0.8313711985214461,0.8701844965745505,0.8756345403687058,0.8563946844770424,0.8012330124089885,0.5576842016307809,0.2936213922304406,0.06280668323670642,0.07275756898702766,0.31966698943152805,0.5828722777823373,0.830922811395691,0.9213288261335111,0.8337100064179648,0.8422790433728192,0.8821978593879387,0.868355054088318,0.8677944755167284,0.686108001793548,0.4258043084264265,0.15782042673007501,0.030670398578698202,0.23298164051779208,0.5039558396599347,0.7680814834415145,0.9508026618786554,0.9222747509212172,0.9385677554740341,0.9921548676988325,0.844700503634685,0.5875105470190297,0.38345158165593957,0.5061023589999203,0.7694334196026514,0.9315202495020276,0.9024714941401504,0.9108476928208848,0.8842663650855944,0.8583555715584916,0.9486423972827054,0.9271868808910522,0.7149359022257108,0.4844833199640654,0.5392189911808213,0.7899744982601918,0.9115773251959836,0.8956327556548201,0.9110478934187856,0.8716588113829687,0.9098769476368527,1.0,0.9061610812324505,0.6707174460485977,0.42549939893030647,0.42260834468989067,0.6461440123101942,0.883155249330789,0.9281538790148653,0.9077542062959054,0.8969288736269073,0.8570576324493318,0.9416976434538864,0.9818418259810437,0.8131004493929876,0.5599493199032098,0.454660193618546,0.664563050545922,0.8954364170870972,0.9133238749889232,0.9005926037083519,0.8960976206189731,0.8558971528232079,0.9314354371381894,0.9875498528568953,0.8374268043360454,0.5839906777154185,0.4732818563640698,0.6843510818844418,0.9032228748840629,0.9126997767106082,0.9140580509555145,0.9015976908841715,0.8563774318511778,0.927281761157492,0.9651794064296906,0.7982103208452997,0.5408809742654528,0.3948188476056857,0.5820568012427424,0.8265998017138867,0.8870370408832631,0.8917456134221403,0.8959351189366608,0.8677525776906326,0.8885718568512844,0.9788594165066062,0.894370648836807,0.6523126760507475,0.4539295431403036,0.5825857326306102,0.8337230660008785,0.9261978650972458,0.9241211702261676,0.9147452981330868,0.8819560339251042,0.885282229623184,0.9776146186220935,0.9080255281626759,0.6710670754144709,0.42566296415696075,0.4324583875782581,0.6839428876045618,0.8951448858498441,0.9168797027908333,0.9203892531753479,0.9025911827602526,0.8582043168505753,0.9288407436219857,0.9747084152998908,0.8202146070835843,0.5705649263644603,0.4360813958125244,0.6321286045668986,0.871134495274128,0.9231646605783401,0.916745787074235,0.8999479155338197,0.8510370020597113,0.8839738852886392,0.9612982527475777,0.8528892820673383,0.6069104879535716,0.45790645386207235,0.6414607061756089,0.8690510141121527,0.907228536151722,0.9110091707160122,0.9069038701184171,0.8662204213023286,0.8991816875341441,0.9833848833209573,0.8890509256264217,0.6523723185556078,0.4284452954699612,0.5049235736875953,0.763628200439764,0.9232480750894705,0.9224100864337297,0.9179809800623961,0.8967623469114813,0.8580504638348657,0.943184695268442,0.96357670799937,0.7886361001099226,0.5374145747554265,0.47128169209319787,0.7010791626602876,0.8946572265959924,0.9049300768629803,0.9093735737315793,0.8996236172045636,0.8588150279425361,0.9426036862614604,0.9874600792403336,0.8421358744231769,0.6116059242985579,0.34932540073377943,0.10838624354222902,0.14871856041943315,0.40739826349405767,0.6578924170400784,0.8776187300775329,0.9468805778369704,0.8452399155954896,0.8451062379137516,0.8816237727302346,0.8776731797970613,0.8610953221729137,0.7155304932196663,0.4505550803006549,0.17777343900307646,0.0,0.15041666154139938,0.4178000168549661,0.6857255217183743,0.9027838943763917,0.9153930626638205,0.8256222090112731,0.8629604694602473,0.889481681000454,0.8901690176985124,0.8578371252698201,0.6519955045839949,0.3890907972937286,0.1283627369139123,0.028414230228514525,0.23686510955593965,0.5028485462614539,0.7604352870022427,0.9382142882360724,0.9033149926210001,0.8228533207693889,0.8702147538694069,0.8823091154868969,0.8720360294442099,0.8149840592882721,0.5829950785114137,0.31106763532873266,0.05789415939380686,MI
1.0,0.9641438317820046,0.9608937899043655,0.944800074018668,0.9387385318029624,0.9260396981199808,0.7259732880310386,0.6561445031257171,0.8440479951194662,0.9007987362077059,0.6224857496450305,0.571857534807058,0.907676404329008,0.9811352326417597,0.9769776975436324,0.9690311086228829,0.9536412453189973,0.9463225175936207,0.8972148604472001,0.6711143952264191,0.6649412322757038,0.8467670572020216,0.8638267282347987,0.6342075965784424,0.7925008314550464,0.9689337199545731,0.9510091589126133,0.9527833658842293,0.9595595255965383,0.9668178339116822,0.9224595264837436,0.6948621412188518,0.5946383853243946,0.7631829734777766,0.8142831013347616,0.5460301972706103,0.457461433445709,0.7806885097296232,0.8209685443272763,0.6888202645603716,0.4883680202139955,0.5901771417462067,0.4889861373063369,0.692440232167848,0.6554562959072305,0.2436088005121968,0.0,0.3180886602968769,0.6968222536014108,0.7176158261168573,0.5412159589461978,0.5936762706711514,0.8448061770468507,0.9194239610063728,0.9092454378700836,0.9030088533357494,0.8928521500242064,0.8891886057276173,0.6389145969233865,0.20317736338925907,0.1148649934990782,0.5109741534767804,0.8058963909537651,0.7237947054178901,0.5449047360732044,0.6702591037604586,0.8764126895639586,0.8988826396747598,0.9084798353019381,0.9247409660567505,0.9207770186827422,0.9102339909725132,0.7854584875236141,0.3641334565280723,0.08866418172614576,0.37844985086243543,0.7726278828610249,0.8236684012564552,0.6335305311247301,0.5994504535967331,0.8267672003498352,0.8910480665192182,0.8872742401921845,0.9031958446772395,0.9158136622742346,0.9041474359157404,0.8606806300138956,0.4811327859495673,0.12051678198788784,0.30188120825423037,0.7244155232847711,0.867437869150991,0.7089065972466215,0.6088479418180246,0.8155974045988832,0.9212698236358787,0.9140740755397387,0.916272964670938,0.926277184113415,0.9086328732164661,0.9034995891629749,0.606063688821749,0.19105457123193315,0.22383562956779524,0.6365370818624778,0.8360912652787649,0.6984240947249098,0.5683418648062357,0.7567653895591719,0.9003491890748103,0.8854045130668893,0.888559671570814,0.9033348775843462,0.9010261314189023,0.8871378292697112,0.5902425331144665,0.16912106938026406,0.17515807964692165,0.5896395468156379,0.8382183746134793,0.7188010212935101,0.528676675706764,0.649546838598779,0.8664147651331287,0.9068108336061491,0.9133108226672357,0.9245651860163489,0.920467774944592,0.9130981823768742,0.8168378730156478,0.4231781454622845,0.09529336205809602,0.30360188814283684,0.7168469354966296,0.8188240580948123,0.6435095457668627,0.5471710231667946,0.7674682621822491,0.9002345032600778,0.8985366816094746,0.9037553995381393,0.9149176818191229,0.9200964640019178,0.9152867469279506,0.6368793084812729,0.20830514092318686,0.17439540813480803,0.5829030133172186,0.8543085472334551,0.7548591940351679,0.586642603488222,0.7153568622571707,0.8927356130664088,0.9004887654276228,0.904043113098187,0.920148009720763,0.901697327951744,0.8784329489271285,0.579957845409153,0.15763563558002835,0.15428102708215796,0.5685556560367493,0.8295785552114805,0.7258849167295838,0.5531288846249593,0.6860771872377318,0.8767849396567833,0.8958760274691198,0.91640121486475,0.9274434867644197,0.9051677420112156,0.8722191186387049,0.522529218938975,0.1280134106922628,0.2311871579110052,0.6591029248377844,0.9094488716718327,0.6880296540037465,0.5394734447380234,0.8686845962707075,0.9780427961469353,0.9732312321852508,0.9675745368711115,0.9493669974268468,0.9451849924893567,0.8743062905231982,0.65546375698605,0.7018217069645987,0.8744174000692353,0.819407449842239,0.5435197821540794,0.7445079088409383,0.963903105131402,0.9643572797352,0.9707170129704781,0.9576043120622635,0.9536058505624951,0.9420023504081172,0.7722635432969818,0.6573317783410395,0.8298969314722799,0.9261983862297476,0.721743807705588,0.7412489982199961,0.9861198431554223,0.9831240086743658,0.9642763798249541,0.953861933088985,0.953462021748535,0.9568419101531407,0.8387904991333262,0.6234190911320481,0.7265279179977404,0.8858854691078055,0.7822197969054769,0.5348503664270186,0.7977015206847833,0.9926113785555355,0.9761004819718075,0.9736486286170845,0.9718311884992339,0.9593646248843988,0.9466096654520091,0.8268345323662483,0.6108958555147659,0.7102672288860497,0.8845207614643118,0.8069208589262931,0.5887052204261922,0.8403767359513212,0.9702808295291918,0.9601455842527002,0.9439364413029145,0.9306711116432842,0.9462828543057893,0.943011686844148,0.7498144946353316,0.6450336148101594,0.8200875163273271,0.9007884655197755,0.6687255512105228,0.6684244569632309,0.9643224678597377,0.978426749872622,0.9807066227354206,0.970954667951041,0.9677720652875368,0.9728701497827981,0.9291216627064669,0.7131555537552152,0.7248112964365607,0.9030904881976909,0.8813214961173896,0.6561606999150147,0.8656869273622383,MI
